Frame#,Time,L.Forearm.x,L.Forearm.y,L.Forearm.z,L.Ulna.x,L.Ulna.y,L.Ulna.z,L.Radius.x,L.Radius.y,L.Radius.z
1,0,56.97503,308.67001,695.25305,77.2004,289.85928,599.06818,165.20784,261.99695,632.24249
2,0.008,57.11981,308.68146,695.35504,77.54321,289.62677,599.39423,165.65854,262.71924,632.29321
3,0.017,57.11981,308.68146,695.35504,77.19629,289.95966,599.5307,165.83461,263.20929,632.46912
4,0.025,57.09952,309.26135,695.61371,77.43789,290.5737,599.95282,165.91838,262.95886,632.31293
5,0.033,57.05663,309.28806,695.51587,77.25777,289.81967,599.63373,165.91838,262.95886,632.31293
6,0.042,57.15949,309.43958,695.66388,77.43789,290.5737,599.95282,165.20784,261.99695,632.24249
7,0.05,57.15949,309.43958,695.66388,77.65928,290.48712,599.96368,165.18767,261.82147,632.33124
8,0.058,57.15949,309.43958,695.66388,77.65928,290.48712,599.96368,165.57841,261.20859,632.57001
9,0.067,57.15949,309.43958,695.66388,77.65928,290.48712,599.96368,165.3017,260.80042,632.37561
10,0.075,57.28267,309.01123,695.55322,77.65928,290.48712,599.96368,165.3017,260.80042,632.37561
11,0.083,57.11981,308.68146,695.35504,77.65928,290.48712,599.96368,165.85533,259.92139,632.89764
12,0.092,57.11981,308.68146,695.35504,77.65928,290.48712,599.96368,165.25206,259.55206,632.30096
13,0.1,57.4221,308.50122,695.37738,77.65928,290.48712,599.96368,165.41241,258.77338,632.32953
14,0.108,57.92393,307.76486,695.59229,77.65928,290.48712,599.96368,165.41241,258.77338,632.32953
15,0.117,57.88469,306.33835,696.05902,77.99138,290.29639,599.72015,164.99957,257.70352,632.21515
16,0.125,58.24771,305.86539,696.17755,77.73336,289.49231,599.46661,165.17238,257.34943,632.26538
17,0.133,58.6279,305.24426,696.58392,78.06142,289.40201,599.68561,165.34082,257.23212,632.33972
18,0.142,58.6279,305.24426,696.58392,78.17889,289.25128,599.7821,166.24818,257.96106,632.62732
19,0.15,58.85722,305.00284,696.60071,78.58026,289.91895,600.11206,166.06282,258.53394,632.84534
20,0.158,59.23487,304.78729,696.82843,78.80363,290.03058,600.27509,166.07397,258.73956,633.02344
21,0.167,59.15104,304.94019,696.96527,79.51628,289.83923,600.23584,166.43214,259.513,633.16595
22,0.175,59.3597,305.26471,697.05872,79.50631,289.94077,600.77246,166.83757,259.83731,633.40381
23,0.183,59.42096,305.23862,697.26166,79.90655,289.79398,601.0271,167.25761,260.39285,633.86456
24,0.192,59.6673,305.70648,697.08099,79.90655,289.79398,601.0271,167.96864,261.25851,633.38556
25,0.2,59.71475,305.90076,697.15918,79.90655,289.79398,601.0271,168.12888,261.19247,633.22791
26,0.208,59.80902,305.89774,697.40271,79.90655,289.79398,601.0271,168.12888,261.19247,633.22791
27,0.217,59.84517,306.02643,697.26398,79.7147,289.65158,601.20563,168.12888,261.19247,633.22791
28,0.225,59.84517,306.02643,697.26398,80.13568,289.67242,601.53619,168.12888,261.19247,633.22791
29,0.233,59.37556,306.16583,697.56232,79.90886,289.65771,601.61432,167.38518,260.43188,633.17712
30,0.242,59.3791,306.07028,697.65173,79.65229,289.69162,601.67413,166.96751,259.96408,633.99402
31,0.25,58.99057,305.60095,697.58722,79.63606,289.72235,601.63721,166.6441,259.58411,633.82947
32,0.258,58.95685,305.41891,697.65741,79.63606,289.72235,601.63721,166.35829,258.60645,633.23987
33,0.267,58.90938,305.22461,697.57928,79.63606,289.72235,601.63721,166.53119,258.25232,633.29016
34,0.275,58.70073,304.90009,697.4859,79.63606,289.72235,601.63721,166.52007,258.04672,633.11206
35,0.283,58.61605,304.26605,697.80829,79.66236,289.43842,601.84857,166.46458,257.95004,633.20502
36,0.292,58.89251,304.09665,697.74365,79.22155,288.82382,601.95331,166.15733,257.82401,633.29407
37,0.3,59.39404,303.42267,697.8634,79.49435,288.75919,601.93042,165.69614,256.75272,633.33801
38,0.308,59.47359,303.31055,697.93823,79.10065,288.38123,602.15533,166.33835,257.71368,633.36401
39,0.317,59.58413,303.14124,698.53943,79.3494,288.33597,602.12268,166.11687,257.9935,633.37128
40,0.325,59.52425,303.11774,699.03021,79.3494,288.33597,602.12268,166.50854,258.05045,633.91302
41,0.333,59.99794,302.19852,699.17786,79.15855,287.98892,601.84918,166.50854,258.05045,633.91302
42,0.342,59.85223,302.55072,698.99347,79.15855,287.98892,601.84918,166.56401,258.14719,633.82013
43,0.35,59.74353,303.06,698.80658,79.15855,287.98892,601.84918,166.93141,258.28436,633.95697
44,0.358,59.61436,303.14627,698.96722,79.15855,287.98892,601.84918,167.17607,258.72455,634.03351
45,0.367,59.39925,303.45206,698.46143,79.15855,287.98892,601.84918,167.38478,259.71915,634.13843
46,0.375,59.39925,303.45206,698.46143,79.15855,287.98892,601.84918,167.28763,259.48727,634.078
47,0.383,59.32227,303.84518,697.86047,79.19061,288.11798,601.72827,167.28763,259.48727,634.078
48,0.392,59.52729,303.75085,697.76709,79.3494,288.33597,602.12268,167.28763,259.48727,634.078
49,0.4,59.32227,303.84518,697.86047,79.38145,288.465,602.00171,167.37399,258.98828,633.95831
50,0.408,59.32227,303.84518,697.86047,79.3494,288.33597,602.12268,167.15755,258.43243,634.06104
51,0.417,59.37107,303.89957,698.13751,79.3494,288.33597,602.12268,166.75227,258.10822,633.8233
52,0.425,59.59904,303.32834,697.77002,79.38145,288.465,602.00171,166.75227,258.10822,633.8233
53,0.433,59.47359,303.31055,697.93823,79.14733,288.5112,602.54626,166.50507,257.78055,633.12781
54,0.442,59.52241,303.36496,698.21527,79.14733,288.5112,602.54626,166.46321,257.09155,633.4411
55,0.45,59.61436,303.14627,698.96722,79.14733,288.5112,602.54626,165.71619,255.12611,634.54761
56,0.458,59.86873,302.28479,699.33856,79.14733,288.5112,602.54626,165.84827,254.99593,634.63885
57,0.467,59.53164,301.63156,699.61792,79.14733,288.5112,602.54626,166.01991,254.91112,634.68445
58,0.475,59.53164,301.63156,699.61792,79.14733,288.5112,602.54626,166.01991,254.91112,634.68445
59,0.483,59.61728,301.54117,699.89429,79.46595,287.9707,602.36072,166.10692,254.86388,634.9469
60,0.492,59.73772,301.52209,700.16577,79.21525,288.16406,602.66046,166.69887,256.1026,634.83911
61,0.5,59.73772,301.52209,700.16577,79.40872,287.72046,602.62482,167.18112,255.88319,635.01019
62,0.508,59.77796,301.53299,700.36359,79.40872,287.72046,602.62482,167.30678,256.21738,635.05963
63,0.517,59.85777,301.4783,700.28046,79.66158,287.9473,602.63086,167.68457,257.22104,634.9021
64,0.525,59.97681,301.47473,699.91089,79.80694,286.9234,602.47296,167.93065,257.54468,634.91724
65,0.533,60.3398,301.89288,699.71735,79.55395,286.69644,602.46686,168.07864,257.68936,634.7677
66,0.542,60.318,302.16046,699.56079,79.61125,286.94678,602.2027,168.00449,257.96957,634.61926
67,0.55,60.19891,302.267,699.12268,79.61125,286.94678,602.2027,168.29723,258.00711,634.61951
68,0.558,60.19277,302.73041,699.10931,79.81337,286.77118,601.77881,168.40816,258.40558,634.44165
69,0.567,60.32198,302.6441,698.94867,79.81337,286.77118,601.77881,168.20772,258.50552,634.09314
70,0.575,60.13507,302.99829,698.47198,79.66805,287.79526,601.93695,168.00989,258.24176,634.16833
71,0.583,60.13507,302.99829,698.47198,79.66805,287.79526,601.93695,168.09676,258.10712,634.27094
72,0.592,60.23346,302.74377,698.58234,79.66805,287.79526,601.93695,168.09676,258.10712,634.27094
73,0.6,60.23346,302.74377,698.58234,79.46595,287.9707,602.36072,168.02386,257.61783,634.25299
74,0.608,60.52914,302.30356,698.79987,79.3494,288.33597,602.12268,167.44191,257.08414,634.09235
75,0.617,60.44634,302.13287,699.1311,81.22839,288.14996,603.75507,167.43571,256.28732,634.3186
76,0.625,60.44634,302.13287,699.1311,79.34293,288.48782,602.81635,167.43571,256.28732,634.3186
77,0.633,60.46816,301.8653,699.28766,79.41086,288.14059,602.93054,167.6364,256.18723,634.66748
78,0.642,60.86079,301.50046,699.69031,79.41086,288.14059,602.93054,167.35759,255.87518,634.98834
79,0.65,60.58877,301.50186,700.25494,79.60434,287.69699,602.89502,167.76523,256.25546,634.94531
80,0.658,60.28568,301.25827,700.29279,79.69125,287.56256,602.98633,168.10475,256.37213,635.10437
81,0.667,60.08085,301.35254,700.38599,79.69125,287.56256,602.98633,168.2798,256.8623,635.27948
82,0.675,60.28095,301.27908,700.5744,79.69125,287.56256,602.98633,168.00156,257.05893,635.15405
83,0.683,60.47232,301.74692,700.78479,79.75686,287.77585,603.44891,168.17888,257.16916,635.0965
84,0.692,60.55892,301.86801,701.00623,79.75686,287.77585,603.44891,169.32567,257.79773,635.72577
85,0.7,60.6642,302.05075,700.99847,79.56338,288.21945,603.48444,168.59895,258.26172,634.71948
86,0.708,60.6002,302.5657,700.97522,79.56338,288.21945,603.48444,168.46089,259.07382,634.86621
87,0.717,60.6002,302.5657,700.97522,79.56338,288.21945,603.48444,168.50571,259.00177,634.72418
88,0.725,60.4002,302.6391,700.78687,79.56338,288.21945,603.48444,168.46089,259.07382,634.86621
89,0.733,60.96577,302.9892,700.46997,79.78284,288.93579,604.01355,168.41885,259.13644,634.62158
90,0.742,60.45803,303.00507,700.05505,79.8112,289.04761,603.45435,168.41885,259.13644,634.62158
91,0.75,60.57655,302.97821,700.6778,79.49545,288.56668,603.37018,168.50525,258.63745,634.50201
92,0.758,60.57655,302.97821,700.6778,79.3992,288.80203,603.81525,168.49501,258.27087,634.54425
93,0.767,60.33208,302.48248,700.60486,79.40853,288.70102,603.27887,168.29723,258.00711,634.61951
94,0.775,60.69244,302.08072,700.47412,79.40853,288.70102,603.27887,167.87813,257.78943,634.41913
95,0.783,60.84081,301.79474,700.16962,79.34293,288.48782,602.81635,167.32506,257.32062,634.33105
96,0.792,60.69222,301.79382,700.23138,79.41086,288.14059,602.93054,167.43571,256.28732,634.3186
97,0.8,60.62196,301.3447,699.896,79.41086,288.14059,602.93054,167.40285,256.39276,633.78839
98,0.808,60.36984,301.06021,699.6701,79.60434,287.69699,602.89502,167.52061,256.25565,633.88837
99,0.817,60.44436,300.59732,699.63776,79.83655,286.53845,602.82849,167.5719,255.91147,634.14197
100,0.825,60.44436,300.59732,699.63776,79.83655,286.53845,602.82849,166.73428,254.25435,635.1012
101,0.833,60.27831,300.77435,700.02466,79.83655,286.53845,602.82849,166.70132,254.49384,635.23041
102,0.842,60.21381,300.89175,700.3526,79.83655,286.53845,602.82849,167.16409,255.42207,635.45886
103,0.85,60.05586,300.94492,700.55231,79.90218,286.75192,603.2912,167.29305,255.73289,635.12238
104,0.858,59.6764,301.13867,700.54541,79.90218,286.75192,603.2912,167.54675,255.85924,635.80304
105,0.867,59.84426,301.55191,700.78516,79.75692,286.64496,603.69775,168.19394,256.87207,635.8009
106,0.875,59.84426,301.55191,700.78516,79.61164,287.66901,603.85535,168.35446,256.81268,635.82635
107,0.883,59.65252,301.7406,700.9751,79.78371,287.68851,604.40985,168.05963,257.62421,635.93707
108,0.892,59.93923,302.24359,701.18567,79.6022,287.76987,604.39166,168.26439,258.75458,635.64606
109,0.9,59.93923,302.24359,701.18567,80.99046,287.77008,604.59979,168.26439,258.75458,635.64606
110,0.908,59.93623,302.55331,701.52905,79.40874,288.21347,604.42712,167.84669,258.76013,635.31873
111,0.917,59.77819,303.67465,702.3999,79.40874,288.21347,604.42712,167.25908,259.36899,635.39392
112,0.925,59.24393,303.28531,702.08099,79.40874,288.21347,604.42712,167.83537,259.89645,635.73053
113,0.933,59.84506,303.11496,701.9007,79.40874,288.21347,604.42712,167.54924,259.87497,635.72314
114,0.942,59.77325,303.53769,701.89764,79.40874,288.21347,604.42712,167.54924,259.87497,635.72314
115,0.95,59.71489,302.9895,701.79608,79.19062,288.24228,604.46509,166.73108,260.04807,635.51416
116,0.958,59.0028,302.81915,701.60535,79.07321,288.3931,604.36853,167.5732,260.22635,635.89728
117,0.967,58.66882,302.71353,701.49835,79.07321,288.3931,604.36853,166.51227,259.83603,635.20886
118,0.975,58.59254,302.35785,701.19977,78.58075,288.92099,604.27002,167.45035,259.73947,635.62268
119,0.983,58.70833,302.33502,701.02814,78.58075,288.92099,604.27002,166.51071,258.05997,635.1123
120,0.992,58.46635,302.1987,700.93207,78.41485,288.62393,604.16193,165.84602,257.29907,635.32574
121,1,58.47346,302.06143,700.823,80.92053,287.86481,604.21716,165.94382,256.98068,635.46588
122,1.008,58.47346,302.06143,700.823,78.42416,288.52295,603.62543,165.94382,256.98068,635.46588
123,1.017,58.47346,302.06143,700.823,78.25339,288.14886,603.13489,165.94382,256.98068,635.46588
124,1.025,58.07697,301.84357,700.72137,78.25339,288.14886,603.13489,165.94382,256.98068,635.46588
125,1.033,58.16681,301.9751,700.66077,78.25339,288.14886,603.13489,165.94382,256.98068,635.46588
126,1.042,58.27329,302.1351,700.63477,78.25339,288.14886,603.13489,165.60315,258.15173,635.07672
127,1.05,58.27329,302.1351,700.63477,78.25339,288.14886,603.13489,165.51967,258.7403,635.27411
128,1.058,58.27329,302.1351,700.63477,78.25339,288.14886,603.13489,165.908,259.49634,635.0827
129,1.067,58.27329,302.1351,700.63477,78.25339,288.14886,603.13489,165.86661,260.94849,636.19769
130,1.075,58.26618,302.27237,700.7439,78.18555,288.49606,603.02063,166.2406,260.31128,635.59515
131,1.083,57.86652,302.96713,700.80768,80.44839,288.35178,603.99591,166.1683,260.84604,635.66864
132,1.092,57.77729,303.33609,700.80267,78.01469,289.16223,604.29108,166.57832,260.13449,634.89105
133,1.1,57.36132,303.92331,701.0556,78.01469,289.16223,604.29108,166.69965,259.86365,634.64227
134,1.108,57.11219,303.9241,701.06879,78.01469,289.16223,604.29108,166.41873,261.18439,635.74445
135,1.117,57.11219,303.9241,701.06879,78.01469,289.16223,604.29108,165.56711,261.13919,636.08673
136,1.125,56.78591,304.21509,701.12531,77.68236,289.35373,604.53455,165.3506,261.23804,636.27875
137,1.133,56.74984,304.08621,701.2641,77.68236,289.35373,604.53455,165.23169,261.23114,636.28601
138,1.142,56.74984,304.08621,701.2641,77.33613,289.3353,604.65027,165.19612,261.05719,636.17896
139,1.15,56.74984,304.08621,701.2641,79.65872,288.56726,604.44305,165.18489,260.85205,636.00079
140,1.158,56.74984,304.08621,701.2641,77.33613,289.3353,604.65027,165.18489,260.85205,636.00079
141,1.167,56.74984,304.08621,701.2641,77.33613,289.3353,604.65027,165.14441,260.14038,635.88763
142,1.175,56.74984,304.08621,701.2641,77.33613,289.3353,604.65027,164.96513,259.96439,635.75397
143,1.183,57.01587,303.40265,701.3476,77.33613,289.3353,604.65027,164.59644,259.40305,636.07648
144,1.192,56.82952,303.50623,701.19708,77.33613,289.3353,604.65027,164.6369,259.23355,635.99933
145,1.2,56.82952,303.50623,701.19708,77.33613,289.3353,604.65027,164.55099,258.84293,635.8266
146,1.208,56.9217,303.31842,701.24292,77.17628,289.28214,604.74255,164.39056,258.90967,635.98431
147,1.217,56.84887,302.59787,701.21912,77.10229,289.38547,604.42786,164.53368,258.67664,635.6969
148,1.225,57.0094,302.48291,701.2644,76.94243,289.33234,604.52014,164.53368,258.67664,635.6969
149,1.233,57.39595,302.30563,701.60309,77.17628,289.28214,604.74255,164.55099,258.84293,635.8266
150,1.242,57.39595,302.30563,701.60309,77.17628,289.28214,604.74255,164.55099,258.84293,635.8266
151,1.25,57.39595,302.30563,701.60309,77.17628,289.28214,604.74255,164.85596,259.03574,635.75085
152,1.258,57.41755,302.03854,701.75958,77.17628,289.28214,604.74255,164.79729,259.16681,635.84167
153,1.267,57.41755,302.03854,701.75958,77.24394,288.93506,604.85693,164.79729,259.16681,635.84167
154,1.275,57.41755,302.03854,701.75958,77.24394,288.93506,604.85693,166.10045,260.36612,636.47473
155,1.283,57.41755,302.03854,701.75958,77.23444,288.55484,605.02893,166.10045,260.36612,636.47473
156,1.292,57.59899,301.94086,701.95135,77.23444,288.55484,605.02893,165.35246,260.24161,635.9032
157,1.3,57.61189,301.94333,702.1347,77.56319,288.4501,605.18182,165.01515,259.91696,636.23914
158,1.308,57.53207,301.99799,702.21783,77.895,288.27313,605.00439,164.72525,259.40015,636.38202
159,1.317,57.53207,301.99799,702.21783,77.895,288.27313,605.00439,165.46852,259.44269,636.68225
160,1.325,57.53207,301.99799,702.21783,77.895,288.27313,605.00439,165.30618,258.38513,636.98352
161,1.333,57.53207,301.99799,702.21783,78.03828,288.13684,605.08118,165.2682,257.76376,637.4679
162,1.342,57.38754,301.98615,702.11572,78.03828,288.13684,605.08118,165.26202,257.23349,637.38489
163,1.35,57.27274,301.73236,701.88556,77.895,288.27313,605.00439,165.99493,256.98709,638.18817
164,1.358,57.27274,301.73236,701.88556,77.895,288.27313,605.00439,165.99493,256.98709,638.18817
165,1.367,57.31564,301.78726,701.71277,77.895,288.27313,605.00439,164.96916,256.39752,637.46838
166,1.375,57.26825,301.5929,701.63483,77.56319,288.4501,605.18182,164.70004,256.52243,637.29858
167,1.383,56.76383,300.94385,701.60681,79.2471,287.93015,605.00433,164.1153,255.76849,637.29718
168,1.392,56.63376,300.76688,701.30371,77.34557,288.44998,604.77448,164.224,255.93481,636.80035
169,1.4,55.84333,300.80322,700.82281,76.82242,288.29428,604.74487,164.1032,255.81662,636.59094
170,1.408,55.63014,300.80502,700.58905,76.83179,288.19354,604.20825,164.55498,256.53906,636.64148
171,1.417,55.547,300.9328,700.45984,76.40998,288.25403,604.03113,164.29117,257.20374,636.44281
172,1.425,55.49925,301.02957,700.19885,76.40998,288.25403,604.03113,164.22681,257.34131,636.33386
173,1.433,55.71033,301.36758,700.15704,75.98521,288.43552,604.04688,164.22722,257.67209,636.37836
174,1.442,55.76891,301.79163,700.09991,78.29153,287.84457,603.97375,164.53368,258.67664,635.6969
175,1.45,56.10813,302.24161,700.29779,76.16818,289.04965,603.5545,164.6125,258.72128,635.51721
176,1.458,55.9779,302.11578,700.1933,76.16818,289.04965,603.5545,164.26439,259.06329,635.34393
177,1.467,55.80496,302.42261,700.27539,76.16818,289.04965,603.5545,164.18269,259.00928,635.74219
178,1.475,56.10813,302.24161,700.29779,75.9176,288.78265,603.9325,164.39056,258.90967,635.98431
179,1.483,55.71517,302.44052,700.48218,77.95621,288.37476,604.92316,164.39056,258.90967,635.98431
180,1.492,56.1213,302.41125,700.65265,76.09919,289.23047,604.74225,164.22937,257.75467,636.57007
181,1.5,55.44172,302.65256,700.36414,76.75774,288.9989,604.94897,163.88927,257.93341,636.79498
182,1.508,54.97854,301.69196,700.71899,76.75774,288.9989,604.94897,164.14746,257.25378,636.94116
183,1.517,54.72401,301.31638,700.53418,76.75774,288.9989,604.94897,163.36179,256.6817,636.84656
184,1.525,54.59996,301.01755,700.55945,76.6133,289.01172,605.18683,163.33696,255.98804,637.18469
185,1.533,54.25666,300.71527,700.65985,76.70021,288.74817,605.21313,163.04214,255.72099,637.46368
186,1.542,54.46411,300.97946,700.75128,76.70021,288.74817,605.21313,162.64696,255.05481,637.59705
187,1.55,54.19622,300.68951,700.70367,76.23734,288.95563,605.27649,162.55653,255.04532,637.84631
188,1.558,54.34949,301.41168,700.56085,76.23734,288.95563,605.27649,162.55653,255.04532,637.84631
189,1.567,53.71962,300.52533,700.62244,76.23734,288.95563,605.27649,162.56633,255.39398,637.7514
190,1.575,53.54144,300.83466,700.59521,76.23734,288.95563,605.27649,162.71227,256.26498,638.11603
191,1.583,54.14862,301.5636,700.43158,75.95473,289.24329,604.9801,162.89581,256.68744,637.71222
192,1.592,53.51995,301.95389,700.70776,75.95473,289.24329,604.9801,162.62663,257.72617,637.68066
193,1.6,53.51995,301.95389,700.70776,75.76389,288.89633,604.70715,162.67606,257.13412,637.06519
194,1.608,53.70902,303.3588,700.84064,75.38821,288.9071,604.48199,163.1143,258.8891,636.94513
195,1.617,53.17474,302.9386,700.71167,77.74033,288.35663,604.77399,163.06075,259.01297,636.83582
196,1.625,52.83619,303.06583,700.65936,75.35117,288.9758,604.22601,163.06075,259.01297,636.83582
197,1.633,52.46319,303.37042,700.20099,75.1987,288.89694,603.67273,162.26398,259.87723,636.7168
198,1.642,52.10599,303.79947,700.01093,74.69408,289.13464,602.52295,161.74002,259.66241,636.03192
199,1.65,51.87028,303.89084,699.4726,74.69408,289.13464,602.52295,161.82996,259.73453,635.95404
200,1.658,51.97928,304.0108,699.43433,74.69408,289.13464,602.52295,161.10625,259.86591,635.91772
201,1.667,51.75521,304.68051,699.15387,74.18233,289.7554,602.45148,161.10625,259.86591,635.91772
202,1.675,51.99581,305.23569,699.49689,74.18233,289.7554,602.45148,160.86581,259.40219,635.8429
203,1.683,51.45452,304.20709,699.49823,74.37637,289.67493,602.70862,160.35426,258.61084,635.39447
204,1.692,51.69292,303.63153,699.65985,74.23149,289.56778,603.1145,160.52217,258.48865,635.48834
205,1.7,51.64211,303.42453,699.73914,74.23048,289.63165,604.37775,160.2256,258.27759,635.71844
206,1.708,51.49858,302.69229,699.50739,74.23048,289.63165,604.37775,161.61172,258.58371,637.51538
