Frame#,Time,L.Forearm.x,L.Forearm.y,L.Forearm.z,L.Ulna.x,L.Ulna.y,L.Ulna.z,L.Radius.x,L.Radius.y,L.Radius.z
1,0,-522.31757,499.81958,1075.48535,-529.73254,524.65363,950.15625,-494.07053,435.15469,909.09381
2,0.008,-517.88623,498.42377,1075.21851,-525.78668,524.12866,950.63959,-490.62137,433.6868,909.4494
3,0.017,-514.97107,498.96341,1075.10974,-520.06079,521.9422,950.24146,-485.98059,433.82535,909.85901
4,0.025,-509.35886,500.38025,1074.68127,-516.32623,522.0271,950.31793,-481.44382,433.60477,909.76898
5,0.033,-505.78442,498.14023,1074.23047,-512.17706,522.44122,951.15063,-477.19769,434.59134,909.12323
6,0.042,-501.59982,498.53342,1074.25269,-508.08691,521.68341,950.28839,-472.88885,432.81479,909.19208
7,0.05,-496.36221,499.64053,1074.15381,-503.56155,522.37592,950.9281,-469.06473,433.46539,909.07788
8,0.058,-491.99124,497.54684,1074.44727,-499.90308,522.91156,950.27893,-464.87766,433.75732,908.79608
9,0.067,-487.76825,495.57086,1073.39453,-495.2547,521.07404,949.86011,-460.07361,433.0209,908.508
10,0.075,-483.33292,496.81201,1073.96936,-490.1225,521.9754,950.1839,-456.15231,432.22729,908.09991
11,0.083,-478.60626,495.28854,1073.63342,-485.11996,522.15906,949.67401,-451.61871,431.85077,906.83356
12,0.092,-473.50552,495.97079,1073.35632,-480.8179,519.73712,949.42786,-446.61279,431.0546,905.68518
13,0.1,-469.49243,494.57059,1072.7146,-475.51105,520.41504,948.98779,-444.61725,430.47812,906.00812
14,0.108,-465.33231,494.58972,1072.32324,-470.51764,520.02161,948.78967,-440.94669,430.04239,905.72009
15,0.117,-460.40091,494.80371,1072.11694,-468.35071,517.95374,948.0119,-435.54727,430.215,905.12781
16,0.125,-456.41959,492.45767,1071.59143,-463.92767,518.61584,947.8631,-432.41956,429.5235,904.74933
17,0.133,-451.57538,492.63699,1070.54553,-459.85159,518.01031,947.29565,-427.73685,428.37372,903.98071
18,0.142,-447.33972,491.60345,1069.922,-456.01755,518.03644,945.09851,-422.52542,428.62125,903.04565
19,0.15,-442.30997,491.69162,1068.96313,-453.11801,515.53607,945.22784,-418.03937,427.29227,902.60663
20,0.158,-438.48422,490.72272,1068.85754,-446.09454,516.97546,944.8786,-413.85315,426.23624,902.39667
21,0.167,-433.27667,490.87747,1068.12073,-442.36279,516.48828,944.47015,-409.06436,427.12112,902.03741
22,0.175,-429.62314,488.14514,1068.16382,-438.05859,512.86639,943.86902,-404.20511,425.41794,900.51556
23,0.183,-424.81894,486.5152,1067.20874,-433.05859,513.91315,944.0426,-400.67844,424.72699,900.37842
24,0.192,-420.40518,486.84885,1066.75989,-428.6611,513.7699,942.65845,-395.97601,423.43082,899.52026
25,0.2,-415.42297,485.42917,1065.76819,-424.88965,511.29279,942.84314,-391.55893,422.77039,899.44415
26,0.208,-411.07465,485.81131,1065.50232,-420.8161,510.87115,942.56024,-386.64142,422.74573,899.09003
27,0.217,-406.68857,483.84308,1065.15332,-415.51465,509.42529,942.16278,-381.96909,422.68622,898.72449
28,0.225,-403.0788,481.6756,1064.94678,-411.22693,509.52829,941.948,-377.16071,421.8382,897.87909
29,0.233,-397.43701,482.43097,1065.52026,-406.68884,508.76672,941.68964,-372.56979,420.27017,897.92932
30,0.242,-393.42694,480.80307,1064.90393,-403.68942,508.11142,941.82898,-366.83679,420.95129,897.21356
31,0.25,-389.62213,479.48761,1065.25879,-399.00989,507.29086,942.03558,-363.42197,418.73114,897.76343
32,0.258,-385.04391,476.94131,1065.39014,-395.06866,506.67276,941.60187,-358.26697,418.75958,897.77441
33,0.267,-380.60846,477.4968,1065.32397,-391.98291,504.86136,943.02771,-353.87747,419.05966,898.13538
34,0.275,-375.6611,477.8811,1066.32031,-387.659,503.80743,943.42566,-350.22964,418.04575,898.88116
35,0.283,-373.10272,476.68317,1066.55725,-382.37192,504.07364,943.39703,-346.51044,416.53714,899.45361
36,0.292,-368.23965,476.96606,1068.00635,-377.76932,505.21643,943.84601,-340.01096,416.9368,899.4826
37,0.3,-364.86938,473.07816,1068.37854,-374.15442,501.64828,944.39795,-335.69592,415.48206,900.29407
38,0.308,-360.11267,473.63922,1068.30737,-370.76791,500.1171,945.27179,-332.00323,414.48264,900.6947
39,0.317,-356.43832,472.84207,1068.80957,-365.68079,500.64783,945.80994,-326.48132,414.78522,900.25195
40,0.325,-353.05463,470.61646,1069.09497,-360.84616,499.94785,945.57727,-322.36453,413.68063,901.07397
41,0.333,-348.75644,469.88419,1068.92371,-357.15692,498.3569,946.29944,-318.76535,412.64401,900.91895
42,0.342,-343.85483,469.64777,1068.99463,-352.91934,498.07599,946.3974,-313.36917,413.08542,901.78967
43,0.35,-339.47409,468.5509,1069.3717,-348.41772,497.44778,946.534,-310.57773,411.70648,902.35095
44,0.358,-335.63364,468.44354,1070.28699,-344.84338,495.80911,947.46356,-306.13467,410.94363,902.72479
45,0.367,-332.55817,467.26279,1069.98242,-339.8334,495.98917,947.72461,-301.69812,410.5397,902.65692
46,0.375,-327.77951,467.4585,1070.47131,-336.78488,495.47772,947.73737,-296.60132,411.68338,903.37201
47,0.383,-325.39713,467.82187,1070.94177,-332.27142,496.25134,947.86993,-292.05359,410.16422,903.59637
48,0.392,-320.91544,466.26877,1071.12671,-329.04007,494.94653,947.66333,-287.15103,410.78503,903.79749
49,0.4,-316.1723,465.9357,1070.52039,-325.43195,494.16818,946.66193,-283.07397,410.18051,903.59985
50,0.408,-312.28381,465.06619,1070.90759,-320.87506,494.91779,947.06628,-278.67728,410.74582,903.70099
51,0.417,-308.02451,465.53238,1071.56409,-317.5726,492.70129,947.40186,-275.10431,408.65182,904.30652
52,0.425,-305.04633,464.89233,1071.13916,-312.61499,492.99084,947.58575,-270.50186,409.51669,903.88184
53,0.433,-299.76624,466.49939,1071.14612,-310.02536,492.4975,947.69427,-265.14786,410.34555,905.21075
54,0.442,-296.62741,465.5387,1071.76367,-305.24942,493.21487,948.04529,-260.89761,410.0625,905.3078
55,0.45,-292.38394,465.00317,1071.54871,-300.20267,493.21664,949.41455,-257.16617,409.80154,904.78412
56,0.458,-287.97971,465.76309,1072.11731,-296.75604,492.97351,949.67621,-251.74023,409.78799,905.24988
57,0.467,-282.44754,466.1767,1073.29761,-291.21686,492.03156,948.92035,-247.39595,409.26651,906.04156
58,0.475,-278.76855,463.57196,1073.17114,-285.9292,491.48148,949.60699,-242.29599,409.58194,906.63458
59,0.483,-273.58191,464.1366,1073.28979,-282.21509,492.11328,950.47522,-237.18417,408.90137,907.06903
60,0.492,-268.64471,464.22452,1074.69177,-277.48233,491.48834,950.92651,-233.56517,407.31131,907.32782
61,0.5,-265.05954,462.55795,1074.7865,-272.55569,490.81958,951.34076,-228.23674,408.39401,908.12897
62,0.508,-260.03152,464.02448,1074.39063,-267.58731,491.59912,951.57001,-224.4402,407.80591,908.12549
63,0.517,-255.20334,464.40195,1074.92432,-262.77551,490.68683,952.10742,-219.42313,407.80798,908.2077
64,0.525,-250.13191,464.07117,1074.49133,-257.38751,490.71436,951.90106,-214.49699,407.86713,907.88904
65,0.533,-244.85486,464.58163,1074.68323,-252.29463,491.89615,952.07721,-210.0433,407.77924,908.29059
66,0.542,-239.63342,464.66647,1075.79407,-247.09532,492.34482,952.27008,-204.75146,408.43158,909.03149
67,0.55,-233.76566,464.14868,1074.77722,-243.51724,490.29147,951.81097,-200.06097,408.16016,909.11194
68,0.558,-229.50368,464.80096,1074.7511,-239.05496,490.35144,951.99945,-194.52463,408.32623,908.58752
69,0.567,-224.10588,464.53665,1074.65466,-233.1454,490.76535,951.41534,-190.07875,407.47659,907.99829
70,0.575,-218.07497,465.44794,1074.03186,-227.50317,491.55472,951.30377,-184.23143,407.36945,907.28986
71,0.583,-212.70116,465.79333,1074.0437,-222.23495,492.18375,950.62036,-179.8333,407.85834,907.51654
72,0.592,-207.57518,466.40329,1073.66187,-216.40929,492.76956,950.62347,-174.07314,408.41275,907.52991
73,0.6,-201.65976,467.68661,1072.82361,-210.53526,493.5,949.95636,-168.72418,408.87805,907.49274
74,0.608,-195.84412,467.09949,1072.3894,-205.00346,494.19843,949.26746,-163.37128,408.53534,906.50647
75,0.617,-190.15308,467.5231,1071.67419,-200.2265,494.15588,948.45782,-157.45383,408.91974,905.11829
76,0.625,-184.93411,467.45557,1071.02869,-194.25325,494.00214,947.31543,-152.20795,408.9978,904.79907
77,0.633,-178.52126,468.60825,1070.20178,-187.07112,495.33099,946.18262,-144.97838,409.72949,903.83972
78,0.642,-172.78674,469.86212,1068.51648,-181.60573,496.84818,945.44745,-140.81909,410.73706,903.48346
79,0.65,-166.88464,469.83896,1068.40759,-176.17377,495.85413,944.89343,-134.49805,410.83301,901.94611
80,0.658,-160.45206,471.47949,1067.05615,-169.81375,496.82919,943.62439,-128.94716,411.30457,900.75995
81,0.667,-155.06181,472.31339,1065.58752,-163.26759,497.66586,942.65881,-122.87565,412.12933,900.28503
82,0.675,-148.69429,473.47815,1064.47144,-156.85269,498.00848,941.27271,-117.1621,412.29507,899.88916
83,0.683,-142.06371,473.96536,1064.37341,-149.83495,499.68381,940.23663,-110.70672,412.15677,898.52405
84,0.692,-135.66881,474.15729,1062.94897,-143.73981,499.89932,939.17822,-104.13424,412.57068,898.28326
85,0.7,-130.5871,474.77985,1062.09265,-137.66411,501.18311,938.66583,-98.2627,413.3963,898.01495
86,0.708,-123.58115,476.15359,1061.17017,-132.04378,500.74051,938.17249,-92.36082,412.48221,896.85614
87,0.717,-116.71595,476.92609,1061.38342,-125.95314,501.44901,938.32727,-86.81651,413.39029,896.83417
88,0.725,-111.9727,476.04453,1061.34534,-120.02589,502.17401,938.08124,-80.85981,414.18063,896.62579
89,0.733,-104.89223,477.44547,1061.44934,-113.62305,501.21417,937.52618,-74.76942,413.29721,896.16797
90,0.742,-99.72096,476.80453,1061.19897,-107.38454,501.6044,938.50861,-69.30822,414.15451,895.85156
91,0.75,-93.68792,477.48099,1061.87292,-101.9531,502.31833,938.05219,-63.53984,414.88638,895.86218
92,0.758,-87.71596,479.19534,1062.39038,-95.70264,502.87384,938.49713,-56.487,415.41885,897.41107
93,0.767,-82.56486,478.97977,1062.53625,-89.99152,503.09201,938.55481,-51.26984,416.35123,897.18738
94,0.775,-75.8036,479.6098,1063.59705,-83.90399,504.3555,939.58057,-44.17218,416.80481,897.89948
95,0.783,-71.02445,481.19479,1064.64294,-77.7719,505.55743,939.60065,-38.76804,417.58191,898.33368
96,0.792,-64.99654,482.10843,1065.4668,-71.94755,506.34402,940.90393,-33.07696,418.97458,899.69025
97,0.8,-59.44633,483.33954,1065.21338,-66.3625,506.66418,941.46313,-27.77286,418.77887,900.43738
98,0.808,-54.05371,484.4762,1066.30579,-60.65957,507.1506,941.8067,-21.61799,419.4653,900.6897
99,0.817,-48.14455,485.63504,1066.79773,-55.3605,507.70175,942.36707,-15.85728,419.61954,901.7326
100,0.825,-42.18584,486.49374,1067.57898,-49.12987,507.70313,942.74927,-11.3242,420.07227,903.52069
101,0.833,-36.64039,487.32449,1068.36401,-43.10964,508.80899,943.33057,-5.14279,421.35419,903.58118
102,0.842,-30.93407,488.11636,1067.76672,-37.54676,509.18103,944.3476,0.32218,421.09085,904.18811
103,0.85,-24.37206,489.11874,1068.1626,-31.94422,509.50677,944.53094,5.97496,422.15652,904.05762
104,0.858,-19.58601,489.28421,1068.46472,-26.04868,510.00012,945.13257,11.158,421.86047,905.18195
105,0.867,-12.94018,490.70526,1068.93005,-20.33142,510.99042,945.34119,16.03546,422.54105,905.70111
106,0.875,-8.26184,489.99814,1069.2395,-14.7532,511.41431,944.93573,20.92403,423.30368,905.46802
107,0.883,-2.49566,490.30731,1069.98486,-8.74237,512.07776,945.25763,27.24931,422.07184,905.60052
108,0.892,2.30287,490.27936,1070.36902,-4.22564,511.7775,945.77948,32.46815,423.66232,906.28503
109,0.9,8.26882,491.297,1070.30908,2.46533,512.81732,946.08075,37.37299,423.49133,906.34039
110,0.908,13.02921,490.40662,1070.29211,7.0062,511.8804,946.58112,41.6991,423.04706,906.92328
111,0.917,18.78375,490.30505,1070.89624,12.66029,512.93683,946.92133,47.40093,423.2254,907.12549
112,0.925,23.40715,490.00079,1070.91418,17.88569,512.54456,947.5036,53.44224,423.96317,907.32709
113,0.933,27.96355,490.39883,1071.15417,23.44296,513.72723,947.90277,56.78422,423.65833,907.2395
114,0.942,33.6413,490.26743,1072.40686,27.27203,513.20001,947.28442,61.93089,424.29755,907.2699
115,0.95,38.24572,490.37006,1072.47339,32.05541,513.06451,947.9278,66.57908,423.53714,907.52307
116,0.958,43.11276,490.35236,1072.44177,37.31894,512.95087,948.22351,71.19907,424.08994,908.09283
117,0.967,46.77723,490.1189,1072.47888,41.22208,512.82446,948.54047,75.65153,424.52798,908.37878
118,0.975,50.61032,490.17758,1072.53552,45.84438,513.31903,948.81384,81.35999,424.55475,909.2359
119,0.983,56.2053,490.86386,1072.89856,50.51548,512.57452,949.2262,84.74857,424.26343,908.91998
120,0.992,60.63863,490.91745,1073.21045,55.21058,513.11926,949.35297,90.81519,425.00699,907.763
121,1,65.9506,491.06433,1073.25574,59.83802,513.63855,948.52539,94.47157,424.2355,908.02704
122,1.008,69.61969,489.83875,1073.40564,63.45923,513.37726,948.86725,99.36616,425.15457,908.81219
123,1.017,75.41139,491.504,1072.75623,69.0295,514.7262,949.11987,103.81245,425.11847,908.98108
124,1.025,78.50946,490.95361,1072.91016,72.28136,514.80957,948.84607,108.77674,425.06439,909.07422
125,1.033,83.47028,491.35437,1073.29382,76.91194,514.28082,949.28998,112.99596,424.32947,909.1037
126,1.042,87.78365,491.48801,1073.48706,81.30888,514.42944,949.5014,117.37692,425.63901,908.46887
127,1.05,91.87364,490.83881,1073.80151,85.10554,514.56824,949.10223,121.87769,424.0462,908.95752
128,1.058,96.3279,491.16348,1073.28003,89.84779,515.03918,949.22882,126.66116,423.58484,908.4588
129,1.067,99.86942,490.10699,1073.31226,93.84232,513.24371,948.50848,130.04663,423.98795,907.57813
130,1.075,104.43064,490.62387,1072.24988,97.85606,512.97827,948.18713,134.55022,423.53473,907.95575
131,1.083,108.88342,488.55606,1071.83459,102.44732,513.70319,948.00494,138.98425,424.29544,908.021
132,1.092,113.54819,488.28024,1071.50378,106.57056,513.31006,947.72876,142.38972,423.63925,907.38727
133,1.1,117.20052,488.2128,1071.30786,110.13824,512.40778,947.29053,147.22534,424.26147,906.6189
134,1.108,121.84521,488.78702,1070.56299,114.78642,512.50153,947.08844,150.76999,423.5459,905.14435
135,1.117,126.31612,488.56747,1069.88025,118.65093,511.81702,946.54053,155.72749,422.28604,905.04401
136,1.125,130.71117,487.20239,1069.22852,122.63259,511.63467,945.48541,158.92804,420.92218,904.13306
137,1.133,135.80165,486.52676,1068.30518,127.24199,510.73474,944.76141,162.74503,420.6861,903.41412
138,1.142,138.53973,486.09335,1068.2229,130.75221,509.28241,943.60864,167.46097,421.1944,902.54852
139,1.15,141.99605,484.45605,1067.33337,134.70261,508.17313,943.05261,170.96703,420.72952,901.98785
140,1.158,147.45103,484.75186,1066.16516,139.92528,509.20517,942.84973,174.22707,419.47537,901.20984
141,1.167,151.97064,483.11594,1065.11401,143.61497,507.54184,941.86951,178.99879,418.74496,900.51428
142,1.175,155.0062,481.82727,1065.1449,147.69223,506.08444,941.0025,182.74652,417.30878,899.7215
143,1.183,159.78979,481.58252,1064.35266,151.61011,504.7847,940.82086,186.77521,416.95087,898.88556
144,1.192,164.1413,481.16461,1064.29395,155.83769,504.935,940.55322,191.08151,417.31735,897.62006
145,1.2,167.67613,478.79605,1063.44543,159.80411,504.50275,940.51233,194.38356,415.82462,897.14148
146,1.208,172.56142,477.95349,1063.14771,163.81,502.53641,940.35254,199.33884,414.80215,896.69092
147,1.217,176.36273,476.65161,1063.16113,167.42409,502.38498,939.81049,203.23087,414.24054,896.01434
148,1.225,180.15656,475.50858,1063.05188,171.11377,501.56781,939.92493,207.56052,413.61841,896.44708
149,1.233,184.77251,474.37939,1063.23816,174.07819,501.14526,940.14087,211.6265,413.76093,896.53809
150,1.242,187.93466,472.84988,1063.73804,177.69275,500.36047,940.0675,215.8443,412.81198,896.55615
151,1.25,191.66154,472.05765,1063.97437,181.5703,499.85504,940.50806,219.48083,411.51651,897.1275
152,1.258,194.37943,471.05249,1064.75488,184.79854,497.49973,941.22534,224.4792,411.26569,897.96838
153,1.267,199.64024,470.62973,1066.20776,189.0847,497.24234,941.59399,227.19026,410.32587,898.06262
154,1.275,202.89684,469.07248,1067.26428,193.22052,496.49826,943.19635,232.10149,408.71136,898.724
155,1.283,206.50267,468.22672,1068.04614,196.48734,494.33871,944.62012,235.74045,407.5596,900.4281
156,1.292,210.48558,466.32681,1069.32153,200.46318,492.78641,945.61322,239.80064,407.66412,901.31995
157,1.3,214.42429,465.51694,1070.32629,204.11363,492.54465,946.21124,243.88123,406.97931,902.3584
158,1.308,217.51047,463.97336,1071.15222,208.12381,491.99219,948.01715,247.55148,407.04611,903.21014
159,1.317,220.3094,463.151,1072.48962,211.78383,491.82007,948.54871,251.99348,405.02365,904.79126
160,1.325,224.29893,463.13162,1073.72717,215.66725,490.55923,950.10321,256.10925,404.81326,905.64294
161,1.333,228.54236,462.18549,1074.25366,219.25636,488.93927,951.25995,259.9006,404.49966,907.40405
162,1.342,231.00381,461.60443,1074.90845,223.66739,489.31683,951.63074,264.06366,404.32904,908.07776
163,1.35,234.3158,460.3812,1075.54639,227.32239,489.15759,953.31537,268.15958,403.51935,909.07098
164,1.358,238.98232,461.871,1076.69702,231.04971,489.08209,953.99066,272.93518,402.70813,909.91492
165,1.367,242.73825,461.04681,1077.2594,234.70284,487.98697,954.18683,276.35611,403.14838,910.3559
166,1.375,244.83228,460.6571,1077.50745,238.38368,486.81497,954.27795,280.58868,403.78461,911.21094
167,1.383,249.40387,461.32831,1077.52673,241.76944,486.99484,954.37323,285.35721,403.75391,911.83838
168,1.392,253.14917,459.84927,1077.75269,245.85191,487.43289,954.36029,289.74506,404.31934,912.09302
169,1.4,256.84616,459.88815,1077.82019,249.11693,487.15927,954.6601,293.77194,403.70886,912.36017
170,1.408,260.54001,460.35867,1076.9209,252.90408,487.32458,954.4975,298.89459,403.9509,911.56641
171,1.417,264.28848,459.80331,1077.91577,257.16544,487.6994,954.55579,303.81586,404.40619,913.0365
172,1.425,267.80786,460.33109,1078.78589,260.0401,487.0405,955.58228,307.04269,404.83478,912.81921
173,1.433,271.61774,460.39529,1078.51501,264.30103,486.93118,955.08148,311.74896,404.16385,912.66895
174,1.442,276.41422,461.12875,1078.85437,268.61005,487.392,955.33319,316.71091,402.96228,913.17072
175,1.45,279.93265,460.27652,1078.17554,272.88907,487.05682,955.99054,320.98358,402.7406,913.06494
176,1.458,283.60611,459.84637,1078.58679,276.73993,485.96478,955.61816,325.03583,403.84055,912.44965
177,1.467,288.0592,459.06125,1078.09558,281.12863,487.12671,955.64233,329.20148,404.12857,912.73804
178,1.475,291.93112,459.17932,1078.7915,285.65445,486.20078,955.68713,333.58896,403.79382,912.58386
179,1.483,297.19009,459.3649,1078.35278,289.83932,487.24664,955.39655,338.41406,403.87854,912.84607
180,1.492,300.34924,458.41315,1078.1366,293.81381,486.83444,955.00397,342.01904,403.927,913.2998
181,1.5,305.60858,460.41714,1078.07568,298.92902,487.52542,955.2854,346.2421,404.19397,912.92657
182,1.508,308.78809,459.70386,1077.96313,302.63376,487.32718,955.35199,351.00577,404.42328,913.03625
183,1.517,313.43536,460.94394,1077.70349,307.27322,487.21469,954.69092,355.5975,404.3201,912.79987
184,1.525,317.78043,460.01459,1077.90552,311.50421,487.59082,954.61353,360.39548,404.20493,913.13818
185,1.533,321.88788,461.35626,1077.06763,315.53955,486.98264,954.44897,363.76627,404.61118,912.80017
186,1.542,326.50244,461.46161,1077.11255,320.24536,487.56815,954.72504,368.90414,404.97205,912.62311
187,1.55,331.85068,462.18164,1077.51563,323.95099,486.61603,954.64459,373.44406,404.99405,912.92151
188,1.558,335.09146,462.44415,1076.98645,328.88266,487.48712,954.73608,378.34006,405.383,912.69647
189,1.567,339.87915,462.47818,1077.06885,332.95419,487.2485,954.02405,381.83118,405.80704,912.40186
190,1.575,345.46365,463.42688,1077.28662,337.79517,488.44547,952.52258,387.12146,406.51443,912.09058
191,1.583,348.42978,462.89023,1076.80432,342.81717,488.62103,952.61023,390.97653,406.10214,911.82007
192,1.592,354.2843,463.86676,1075.76025,347.20819,489.10352,952.41504,395.29092,406.20337,911.80853
193,1.6,356.97369,464.10928,1075.13269,351.89951,489.1745,952.16742,399.45599,405.83844,911.65472
194,1.608,362.84763,464.90714,1074.62122,355.6152,489.24866,951.6228,403.55624,407.03085,910.87903
195,1.617,368.2384,464.07993,1074.48877,360.82156,490.51859,950.51489,408.51807,406.76495,910.65204
196,1.625,373.07169,465.93613,1073.47546,365.32672,490.59842,949.68506,414.02805,406.24615,909.39758
197,1.633,377.9086,466.55096,1072.37402,371.0162,491.17831,949.42932,418.47919,406.4281,908.80347
198,1.642,382.71399,468.15643,1071.88855,375.61557,491.18835,949.02435,422.56961,407.66,907.41064
