Frame#,Time,L.Forearm.x,L.Forearm.y,L.Forearm.z,L.Ulna.x,L.Ulna.y,L.Ulna.z,L.Radius.x,L.Radius.y,L.Radius.z
1,0,-73.6548,335.36636,856.7215,7.11016,316.28983,808.70325,17.5423,239.70215,881.28699
2,0.008,-73.85565,335.19171,856.60388,6.98878,316.53214,809.02429,18.14929,240.78679,881.69305
3,0.017,-74.06393,335.03235,856.51935,6.64043,316.59076,809.14862,17.68143,240.49876,882.27466
4,0.025,-74.06393,335.03235,856.51935,6.78903,316.7579,809.71008,17.06066,240.07385,881.90393
5,0.033,-74.26594,334.88757,856.16339,6.78903,316.7579,809.71008,16.86375,240.1015,881.88654
6,0.042,-74.26594,334.88757,856.16339,6.44561,316.66345,809.63367,16.5451,239.07979,881.17236
7,0.05,-74.43275,334.63705,856.24945,6.44328,316.51089,809.00702,16.5451,239.07979,881.17236
8,0.058,-74.53516,334.74979,856.18256,6.38266,316.59619,808.94092,16.54797,239.39101,880.9436
9,0.067,-74.92948,334.58377,855.93451,5.91989,316.63974,808.44891,16.39522,239.54056,880.86469
10,0.075,-75.06328,335.23102,855.63953,5.77564,316.35089,808.06866,16.9257,240.04288,879.81061
11,0.083,-75.30563,335.23026,855.2309,5.63972,316.56836,807.70013,16.25865,240.12564,879.45941
12,0.092,-75.19898,335.11588,855.12952,5.64159,316.65121,807.6153,17.48299,241.04211,880.43542
13,0.1,-75.19898,335.11588,855.12952,5.94239,316.48386,807.27521,17.88764,241.14671,880.25354
14,0.108,-75.0499,335.34778,854.78082,6.02354,316.61685,807.11267,18.1899,241.65437,880.65491
15,0.117,-74.94589,335.68423,854.50476,5.95979,316.87698,806.96582,18.52953,242.10867,880.677
16,0.125,-74.88168,335.95544,854.38354,6.17278,316.71976,806.66895,18.42414,241.20377,880.21851
17,0.133,-74.88168,335.95544,854.38354,6.26421,316.96384,806.59167,19.29169,242.36554,880.86505
18,0.142,-74.16969,336.88467,854.42249,6.26421,316.96384,806.59167,19.31676,241.85899,880.7533
19,0.15,-74.16969,336.88467,854.42249,6.26421,316.96384,806.59167,18.91216,241.31471,880.35211
20,0.158,-74.44194,336.88068,854.54779,6.26421,316.96384,806.59167,18.91216,241.31471,880.35211
21,0.167,-74.37632,336.73141,854.7204,6.32019,316.48871,807.01135,18.33624,240.53659,879.77869
22,0.175,-74.51122,336.0947,854.92975,6.3182,316.39709,807.1048,17.66843,239.86313,879.6991
23,0.183,-74.40701,335.76953,855.49371,5.94239,316.48386,807.27521,17.46745,239.67992,879.70886
24,0.192,-74.89647,335.48151,855.55353,6.01856,316.38858,807.34583,17.1228,239.50055,879.36066
25,0.2,-74.89647,335.48151,855.55353,6.01856,316.38858,807.34583,16.36488,239.13728,879.41943
26,0.208,-75.06154,335.10687,855.76978,5.87652,316.45206,807.57153,16.89365,239.89917,878.91486
27,0.217,-74.92948,334.58377,855.93451,5.8798,316.52798,807.83551,15.25143,238.20085,879.19598
28,0.225,-75.28453,334.6048,855.51331,5.53555,316.3913,807.93329,15.01851,238.08595,878.73291
29,0.233,-75.13897,334.21518,855.29688,5.53555,316.3913,807.93329,14.84803,238.15213,878.62848
30,0.242,-75.13897,334.21518,855.29688,5.53555,316.3913,807.93329,14.47117,238.26692,878.59528
31,0.25,-75.02803,334.31754,855.1792,5.51509,316.19534,807.85321,14.47117,238.26692,878.59528
32,0.258,-74.7571,334.21796,854.67987,6.01671,316.30576,807.4306,14.35911,238.15123,878.7074
33,0.267,-74.80171,334.28259,853.69092,5.64389,316.42355,807.40881,14.29439,238.64725,878.93225
34,0.275,-74.96594,333.97604,853.06201,5.54169,316.53882,807.00555,14.36937,238.60333,878.46234
35,0.283,-74.94341,334.11792,852.80066,5.54169,316.53882,807.00555,15.34907,238.82227,877.89673
36,0.292,-75.38406,334.43723,852.62012,5.62286,316.67178,806.84302,15.55266,238.98991,877.95544
37,0.3,-75.60349,334.65115,852.09082,5.82317,316.76364,806.34479,15.95008,239.08748,877.70691
38,0.308,-75.79937,334.94736,851.84418,5.66174,316.75946,806.14453,17.32019,240.35997,877.82214
39,0.317,-75.94666,335.29037,851.70514,5.80626,317.43219,805.80133,18.27352,241.77466,878.59045
40,0.325,-75.67447,335.15005,851.70264,6.25952,317.58224,805.82965,19.45752,243.31267,877.78601
41,0.333,-75.24502,336.09628,852.00568,5.73131,317.65359,805.40698,18.8911,242.24063,876.797
42,0.342,-74.70891,336.18063,852.13544,5.92651,317.51254,805.20496,19.13163,242.22758,876.95343
43,0.35,-74.57442,336.16647,852.68976,5.40659,317.76666,805.42395,18.71552,242.53572,876.85315
44,0.358,-74.42564,336.31442,852.72998,5.89672,317.5845,805.42041,19.25888,242.8804,878.0733
45,0.367,-74.70573,336.62805,853.43915,5.6072,317.74637,805.58508,18.7583,242.07619,876.80676
46,0.375,-74.74698,336.71112,853.59644,5.7726,317.67731,805.59851,17.42664,240.19429,878.00604
47,0.383,-75.47486,336.89508,854.01367,5.68092,317.36023,806.39441,16.97525,239.96004,877.93073
48,0.392,-75.49654,336.42715,854.513,5.44488,317.23608,806.64459,16.30007,240.07443,878.27777
49,0.4,-75.56472,336.1532,854.91901,5.22224,317.189,806.99261,16.39475,239.74939,878.63171
50,0.408,-75.60717,335.38095,855.20477,5.20459,316.95898,807.44452,15.40749,239.43765,878.41632
51,0.417,-75.71815,335.27859,855.32251,5.036,316.88284,807.57941,15.69572,239.96043,878.06219
52,0.425,-75.71815,335.27859,855.32251,4.84297,316.81406,807.71558,14.39207,239.26352,878.90375
53,0.433,-75.71815,335.27859,855.32251,4.86359,316.64151,807.88422,13.88358,239.41255,878.85779
54,0.442,-75.71815,335.27859,855.32251,4.89154,316.72177,807.79279,14.10531,239.11598,878.88208
55,0.45,-75.50053,335.26663,855.10333,4.92461,316.70099,807.80255,13.88358,239.41255,878.85779
56,0.458,-75.55389,334.81577,854.82245,5.10532,316.7822,807.65784,14.1549,239.43382,879.05847
57,0.467,-75.55421,334.99466,854.71576,5.20773,316.86414,807.53961,15.14689,239.84543,878.23608
58,0.475,-75.23457,334.77161,853.59045,5.3479,316.71793,807.39874,15.22849,239.96301,878.02551
59,0.483,-75.35442,334.66968,853.35712,5.34181,316.74448,807.06604,15.61718,239.65028,878.58643
60,0.492,-75.30228,334.59787,852.65955,5.55912,316.93188,806.69617,15.55266,238.98991,877.95544
61,0.5,-75.81126,334.82797,852.46692,5.55912,316.93188,806.69617,15.95008,239.08748,877.70691
62,0.508,-76.25409,335.29938,852.24866,5.66669,316.87262,806.54053,16.70595,240.14862,877.9707
63,0.517,-76.1292,335.50208,852.10712,5.66669,316.87262,806.54053,17.10103,240.46747,877.94769
64,0.525,-76.1292,335.50208,852.10712,5.67597,317.2471,805.99854,17.56131,240.82341,877.69141
65,0.533,-76.22475,336.04306,852.20581,5.7726,317.67731,805.59851,17.56916,241.49428,877.32068
66,0.542,-75.38078,336.27261,852.60315,5.7726,317.67731,805.59851,18.13074,241.67473,877.30383
67,0.55,-74.85881,336.27103,852.92084,5.7726,317.67731,805.59851,19.82854,243.04437,877.49628
68,0.558,-74.81044,336.29333,853.20673,5.7726,317.67731,805.59851,19.01365,242.1452,876.86841
69,0.567,-74.81044,336.29333,853.20673,5.7726,317.67731,805.59851,18.28447,240.93758,877.62158
70,0.575,-74.85449,336.48016,853.39899,5.80626,317.43219,805.80133,17.8161,240.65639,877.79858
71,0.583,-75.05528,336.37064,853.78595,5.91464,317.00769,806.26758,16.97525,239.96004,877.93073
72,0.592,-75.38056,336.03253,854.56366,5.66669,316.87262,806.54053,16.86718,239.7531,878.29108
73,0.6,-75.50053,335.26663,855.10333,5.55912,316.93188,806.69617,15.87502,238.96805,877.87091
74,0.608,-75.55389,334.81577,854.82245,5.34477,316.81281,807.30365,15.41746,239.24834,878.23273
75,0.617,-75.66486,334.71338,854.94019,5.036,316.88284,807.57941,15.14,238.59773,878.22369
76,0.625,-75.8141,334.79749,854.92029,4.86359,316.64151,807.88422,13.96244,238.39139,878.4212
77,0.633,-75.8141,334.79749,854.92029,4.61172,316.35275,807.96222,14.08548,238.15547,878.39905
78,0.642,-76.65096,333.61597,854.78607,4.61172,316.35275,807.96222,13.7902,238.28297,878.50598
79,0.65,-76.51677,333.36197,854.22992,4.61172,316.35275,807.96222,13.7902,238.28297,878.50598
80,0.658,-75.80787,334.24072,853.50586,4.75191,316.20657,807.82135,14.08548,238.15547,878.39905
81,0.667,-76.2436,334.5957,853.20245,5.17617,316.73666,807.43854,13.96244,238.39139,878.4212
82,0.675,-75.14657,334.26395,852.90668,5.54169,316.53882,807.00555,14.38982,239.24609,878.13068
83,0.683,-75.85543,334.56354,852.53656,5.62286,316.67178,806.84302,15.44547,239.35921,878.40363
84,0.692,-76.08006,334.3736,851.95276,5.66669,316.87262,806.54053,15.77724,239.10413,877.74628
85,0.7,-76.18638,334.12302,851.51227,5.66174,316.75946,806.14453,16.18712,239.24821,877.46283
86,0.708,-75.82894,334.43243,851.31818,5.6072,317.74637,805.58508,16.99171,240.83298,877.19928
87,0.717,-75.78201,334.86249,851.09625,5.40659,317.76666,805.42395,19.37013,243.12614,877.37512
88,0.725,-75.78201,334.86249,851.09625,5.03098,318.25702,805.09735,17.56963,239.94826,876.86737
89,0.733,-75.51049,335.50714,851.01715,4.32063,318.08331,804.16302,17.66927,239.88818,877.10614
90,0.742,-75.22665,335.79166,851.55096,4.57028,318.3194,803.59363,19.35852,241.87013,876.82483
91,0.75,-74.77522,336.07236,852.14374,4.57028,318.3194,803.59363,19.85963,241.92992,876.90906
92,0.758,-74.52745,335.98868,852.21655,5.03129,317.8765,803.1709,20.18473,241.83507,876.77551
93,0.767,-74.21432,336.22189,852.67584,4.92768,318.20209,803.59888,20.18473,241.83507,876.77551
94,0.775,-74.1551,336.19293,853.11188,5.29514,318.3197,804.40027,19.37612,241.53513,876.99011
95,0.783,-74.15927,336.23788,853.34796,5.40068,318.2027,804.79047,19.98838,242.05019,876.6283
96,0.792,-74.49025,336.19092,853.88495,6.25952,317.58224,805.82965,19.48467,241.98834,876.65729
97,0.8,-74.23813,335.90073,854.12274,6.3588,317.33542,806.10211,17.95711,240.92561,877.89874
98,0.808,-74.51907,334.30389,854.40552,6.11511,316.65204,806.29498,17.70032,240.20123,878.2868
99,0.817,-74.88329,334.4455,854.93274,5.55912,316.93188,806.69617,16.17003,238.88248,877.48431
100,0.825,-74.68197,333.96103,854.828,6.07392,316.414,807.18561,16.17322,238.81111,877.56592
101,0.833,-74.5311,333.68497,854.80756,5.94239,316.48386,807.27521,15.72955,238.88383,877.80841
102,0.842,-74.5311,333.68497,854.80756,6.01856,316.38858,807.34583,15.34975,238.72485,877.7998
103,0.85,-74.5311,333.68497,854.80756,6.01856,316.38858,807.34583,15.40931,238.64818,878.32416
104,0.858,-74.32434,333.49963,853.73199,6.58409,315.29572,806.992,15.26886,238.90561,878.42017
105,0.867,-73.83381,333.42075,853.52911,6.50041,315.2666,806.79639,15.94499,238.61317,877.93658
106,0.875,-73.97395,333.47455,853.15155,6.92526,315.14584,806.41028,16.4586,238.82474,877.92505
107,0.883,-73.6077,334.0329,852.41577,7.03593,315.30161,806.21454,16.71835,238.78836,877.87909
108,0.892,-73.95271,333.80905,851.77386,7.03593,315.30161,806.21454,17.76547,239.9343,877.97693
109,0.9,-73.95271,333.80905,851.77386,7.03593,315.30161,806.21454,19.06848,240.23389,877.88251
110,0.908,-73.95271,333.80905,851.77386,7.05888,316.27444,805.64465,20.15159,241.53053,877.11963
111,0.917,-73.7819,333.96756,851.69324,7.40431,316.93997,805.12878,20.15187,241.55208,877.03345
112,0.925,-73.67337,334.40802,851.64417,7.4514,317.12439,804.50494,21.68619,242.39514,877.64514
113,0.933,-74.06091,334.44138,851.17822,7.22069,317.0831,803.10614,23.08555,243.64349,877.76715
114,0.942,-73.76742,335.94495,851.73846,7.22598,317.84375,802.87836,23.06958,243.58226,877.50818
115,0.95,-73.90302,336.20642,851.81653,6.62806,318.24924,802.74463,23.11932,244.67236,877.41498
116,0.958,-73.90302,336.20642,851.81653,6.7008,318.30872,802.65973,22.59847,243.44666,877.30914
117,0.967,-73.64915,336.46829,851.95972,6.6089,318.4061,802.59259,22.52385,243.23743,877.22028
118,0.975,-73.71867,336.33655,852.40961,6.22729,318.56433,803.01337,22.26199,242.96056,876.91644
119,0.983,-73.82928,336.39194,852.86652,6.22729,318.56433,803.01337,21.41456,242.67967,876.91864
120,0.992,-73.68764,336.41663,853.3042,5.70583,318.0076,803.2771,21.45676,243.12791,876.59259
121,1,-74.15927,336.23788,853.34796,5.80771,318.68298,804.66144,20.99438,242.90816,876.49286
122,1.008,-74.43424,335.87228,853.45807,5.37093,318.27469,805.00586,19.13346,241.99286,876.40662
123,1.017,-74.35145,335.54999,853.54095,6.25952,317.58224,805.82965,18.47383,241.24854,876.56403
124,1.025,-74.32226,334.89969,853.41431,6.25952,317.58224,805.82965,17.62084,240.57965,876.77917
125,1.033,-74.17821,335.13327,853.19965,5.7726,317.67731,805.59851,16.84319,240.00233,877.05194
126,1.042,-74.17821,335.13327,853.19965,6.3411,316.92056,806.45618,16.47593,239.743,877.24713
127,1.05,-74.17821,335.13327,853.19965,6.20656,316.89609,806.21777,16.50589,239.73801,877.01801
128,1.058,-74.09795,334.79474,853.06683,6.11511,316.65204,806.29498,16.34191,239.18619,877.27277
129,1.067,-73.67464,334.68503,852.81348,6.45098,316.83151,806.27527,16.84364,239.49045,877.23761
130,1.075,-73.60256,334.65414,852.47968,6.78377,316.53122,806.16827,17.25688,239.72003,877.34875
131,1.083,-73.45465,334.55466,852.33594,6.91396,316.71628,805.97113,18.38587,241.03575,877.84186
132,1.092,-73.45465,334.55466,852.33594,7.10307,316.64026,805.98346,19.3673,241.72647,877.32904
133,1.1,-73.45465,334.55466,852.33594,7.32483,316.78305,805.65356,20.01224,242.15005,877.31067
134,1.108,-73.30582,334.70273,852.3761,7.58457,316.91513,805.25012,20.50934,241.67308,876.6535
135,1.117,-73.30582,334.70273,852.3761,7.82673,316.84711,804.9491,20.99664,241.97684,876.44824
136,1.125,-73.65754,334.95831,851.98816,8.00445,317.05273,804.15869,21.91355,242.90019,876.91443
137,1.133,-73.47842,334.92554,852.19281,7.34676,316.88278,803.49323,21.91355,242.90019,876.91443
138,1.142,-73.25378,335.83755,852.46277,7.81198,317.52106,803.1828,21.69727,242.22073,876.9552
139,1.15,-73.38939,336.09909,852.54071,7.54729,317.68753,803.10431,22.17799,242.75938,876.66895
140,1.158,-73.38939,336.09909,852.54071,6.62682,317.3537,803.02234,22.04616,242.9198,876.63446
141,1.167,-73.54197,336.19095,852.71686,6.38472,317.67999,803.19897,21.7854,242.94283,876.54498
142,1.175,-73.54197,336.19095,852.71686,5.85199,317.69772,803.27148,20.32823,242.08781,876.1347
143,1.183,-73.90028,335.99933,853.01556,5.75772,317.53506,803.28931,20.32823,242.08781,876.1347
144,1.192,-73.90028,335.99933,853.01556,5.10444,317.58643,803.4574,19.60002,241.98993,876.44312
145,1.2,-74.09361,335.79834,852.6842,5.20328,318.12283,804.6488,19.13346,241.99286,876.40662
146,1.208,-74.19922,335.88379,852.42163,5.04629,318.3876,805.02277,18.30614,241.03548,876.09229
147,1.217,-74.10352,335.34274,852.323,4.96741,318.02988,804.90051,18.03418,240.78781,876.27472
148,1.225,-74.10352,335.34274,852.323,4.96741,318.02988,804.90051,17.43537,240.31062,875.99658
149,1.233,-74.10352,335.34274,852.323,4.96741,318.02988,804.90051,17.43537,240.31062,875.99658
150,1.242,-74.12534,335.35297,852.15143,4.71195,317.2193,803.96069,17.43537,240.31062,875.99658
151,1.25,-74.2309,335.08774,851.74609,5.06951,317.10187,803.96588,18.43329,241.44931,876.52209
152,1.258,-74.35902,335.18481,851.70496,5.31713,317.20538,803.54919,18.56967,241.40311,876.57452
153,1.267,-74.05117,334.93176,851.22418,5.36421,317.29199,803.37994,18.68371,241.60721,876.31793
154,1.275,-73.90693,334.91531,851.18066,5.80233,317.12875,802.97083,19.32135,241.991,876.77887
155,1.283,-74.18508,334.78345,850.90118,5.95083,317.0788,802.7265,20.27319,242.94691,876.48004
156,1.292,-74.26245,335.7338,850.85291,6.1874,316.96286,802.59802,21.20776,243.03503,876.40112
157,1.3,-73.82591,335.88568,850.8291,6.17563,317.05936,802.50433,21.269,242.9861,876.23877
158,1.308,-73.76997,335.97107,850.73615,6.29183,316.95642,802.28162,21.269,242.9861,876.23877
159,1.317,-73.76997,335.97107,850.73615,6.2823,316.70615,802.04645,21.50538,242.99379,876.1297
160,1.325,-74.08212,336.32449,850.9411,6.2823,316.70615,802.04645,21.48852,242.90535,876.05164
161,1.333,-74.13805,336.23907,851.034,5.84684,317.47427,802.34894,21.48852,242.90535,876.05164
162,1.342,-74.13805,336.23907,851.034,5.33866,317.85101,802.56769,21.48852,242.90535,876.05164
163,1.35,-74.33086,336.04514,851.40869,5.33866,317.85101,802.56769,21.12048,242.57315,875.6001
164,1.358,-74.33086,336.04514,851.40869,5.01655,318.01923,802.77887,20.054,241.59836,874.83667
165,1.367,-74.44528,335.88062,851.79779,5.01481,317.93613,802.86359,19.86505,241.65979,874.97186
166,1.375,-74.52745,335.98868,852.21655,4.67385,317.9938,803.16565,19.39113,241.81961,875.37939
167,1.383,-74.3707,335.91037,852.43488,4.44796,317.94086,803.29669,18.79818,241.76672,875.81305
168,1.392,-74.3707,335.91037,852.43488,4.44796,317.94086,803.29669,18.34103,241.32475,875.63623
169,1.4,-74.32729,335.98083,852.38049,4.34722,317.69412,803.82574,17.87502,241.06932,875.65363
170,1.408,-74.57804,335.54431,852.48987,4.61269,317.31674,803.89575,16.98145,240.19299,875.74603
171,1.417,-74.57804,335.54431,852.48987,5.02804,317.70242,804.80981,16.62675,239.95085,876.32172
172,1.425,-74.83084,335.04459,852.33667,5.21312,317.71918,805.26355,16.39258,240.05557,876.52759
173,1.433,-74.72678,334.92401,852.1933,5.40659,317.76666,805.42395,16.39258,240.05557,876.52759
174,1.442,-74.72678,334.92401,852.1933,5.40659,317.76666,805.42395,16.2744,240.02504,876.6828
175,1.45,-74.501,334.82877,851.8656,5.89672,317.5845,805.42041,16.50859,239.92035,876.47693
176,1.458,-74.38438,334.74506,851.71912,5.89672,317.5845,805.42041,16.89881,240.31758,875.9845
177,1.467,-74.26096,335.07104,851.54785,6.37181,317.09784,805.13568,18.55314,241.33031,876.87994
178,1.475,-73.88877,334.72461,851.35773,6.296,317.31485,804.82764,19.35608,241.99234,876.90259
179,1.483,-73.86066,334.80389,851.26935,6.86855,317.4567,804.30133,20.51365,242.86829,876.84869
180,1.492,-73.6177,334.82413,850.94263,7.13966,316.95493,803.49066,21.2108,243.11609,876.70245
181,1.5,-73.69519,335.77441,850.89435,8.10803,317.38562,803.05518,21.428,243.13835,876.91248
182,1.508,-73.6526,335.86163,850.80341,8.10803,317.38562,803.05518,21.1755,242.11456,876.2785
183,1.517,-72.94641,336.06714,850.42139,8.02281,317.58945,802.87769,21.15321,242.16365,876.75977
184,1.525,-73.13695,336.19412,850.63898,8.18506,317.65131,802.71606,21.15321,242.16365,876.75977
185,1.533,-73.49075,336.06009,850.67163,8.18506,317.65131,802.71606,21.15321,242.16365,876.75977
186,1.542,-74.08212,336.32449,850.9411,7.5027,317.53635,802.63031,20.92105,242.17604,876.77545
187,1.55,-74.08212,336.32449,850.9411,6.67256,317.24582,802.61542,20.92105,242.17604,876.77545
188,1.558,-74.13805,336.23907,851.034,6.17563,317.05936,802.50433,20.01553,241.54646,876.69635
189,1.567,-74.39803,335.99536,850.93103,5.93908,317.17529,802.63287,21.2108,243.11609,876.70245
190,1.575,-74.58479,335.78302,851.2655,5.95083,317.0788,802.7265,21.2934,243.05933,876.6062
191,1.583,-74.59187,335.53302,851.49487,5.6948,316.79419,802.81586,19.13346,241.99286,876.40662
192,1.592,-74.63818,335.36652,851.57849,4.73961,317.34155,803.00378,19.40197,242.37306,876.67163
193,1.6,-75.05609,335.12366,851.69354,4.54366,317.26559,803.21338,18.80738,241.65787,876.00439
194,1.608,-75.34033,335.04474,851.69067,4.54694,317.54443,803.46039,17.33208,240.31952,875.42444
195,1.617,-75.6536,334.86572,851.45581,4.46573,317.41623,803.84515,16.8199,240.06953,876.15289
196,1.625,-75.54735,334.7789,851.32532,4.46573,317.41623,803.84515,16.7926,239.97722,875.86047
197,1.633,-75.54735,334.7789,851.32532,4.46573,317.41623,803.84515,16.58867,239.6714,875.81732
198,1.642,-75.48049,334.71173,851.12238,4.46573,317.41623,803.84515,16.38117,239.45454,875.57544
199,1.65,-75.26418,334.24875,851.16522,4.46573,317.41623,803.84515,16.64331,239.64853,875.7005
200,1.658,-75.18944,334.47232,851.00519,4.54694,317.54443,803.46039,17.52091,240.00119,875.25537
201,1.667,-74.37136,334.30368,851.17181,4.59404,317.63104,803.29108,17.50999,239.93953,875.02155
202,1.675,-74.76612,333.68127,850.61487,5.45592,317.39938,803.23956,18.35129,240.08453,874.88098
203,1.683,-74.66329,334.06302,850.72205,5.95083,317.0788,802.7265,18.98642,240.29674,874.87872
204,1.692,-74.43902,334.52136,850.75793,6.14833,316.83524,802.33923,19.61822,240.45729,874.62805
205,1.7,-73.83511,334.66751,850.7486,6.27279,316.83984,802.17694,19.94631,240.37242,874.52484
206,1.708,-73.19553,335.02664,850.53308,7.39813,317.48221,801.74414,21.46822,241.09741,874.17493
207,1.717,-73.19377,336.06769,850.24353,7.39813,317.48221,801.74414,21.87233,241.63252,874.18469
208,1.725,-72.6367,335.93951,849.80133,7.42389,317.57947,801.63727,23.18716,243.01169,874.88239
