Frame#,Time,R.Forearm.x,R.Forearm.y,R.Forearm.z,R.Ulna.x,R.Ulna.y,R.Ulna.z,R.Radius.x,R.Radius.y,R.Radius.z
1,0,222.04854,-148.62042,1034.46606,304.84567,-180.72943,1008.00238,343.72034,-130.19307,1062.80017
2,0.008,221.99538,-148.52444,1034.57385,305.09595,-180.84363,1008.1936,343.81,-129.9928,1062.88855
3,0.017,221.99538,-148.52444,1034.57385,305.09595,-180.84363,1008.1936,343.57297,-129.87808,1063.01294
4,0.025,221.99538,-148.52444,1034.57385,304.9834,-180.74481,1008.33069,343.35052,-129.99419,1063.23792
5,0.033,222.01808,-148.43121,1034.71777,304.59909,-181.07291,1008.74622,343.48206,-130.09923,1063.99597
6,0.042,222.10847,-148.79245,1035.16064,305.09274,-181.25346,1009.09161,343.38501,-130.04037,1064.06775
7,0.05,222.10847,-148.79245,1035.16064,304.9263,-180.9696,1009.27228,343.51868,-129.92989,1064.599
8,0.058,221.83247,-149.04076,1035.41772,304.97232,-181.02321,1009.5105,343.48438,-129.65909,1064.75183
9,0.067,221.83247,-149.04076,1035.41772,304.97232,-181.02321,1009.5105,343.67395,-129.60374,1064.97839
10,0.075,222.04724,-149.06282,1035.65662,304.97232,-181.02321,1009.5105,343.67395,-129.60374,1064.97839
11,0.083,222.04724,-149.06282,1035.65662,304.62784,-181.0424,1009.50226,343.67691,-129.06125,1065.21472
12,0.092,222.04724,-149.06282,1035.65662,304.62784,-181.0424,1009.50226,343.67691,-129.06125,1065.21472
13,0.1,222.04724,-149.06282,1035.65662,304.63718,-181.21109,1009.54999,343.67691,-129.06125,1065.21472
14,0.108,222.04724,-149.06282,1035.65662,304.90454,-181.28477,1009.88757,343.67691,-129.06125,1065.21472
15,0.117,221.88565,-149.00113,1035.73364,304.14401,-180.86414,1009.80524,343.67691,-129.06125,1065.21472
16,0.125,221.70506,-149.01045,1035.95068,303.99661,-180.79488,1009.90558,343.67691,-129.06125,1065.21472
17,0.133,221.70506,-149.01045,1035.95068,303.77579,-180.91277,1010.47626,343.53137,-129.05595,1065.26807
18,0.142,221.70506,-149.01045,1035.95068,303.81866,-180.92746,1010.34546,343.51871,-129.14737,1065.27271
19,0.15,221.70506,-149.01045,1035.95068,303.50024,-180.90622,1010.39868,343.51871,-129.14737,1065.27271
20,0.158,221.70506,-149.01045,1035.95068,303.50024,-180.90622,1010.39868,343.15195,-129.28857,1065.63513
21,0.167,221.70506,-149.01045,1035.95068,303.50024,-180.90622,1010.39868,343.15195,-129.28857,1065.63513
22,0.175,221.70506,-149.01045,1035.95068,303.62411,-180.88498,1010.72119,343.04236,-129.16333,1065.50305
23,0.183,221.70506,-149.01045,1035.95068,303.25381,-180.77109,1010.19403,343.10672,-129.32695,1065.71362
24,0.192,221.31047,-149.02155,1035.68689,303.25381,-180.77109,1010.19403,343.10672,-129.32695,1065.71362
25,0.2,221.31047,-149.02155,1035.68689,303.25381,-180.77109,1010.19403,343.10672,-129.32695,1065.71362
26,0.208,221.13231,-149.22504,1035.72107,303.30408,-180.64548,1010.06964,342.78781,-129.40309,1065.74744
27,0.217,220.89386,-149.20111,1035.72009,303.41321,-181.03865,1010.02588,342.78781,-129.40309,1065.74744
28,0.225,220.89899,-149.24229,1035.71667,303.41321,-181.03865,1010.02588,342.78781,-129.40309,1065.74744
29,0.233,220.89386,-149.20111,1035.72009,303.43011,-181.37544,1010.08136,342.67279,-129.56355,1065.63354
30,0.242,220.66055,-149.21838,1035.7157,303.59683,-181.65881,1009.90051,342.60999,-129.66205,1065.73743
31,0.25,220.44199,-149.20326,1035.74573,303.36908,-181.72342,1009.82629,342.07675,-130.03874,1065.84167
32,0.258,220.44199,-149.20326,1035.74573,303.36908,-181.72342,1009.82629,342.15396,-130.46815,1065.71399
33,0.267,220.44199,-149.20326,1035.74573,302.91028,-181.93553,1009.93091,342.15396,-130.46815,1065.71399
34,0.275,220.26389,-149.40689,1035.77991,302.92703,-182.27222,1009.98645,341.90332,-130.53622,1065.73132
35,0.283,220.2412,-149.50009,1035.63623,302.92703,-182.27222,1009.98645,341.79803,-130.74754,1065.51587
36,0.292,220.2412,-149.50009,1035.63623,302.92703,-182.27222,1009.98645,341.84625,-131.03305,1065.35718
37,0.3,220.19374,-149.66068,1035.54126,302.74573,-182.58548,1009.94641,341.29617,-131.56197,1065.375
38,0.308,220.16121,-149.82251,1035.43652,302.83853,-182.77316,1009.89716,341.44238,-131.57088,1065.42212
39,0.317,220.16121,-149.82251,1035.43652,302.91223,-182.86917,1009.76587,341.44238,-131.57088,1065.42212
40,0.325,220.16121,-149.82251,1035.43652,302.91223,-182.86917,1009.76587,341.44275,-132.0014,1065.19897
41,0.333,220.16121,-149.82251,1035.43652,302.99481,-182.95313,1009.65021,341.5582,-132.05913,1065.10596
42,0.342,220.0397,-150.26257,1035.29736,302.99481,-182.95313,1009.65021,341.41602,-132.058,1065.05957
43,0.35,219.97507,-150.69858,1034.9812,302.85678,-182.97787,1009.35016,341.64178,-132.14958,1064.99255
44,0.358,220.14722,-150.53026,1034.89221,302.57727,-182.93488,1009.60602,341.49957,-132.14847,1064.94617
45,0.367,220.0388,-150.832,1034.90283,302.68027,-183.06863,1009.20447,341.64178,-132.14958,1064.99255
46,0.375,219.94868,-150.73351,1034.69995,302.43002,-182.95451,1009.01343,341.64178,-132.14958,1064.99255
47,0.383,220.16431,-150.65434,1034.7478,303.22382,-183.53786,1009.61511,341.56253,-132.08806,1064.69543
48,0.392,220.29137,-151.26352,1035.05164,303.0871,-184.02841,1009.30444,341.56253,-132.08806,1064.69543
49,0.4,220.10432,-151.31303,1035.00952,303.15891,-183.94357,1009.41327,341.56253,-132.08806,1064.69543
50,0.408,220.2381,-151.39905,1034.90747,303.09665,-183.90817,1009.18665,341.70474,-132.08919,1064.74182
51,0.417,220.52083,-151.21494,1034.80115,303.15891,-183.94357,1009.41327,341.56253,-132.08806,1064.69543
52,0.425,220.2381,-151.39905,1034.90747,303.15891,-183.94357,1009.41327,341.70474,-132.08919,1064.74182
53,0.433,220.42102,-151.35995,1034.9386,303.09665,-183.90817,1009.18665,341.56033,-132.33331,1064.83777
54,0.442,220.34148,-151.62083,1035.12134,302.84647,-183.79411,1008.99567,341.64178,-132.14958,1064.99255
55,0.45,220.28822,-151.75633,1034.97717,303.09665,-183.90817,1009.18665,341.62766,-132.42432,1065.21204
56,0.458,220.28822,-151.75633,1034.97717,303.09665,-183.90817,1009.18665,341.38489,-132.3329,1065.18335
57,0.467,220.28822,-151.75633,1034.97717,303.09665,-183.90817,1009.18665,341.62766,-132.42432,1065.21204
58,0.475,220.42102,-151.35995,1034.9386,303.09665,-183.90817,1009.18665,341.51511,-132.36354,1065.30688
59,0.483,220.28822,-151.75633,1034.97717,303.09665,-183.90817,1009.18665,341.51511,-132.36354,1065.30688
60,0.492,220.42102,-151.35995,1034.9386,303.15891,-183.94357,1009.41327,341.51511,-132.36354,1065.30688
61,0.5,220.34148,-151.62083,1035.12134,303.47336,-183.828,1009.85901,341.54108,-132.42761,1065.39575
62,0.508,220.29137,-151.26352,1035.05164,303.29694,-183.91881,1009.71338,341.45459,-132.34019,1065.50732
63,0.517,220.29137,-151.26352,1035.05164,303.47336,-183.828,1009.85901,341.45459,-132.34019,1065.50732
64,0.525,220.29137,-151.26352,1035.05164,303.36185,-183.51309,1009.91516,341.45459,-132.34019,1065.50732
65,0.533,220.1245,-151.30258,1035.13013,303.36185,-183.51309,1009.91516,341.45459,-132.34019,1065.50732
66,0.542,220.1245,-151.30258,1035.13013,303.36185,-183.51309,1009.91516,341.45459,-132.34019,1065.50732
67,0.55,220.33932,-151.32458,1035.36914,303.2793,-183.42918,1010.03076,341.45459,-132.34019,1065.50732
68,0.558,220.5062,-151.28554,1035.29065,303.17465,-183.60345,1010.25568,341.48386,-132.19298,1065.63708
69,0.567,220.29137,-151.26352,1035.05164,303.17465,-183.60345,1010.25568,341.48386,-132.19298,1065.63708
70,0.575,219.87193,-150.87103,1034.98132,303.17465,-183.60345,1010.25568,341.48386,-132.19298,1065.63708
71,0.583,220.0388,-150.832,1034.90283,303.17465,-183.60345,1010.25568,341.32611,-131.59891,1066.12146
72,0.592,219.68484,-150.92053,1034.93909,302.93454,-183.22383,1010.5675,341.37146,-131.37044,1066.31433
73,0.6,219.84189,-150.75647,1035.10791,302.83505,-183.56793,1010.68024,341.37146,-131.37044,1066.31433
74,0.608,219.85973,-151.14709,1035.08179,302.66861,-183.28426,1010.86072,341.16034,-131.04153,1066.33313
75,0.617,219.55939,-151.11659,1035.31555,302.84476,-183.55273,1011.43433,341.16034,-131.04153,1066.33313
76,0.625,219.54654,-150.76515,1035.22278,302.84476,-183.55273,1011.43433,341.0816,-131.12517,1066.41516
77,0.633,219.65497,-150.90588,1035.53918,302.84476,-183.55273,1011.43433,341.0816,-131.12517,1066.41516
78,0.642,219.7467,-150.70201,1035.27917,302.84476,-183.55273,1011.43433,341.0816,-131.12517,1066.41516
79,0.65,219.65497,-150.90588,1035.53918,302.84476,-183.55273,1011.43433,341.22894,-130.93951,1066.54175
80,0.658,219.62039,-150.80711,1035.45654,302.84476,-183.55273,1011.43433,341.00433,-130.69551,1066.54297
81,0.667,219.79501,-151.05038,1035.93323,302.92807,-183.38382,1011.80621,340.83243,-130.67992,1066.47827
82,0.675,219.79756,-150.72839,1035.53137,303.12259,-183.6106,1011.74933,340.98914,-130.5049,1066.5918
83,0.683,219.58835,-150.40851,1035.63599,302.47766,-182.99266,1011.16956,341.23038,-130.42622,1066.58752
84,0.692,219.98338,-150.11757,1035.59192,302.31091,-182.70943,1011.35034,341.00073,-130.51523,1066.63855
85,0.7,220.00829,-150.40656,1035.81238,302.31091,-182.70943,1011.35034,341.237,-130.30527,1066.6991
86,0.708,220.19818,-150.13959,1035.83069,302.98682,-182.68568,1011.703,341.09857,-130.42419,1066.55237
87,0.717,220.22089,-150.04642,1035.97437,302.75916,-182.75026,1011.62885,341.10522,-130.30322,1066.66382
88,0.725,220.02563,-150.00171,1035.99805,302.75916,-182.75026,1011.62885,341.237,-130.30527,1066.6991
89,0.733,220.23714,-149.59056,1036.25232,303.3537,-183.24568,1011.96765,341.237,-130.30527,1066.6991
90,0.742,219.81978,-149.53719,1036.0603,302.98682,-182.68568,1011.703,341.37634,-130.16797,1066.47998
91,0.75,220.23714,-149.59056,1036.25232,302.83658,-182.85564,1012.02014,341.37634,-130.16797,1066.47998
92,0.758,220.03458,-149.55922,1036.29907,303.71277,-182.9729,1011.79956,341.38297,-130.047,1066.59155
93,0.767,220.03458,-149.55922,1036.29907,302.9108,-182.71489,1011.83179,341.38297,-130.047,1066.59155
94,0.775,220.03458,-149.55922,1036.29907,303.22757,-182.222,1011.79663,341.37634,-130.16797,1066.47998
95,0.783,219.97209,-149.37784,1036.35144,303.22064,-182.21194,1011.69598,341.38297,-130.047,1066.59155
96,0.792,220.00789,-149.44823,1036.38306,303.00256,-181.94948,1011.9787,341.37634,-130.16797,1066.47998
97,0.8,220.03458,-149.55922,1036.29907,302.94394,-181.40932,1011.80042,341.38297,-130.047,1066.59155
98,0.808,219.80531,-149.41689,1036.42981,303.00256,-181.94948,1011.9787,341.37634,-130.16797,1066.47998
99,0.817,219.80531,-149.41689,1036.42981,303.00256,-181.94948,1011.9787,341.38297,-130.047,1066.59155
100,0.825,219.80531,-149.41689,1036.42981,303.00256,-181.94948,1011.9787,341.38297,-130.047,1066.59155
101,0.833,219.53453,-149.51628,1036.60852,303.00256,-181.94948,1011.9787,341.35706,-129.97424,1066.49683
102,0.842,219.60027,-149.44081,1036.49231,303.00256,-181.94948,1011.9787,341.17447,-129.9825,1066.78931
103,0.85,219.51152,-149.13168,1036.41199,302.94394,-181.40932,1011.80042,341.38297,-130.047,1066.59155
104,0.858,219.60027,-149.44081,1036.49231,302.94394,-181.40932,1011.80042,341.14856,-129.90974,1066.69458
105,0.867,219.38547,-149.41878,1036.25354,302.94394,-181.40932,1011.80042,341.0025,-129.90083,1066.64746
106,0.875,219.3065,-149.15564,1036.47449,303.00256,-181.94948,1011.9787,341.0025,-129.90083,1066.64746
107,0.883,219.60027,-149.44081,1036.49231,302.94394,-181.40932,1011.80042,341.04272,-129.98047,1066.75403
108,0.892,219.3065,-149.15564,1036.47449,302.94394,-181.40932,1011.80042,341.0025,-129.90083,1066.64746
109,0.9,219.60027,-149.44081,1036.49231,302.94394,-181.40932,1011.80042,341.04272,-129.98047,1066.75403
110,0.908,219.09174,-149.13359,1036.23572,302.94394,-181.40932,1011.80042,341.04272,-129.98047,1066.75403
111,0.917,219.09174,-149.13359,1036.23572,302.94394,-181.40932,1011.80042,341.0025,-129.90083,1066.64746
112,0.925,219.67506,-149.31821,1036.33704,302.94394,-181.40932,1011.80042,341.0025,-129.90083,1066.64746
113,0.933,219.3065,-149.15564,1036.47449,302.94394,-181.40932,1011.80042,341.04272,-129.98047,1066.75403
114,0.942,219.51152,-149.13168,1036.41199,302.94394,-181.40932,1011.80042,341.04272,-129.98047,1066.75403
115,0.95,219.3065,-149.15564,1036.47449,302.94394,-181.40932,1011.80042,341.04272,-129.98047,1066.75403
116,0.958,220.20464,-148.94759,1036.30408,302.94394,-181.40932,1011.80042,341.17447,-129.9825,1066.78931
117,0.967,219.51152,-149.13168,1036.41199,303.17368,-181.82854,1012.26715,341.17447,-129.9825,1066.78931
118,0.975,219.80531,-149.41689,1036.42981,303.17368,-181.82854,1012.26715,341.17447,-129.9825,1066.78931
119,0.983,219.8801,-149.29428,1036.27454,303.17368,-181.82854,1012.26715,341.17447,-129.9825,1066.78931
120,0.992,219.80531,-149.41689,1036.42981,303.33795,-181.86519,1012.13776,341.39362,-129.5957,1066.8573
121,1,219.37589,-148.9427,1036.4751,303.24866,-181.92406,1012.37585,341.39362,-129.5957,1066.8573
122,1.008,219.63202,-149.42998,1036.64771,303.24866,-181.92406,1012.37585,341.16904,-129.93756,1067.04675
123,1.017,219.72481,-149.34451,1036.51367,303.24866,-181.92406,1012.37585,341.39362,-129.5957,1066.8573
124,1.025,219.20264,-148.95576,1036.69299,303.34268,-181.4986,1012.38947,341.33307,-130.14078,1067.21777
125,1.033,219.49731,-149.3024,1036.80469,303.34268,-181.4986,1012.38947,341.32248,-129.94119,1067.48486
126,1.042,219.49731,-149.3024,1036.80469,303.34268,-181.4986,1012.38947,341.32248,-129.94119,1067.48486
127,1.05,219.49731,-149.3024,1036.80469,303.34268,-181.4986,1012.38947,341.42865,-130.12054,1067.69739
128,1.058,219.4108,-149.10973,1036.94373,303.34268,-181.4986,1012.38947,341.57458,-129.86237,1067.58984
129,1.067,219.4108,-149.10973,1036.94373,303.34268,-181.4986,1012.38947,341.57458,-129.86237,1067.58984
130,1.075,219.4108,-149.10973,1036.94373,303.34268,-181.4986,1012.38947,341.8259,-129.78006,1067.76819
131,1.083,219.24496,-149.11575,1036.97546,303.43594,-181.39981,1012.46075,341.58035,-129.98013,1067.78015
132,1.092,219.32449,-148.91702,1037.08276,303.58359,-181.17293,1012.49066,341.58694,-129.94217,1067.99609
133,1.1,219.15866,-148.92305,1037.1145,303.49033,-181.27173,1012.41937,341.4624,-129.87897,1068.09607
134,1.108,219.15866,-148.92305,1037.1145,303.74246,-181.01703,1012.56329,341.4624,-129.87897,1068.09607
135,1.117,218.89645,-148.65721,1037.11292,303.74246,-181.01703,1012.56329,341.39029,-129.95047,1068.36414
136,1.125,218.86702,-148.79681,1037.20593,303.74246,-181.01703,1012.56329,341.26379,-129.55196,1068.4447
137,1.133,218.86702,-148.79681,1037.20593,303.74246,-181.01703,1012.56329,341.34399,-129.61314,1068.53906
138,1.142,219.06584,-148.57677,1037.19592,303.4277,-180.93668,1012.74048,341.29572,-129.3277,1068.69775
139,1.15,219.06584,-148.57677,1037.19592,303.60602,-180.95911,1012.66339,341.29572,-129.3277,1068.69775
140,1.158,219.06584,-148.57677,1037.19592,303.1459,-180.81265,1012.83215,340.84723,-129.14081,1068.5824
141,1.167,219.06584,-148.57677,1037.19592,303.1459,-180.81265,1012.83215,340.25153,-128.81686,1068.85437
142,1.175,219.06584,-148.57677,1037.19592,303.1459,-180.81265,1012.83215,340.25424,-128.94849,1068.72961
143,1.183,219.06584,-148.57677,1037.19592,303.1459,-180.81265,1012.83215,340.64813,-128.48544,1068.74854
144,1.192,219.06584,-148.57677,1037.19592,303.21091,-180.69487,1012.9314,340.79114,-128.09558,1068.76587
145,1.2,219.06584,-148.57677,1037.19592,303.35858,-180.468,1012.96136,340.7897,-128.18805,1068.87805
146,1.208,219.22211,-148.35924,1037.33215,303.32657,-180.37294,1013.06732,340.86707,-128.10379,1068.79797
147,1.217,219.22684,-148.15251,1037.48584,303.40359,-180.38942,1012.8891,340.79114,-128.09558,1068.76587
148,1.225,219.15091,-148.2952,1037.66455,303.24429,-180.12727,1013.09515,340.79114,-128.09558,1068.76587
149,1.233,219.08247,-148.36839,1037.58911,303.19324,-180.17924,1013.17981,340.78088,-127.89567,1069.03296
150,1.242,219.15091,-148.2952,1037.66455,303.21521,-180.04036,1013.1955,340.78088,-127.89567,1069.03296
151,1.25,219.15091,-148.2952,1037.66455,303.21521,-180.04036,1013.1955,340.6062,-127.97191,1069.08228
152,1.258,219.15091,-148.2952,1037.66455,303.21521,-180.04036,1013.1955,340.82367,-127.75169,1069.15454
153,1.267,219.15091,-148.2952,1037.66455,303.21521,-180.04036,1013.1955,340.77942,-127.98814,1069.14514
154,1.275,219.22684,-148.15251,1037.48584,303.4201,-179.70454,1013.23694,340.68356,-127.59241,1069.40491
155,1.283,219.15091,-148.2952,1037.66455,303.24091,-179.8024,1013.18127,340.66446,-127.70175,1069.53333
156,1.292,219.22684,-148.15251,1037.48584,303.24091,-179.8024,1013.18127,340.50305,-127.26414,1069.4342
157,1.3,219.23087,-148.15475,1037.46326,303.4201,-179.70454,1013.23694,340.48395,-127.37347,1069.5625
158,1.308,219.23087,-148.15475,1037.46326,303.4201,-179.70454,1013.23694,340.48395,-127.37347,1069.5625
159,1.317,219.23087,-148.15475,1037.46326,303.45819,-179.74213,1013.50458,340.50305,-127.26414,1069.4342
160,1.325,219.14499,-147.97774,1037.38037,303.45819,-179.74213,1013.50458,340.42664,-126.83359,1069.56201
161,1.333,219.14499,-147.97774,1037.38037,303.17404,-179.92247,1013.64117,340.46307,-126.38979,1069.43091
162,1.342,219.24684,-147.79834,1037.1698,303.61609,-179.62834,1013.57159,340.46307,-126.38979,1069.43091
163,1.35,219.24684,-147.79834,1037.1698,303.33295,-179.76649,1013.71387,340.46307,-126.38979,1069.43091
164,1.358,219.05518,-148.13278,1037.59619,303.33295,-179.76649,1013.71387,340.46307,-126.38979,1069.43091
165,1.367,219.14499,-147.97774,1037.38037,303.49084,-179.65273,1013.78088,340.46307,-126.38979,1069.43091
166,1.375,219.14499,-147.97774,1037.38037,303.28387,-178.99019,1013.72559,340.70633,-126.19039,1069.59668
167,1.383,219.24684,-147.79834,1037.1698,303.40915,-178.96584,1013.51624,340.53323,-126.17417,1069.53394
168,1.392,219.24684,-147.79834,1037.1698,303.40915,-178.96584,1013.51624,340.53323,-126.17417,1069.53394
169,1.4,219.24684,-147.79834,1037.1698,303.40915,-178.96584,1013.51624,340.70779,-126.09796,1069.48462
170,1.408,219.24684,-147.79834,1037.1698,303.40915,-178.96584,1013.51624,340.70779,-126.09796,1069.48462
171,1.417,218.87907,-147.55827,1037.26868,303.40915,-178.96584,1013.51624,340.63766,-126.31357,1069.38159
172,1.425,218.98061,-147.24718,1036.87329,303.40915,-178.96584,1013.51624,340.63766,-126.31357,1069.38159
173,1.433,219.02161,-147.32845,1036.98767,303.40915,-178.96584,1013.51624,340.70779,-126.09796,1069.48462
174,1.442,219.31171,-147.20625,1036.82202,303.4776,-179.02673,1013.43365,340.85992,-126.00003,1069.40344
175,1.45,219.10509,-147.38611,1036.99292,303.4776,-179.02673,1013.43365,341.0899,-125.92437,1069.40002
176,1.458,219.10509,-147.38611,1036.99292,303.4776,-179.02673,1013.43365,340.92029,-126.08188,1069.20166
177,1.467,219.53641,-147.14389,1036.84912,303.40915,-178.96584,1013.51624,340.85992,-126.00003,1069.40344
178,1.475,219.76158,-147.61369,1037.03125,303.78989,-178.71117,1013.30389,340.80365,-125.96973,1068.99719
179,1.483,219.1953,-147.61708,1037.04907,303.99677,-179.37361,1013.35931,340.92029,-126.08188,1069.20166
180,1.492,219.6181,-147.91808,1037.08752,303.78989,-178.71117,1013.30389,340.86398,-126.05162,1068.79541
181,1.5,219.6181,-147.91808,1037.08752,303.99677,-179.37361,1013.35931,340.86398,-126.05162,1068.79541
182,1.508,219.78477,-147.87904,1037.00916,303.83786,-179.52962,1013.28668,340.86398,-126.05162,1068.79541
183,1.517,219.78477,-147.87904,1037.00916,304.08414,-179.61874,1013.16589,340.86398,-126.05162,1068.79541
184,1.525,219.78477,-147.87904,1037.00916,304.08414,-179.61874,1013.16589,340.86398,-126.05162,1068.79541
185,1.533,220.01978,-147.58829,1036.87939,304.24301,-179.46275,1013.23853,341.09875,-125.92864,1068.55139
186,1.542,220.0136,-147.54338,1036.68335,304.24301,-179.46275,1013.23853,341.09875,-125.92864,1068.55139
187,1.55,219.8904,-147.64705,1036.56616,304.21252,-179.43356,1013.02563,341.09271,-126.05264,1068.37976
188,1.558,219.63838,-147.21532,1036.41736,304.21252,-179.43356,1013.02563,341.07065,-126.2043,1068.24414
189,1.567,219.71216,-147.85065,1036.60034,303.91873,-179.7471,1013.08649,341.04333,-126.0033,1067.85925
190,1.575,220.1283,-147.66507,1036.53186,304.53891,-179.36269,1012.7135,341.04333,-126.0033,1067.85925
191,1.583,220.1283,-147.66507,1036.53186,304.54471,-179.681,1012.79364,341.22394,-126.33172,1067.83008
