Frame#,Time,L.Forearm.x,L.Forearm.y,L.Forearm.z,L.Ulna.x,L.Ulna.y,L.Ulna.z,L.Radius.x,L.Radius.y,L.Radius.z
1,0,118.6666,246.74968,1034.37976,206.93716,296.28146,1023.90692,293.77792,208.96953,1052.23901
2,0.008,119.14483,247.06827,1031.40564,207.06226,296.35867,1019.93121,294.33374,206.60326,1048.99707
3,0.017,118.54288,247.83354,1028.24243,206.17731,298.20554,1015.0705,294.16092,209.82143,1043.8772
4,0.025,118.52602,248.88817,1024.69495,205.7426,299.8107,1011.07935,294.33899,210.28517,1038.37524
5,0.033,118.43118,250.64854,1020.91461,206.18582,301.03082,1006.64795,293.48438,212.16968,1034.39063
6,0.042,118.49535,250.99103,1017.30151,205.76004,300.56393,1002.38647,293.23135,213.47922,1028.42676
7,0.05,117.92797,251.57246,1014.49768,205.13885,301.96283,997.87598,294.00836,214.38934,1023.71582
8,0.058,118.49198,252.16798,1010.59869,204.76505,301.92545,992.70966,293.48853,214.79208,1018.22491
9,0.067,118.52738,252.08485,1006.70142,204.90482,302.60477,988.98749,293.58823,216.15967,1012.38263
10,0.075,118.28782,252.70467,1002.76672,204.8907,304.25641,984.36127,293.58591,216.32146,1006.24756
11,0.083,118.49385,253.21782,1000.06531,204.45425,304.37051,979.18042,294.00305,217.45847,1001.59973
12,0.092,117.92786,254.11931,995.58466,204.0612,304.64893,975.07196,293.84329,216.65613,996.94574
13,0.1,117.66701,254.53181,992.07336,203.69687,305.29492,970.4068,294.202,216.7719,991.55603
14,0.108,117.80225,254.55827,987.53143,203.43735,305.56781,964.58514,293.56592,218.26102,985.4516
15,0.117,117.17414,254.87013,984.12323,202.00865,305.56458,960.08765,293.09674,219.27664,979.34033
16,0.125,117.1069,254.90468,979.77692,201.84473,305.53,954.81769,293.04663,219.77766,972.95142
17,0.133,116.9764,254.50089,975.25073,200.62273,306.33353,949.79822,293.04501,220.54095,967.23645
18,0.142,116.53535,254.71899,971.242,200.07909,305.92639,944.40643,292.45383,220.47511,960.90118
19,0.15,115.59754,255.29594,966.92883,199.25571,307.21274,939.87799,292.2374,220.17996,956.05292
20,0.158,115.6272,255.94006,963.65198,198.31688,306.89728,934.72302,291.29639,220.42326,950.26135
21,0.167,114.99234,256.71387,959.22601,197.44998,306.5864,929.22571,290.43011,220.94775,943.93939
22,0.175,115.14007,256.11093,954.78998,197.49765,306.6004,923.53857,290.81158,219.79057,937.00635
23,0.183,114.3288,257.41711,951.68591,197.50967,306.60922,918.96686,288.49402,222.36037,930.90515
24,0.192,114.72857,256.41928,947.05219,196.65143,306.68817,913.18652,289.66391,221.00681,925.49817
25,0.2,114.58207,256.84427,942.93671,195.79654,307.15982,908.784,289.68912,219.90799,920.76263
26,0.208,113.77158,255.99469,938.85779,196.42801,306.82767,903.74725,287.96201,219.71265,914.51953
27,0.217,114.00295,256.50909,934.44318,195.30363,306.80862,898.59491,288.05972,219.6382,908.23151
28,0.225,113.12443,255.89488,930.67139,193.67021,305.55905,893.9245,287.34488,218.9801,901.89429
29,0.233,113.01881,255.27994,926.1778,192.55728,305.06082,888.29913,285.30847,220.84676,896.68719
30,0.242,112.48705,253.98831,922.10114,191.9272,305.50223,883.87445,285.14993,219.62468,891.05048
31,0.25,112.13799,254.32703,918.75311,191.57591,305.79074,877.86847,285.2778,218.91035,885.34583
32,0.258,111.57259,253.89151,914.14331,190.59073,304.63052,873.67517,284.2785,218.17329,878.83771
33,0.267,111.04478,253.06372,910.23053,189.03708,303.41772,869.21722,282.67343,217.23625,873.38245
34,0.275,110.64873,253.548,906.47394,187.95297,303.28674,863.99066,281.01862,218.91225,866.83282
35,0.283,110.51204,252.30734,902.15778,187.35735,302.18466,858.8847,280.53113,216.72182,861.41681
36,0.292,110.00978,251.6494,898.69427,187.1653,302.62921,854.35278,278.6575,216.29791,855.3078
37,0.3,109.51231,251.69466,894.77588,186.54662,301.62595,848.94763,279.01974,215.14455,850.36786
38,0.308,109.6535,251.22238,891.53699,185.01361,299.63239,844.13074,278.0661,213.3287,845.27307
39,0.317,109.15798,250.64745,887.2525,184.84732,299.52466,839.49884,276.72537,212.91685,839.43964
40,0.325,108.40888,249.90997,883.82043,183.18942,298.4772,835.992,275.36411,214.13222,833.90173
41,0.333,107.52969,248.32755,880.02307,183.87198,298.31628,832.18579,274.13928,210.03406,830.26196
42,0.342,107.33102,248.49623,876.16284,181.88921,296.60159,827.45428,272.58173,207.78088,824.32336
43,0.35,105.69345,247.94748,872.99774,181.76913,295.70633,822.9408,272.39667,207.24062,820.01196
44,0.358,105.45467,246.73936,869.28259,180.37137,295.01822,818.38489,270.58267,207.67181,814.35315
45,0.367,105.2153,245.81088,865.90363,178.93497,293.64865,814.02197,269.94003,205.22121,810.8418
46,0.375,104.77746,244.08096,862.46777,177.94458,292.8902,810.38519,268.89758,204.97766,804.75592
47,0.383,104.57314,244.47873,859.36346,176.74701,292.14767,806.04016,267.23096,203.87418,800.53528
48,0.392,104.3447,243.77872,855.6875,176.8168,289.96353,801.58734,265.44855,200.42691,794.30835
49,0.4,103.25495,241.74564,853.41162,174.65001,288.52383,797.66174,264.83655,197.91071,790.74945
50,0.408,102.23093,240.71606,849.40198,174.17905,287.28748,794.14392,263.94247,197.39507,787.49908
51,0.417,101.28724,239.79471,846.86346,173.4967,285.74048,790.15619,261.39175,196.57343,782.51526
52,0.425,101.11788,237.42751,844.5802,172.61053,283.86264,786.67285,260.73901,194.77164,778.35809
53,0.433,100.59791,237.57791,840.80109,171.30267,282.0285,782.80896,258.97211,193.95294,774.91449
54,0.442,99.61588,236.34981,838.26501,170.38634,281.05182,779.08392,258.09079,191.25525,770.48401
55,0.45,100.36956,234.11234,835.47974,170.16713,278.1777,776.13916,256.95761,188.09625,766.15918
56,0.458,99.37365,233.23523,833.32648,169.7348,277.20459,772.19958,255.94302,186.93269,762.23199
57,0.467,98.4667,231.77667,830.95819,167.99319,275.20096,769.29657,255.55872,183.80223,759.97614
58,0.475,98.05,230.59859,828.39484,167.20703,272.59729,765.95624,253.39261,181.61786,755.10858
59,0.483,97.82992,228.52556,826.02344,167.2845,271.81659,765.0105,252.5715,180.13869,752.52448
60,0.492,97.46482,226.83771,824.08276,166.03975,269.57675,759.46436,251.14629,178.44296,749.27057
61,0.5,97.54589,225.29208,821.9585,165.49805,268.63535,758.59668,250.34708,176.41817,746.01526
62,0.508,96.79887,225.06006,818.62085,165.40474,267.15771,755.74756,249.16254,174.84843,742.86371
63,0.517,96.43125,224.34314,815.53845,163.85904,263.99661,753.02655,248.55408,171.89983,738.86176
64,0.525,96.72632,222.37134,814.00897,164.07558,263.15347,750.73401,248.35957,169.52821,737.27649
65,0.533,96.52965,220.98109,812.66705,163.64818,261.01379,747.96198,245.81433,168.31764,734.00226
66,0.542,95.51479,218.83607,810.48981,162.88254,257.99652,745.67072,245.76201,165.7551,731.16882
67,0.55,95.42189,216.89777,808.24567,162.42137,257.04446,743.48645,244.92636,162.41559,728.495
68,0.558,94.46169,216.2309,806.66083,162.92989,254.72293,741.04083,243.23489,160.56827,726.32898
69,0.567,94.84321,214.67245,805.16907,161.14987,252.36484,739.50238,242.65778,158.29628,723.95111
70,0.575,94.39349,214.08218,802.17767,161.15009,250.90808,737.69513,241.65848,156.32278,721.78894
71,0.583,95.1296,210.89182,802.43457,160.48026,249.56958,735.31146,240.72305,153.80899,720.23773
72,0.592,94.932,208.35013,801.25586,160.01064,246.55975,733.65662,240.35213,150.92221,717.74005
73,0.6,93.92944,206.90364,798.3493,159.80382,245.46721,732.27142,239.12607,149.50166,715.66577
74,0.608,93.38099,206.10313,797.00763,160.20918,243.11298,729.62555,238.54306,146.92879,714.32837
75,0.617,93.37321,205.64716,796.48206,159.73154,240.66426,728.59753,238.04797,144.1093,711.51947
76,0.625,93.44183,204.06392,794.49872,158.62958,238.38235,727.36176,236.64679,142.23337,710.68011
77,0.633,93.26978,203.2782,793.091,159.60022,236.64621,724.64935,236.90361,139.42691,710.08356
78,0.642,93.46355,200.293,792.32776,158.70462,234.73987,723.69287,235.31566,137.67116,708.29535
79,0.65,93.0581,199.94318,790.55273,159.04967,232.70941,722.64069,235.88472,134.75674,705.88599
80,0.658,92.52881,198.31467,789.97559,158.64435,231.50623,721.20306,234.61539,133.07814,705.88892
81,0.667,92.05505,195.93967,789.65289,158.7999,228.60626,719.25745,232.9632,130.07854,704.10803
82,0.675,92.64696,194.6622,788.97815,157.99948,226.87669,718.04443,232.6512,127.29929,701.87073
83,0.683,92.71375,193.20335,786.82782,158.63188,225.05679,717.18262,231.92551,126.42481,701.22925
84,0.692,92.48819,191.37746,786.34955,158.68004,225.26973,717.25983,231.87242,123.18647,699.75854
85,0.7,92.62045,190.5813,785.87848,158.34702,221.56703,715.6424,231.41205,121.99435,699.2627
86,0.708,92.01127,187.26904,784.70074,157.84634,219.68184,713.995,230.67761,118.74387,698.63129
87,0.717,91.56026,186.28932,784.45233,158.17113,217.4903,712.53589,229.62271,116.17053,698.10168
88,0.725,91.29896,185.63731,783.68079,157.9884,216.16,712.67249,229.29617,114.03448,697.41577
89,0.733,91.66824,184.7261,783.56049,157.90567,213.52243,712.04156,229.0304,111.94629,696.08148
90,0.742,92.11669,183.46111,781.59729,157.64003,212.49403,711.4046,228.80843,110.32305,695.65112
91,0.75,92.71615,179.97174,782.49915,158.45079,210.67952,710.63489,229.16174,107.4072,695.57813
92,0.758,92.5952,179.02081,781.73224,158.11412,209.08804,709.41443,228.43817,105.46227,694.21942
93,0.767,91.26351,178.62944,780.91742,159.14574,207.03146,709.18335,227.48413,103.54288,693.6441
94,0.775,92.41315,175.43465,781.20667,158.57227,205.11336,707.87628,227.41563,102.60751,692.98328
95,0.783,92.49481,174.95346,780.82397,158.91187,204.2222,707.49768,227.69595,96.8863,692.78357
96,0.792,93.41225,173.72957,779.94562,159.55644,203.07889,707.55591,226.96707,97.51263,692.20007
97,0.8,93.58305,173.00897,779.48462,160.03214,201.54593,707.65411,227.44504,96.45948,691.7442
98,0.808,93.67542,171.75929,779.28009,158.91321,197.9875,706.95789,225.90074,92.75011,691.23413
99,0.817,93.85435,169.28513,778.82806,158.7554,196.87062,706.71515,225.79169,92.26939,691.23187
100,0.825,93.94857,167.74013,778.95453,160.40091,195.77199,706.28809,226.28767,90.48251,691.63068
101,0.833,93.99843,167.1376,779.00964,160.96523,194.72702,706.45612,226.4679,88.60152,691.37274
102,0.842,94.21254,165.85556,779.04248,161.25513,194.03731,706.5686,226.19487,85.85989,691.34711
103,0.85,94.14149,164.94145,778.79309,160.6181,190.79181,705.57153,226.05588,84.51977,690.99805
104,0.858,94.82176,163.53409,778.80945,161.39566,188.41475,705.8479,225.50664,81.95049,689.97443
105,0.867,95.7191,161.77127,779.01746,161.88216,187.56012,705.86237,224.37869,83.00555,689.23932
106,0.875,95.87244,161.21094,778.65399,162.33057,186.67487,706.06793,225.46129,79.47112,689.45459
107,0.883,95.80236,160.72565,778.82019,162.85284,185.40344,706.63257,225.62062,76.58648,690.97461
108,0.892,95.65337,159.47578,778.88196,163.37201,184.14917,706.86292,225.72627,75.1592,691.02118
109,0.9,96.02618,157.47859,778.91925,163.04401,181.71118,706.51801,225.48097,72.43237,690.45941
110,0.908,96.67374,155.16341,779.37988,162.38098,178.86855,706.05676,225.78926,71.70561,690.85016
111,0.917,96.54274,153.83965,779.43268,164.10966,177.92336,706.78064,226.36958,70.86259,691.19702
112,0.925,96.61753,153.69289,779.59271,164.93846,177.02893,706.80957,226.38339,68.67439,691.80377
113,0.933,96.61753,153.69289,779.59271,165.17412,175.76956,707.11017,225.88708,66.57465,692.26898
114,0.942,97.43804,152.04228,779.91162,165.6049,174.18137,707.59485,225.37865,64.20656,692.58917
115,0.95,98.76945,150.11583,780.25891,165.82961,172.11847,708.33124,226.3611,62.63537,693.85718
116,0.958,99.35566,149.6189,780.56189,166.67828,171.06056,708.60272,226.53999,61.67933,694.73743
117,0.967,99.46162,149.33267,781.04694,167.18472,169.85005,708.81732,228.09441,59.23068,695.11517
118,0.975,99.49438,146.46796,781.6272,167.21657,168.39777,709.55939,226.75574,58.11878,695.94153
119,0.983,99.40787,145.14969,782.28583,167.88701,166.71342,710.22589,227.47145,54.38628,697.63464
120,0.992,99.83823,144.45689,783.13678,168.81679,165.11711,711.17676,226.96515,54.54517,697.61163
121,1,100.49414,143.13414,783.29736,169.34793,163.74216,711.21606,227.50706,53.45631,698.3429
122,1.008,100.93346,142.49406,783.45264,168.98422,163.0927,712.38403,228.5768,50.95887,700.01324
123,1.017,101.12968,141.93712,783.72626,170.64496,160.67882,712.81134,228.11539,50.23787,699.17053
124,1.025,101.82876,140.91238,784.48645,170.97583,159.20134,713.28571,227.71509,48.13368,700.12402
125,1.033,102.22877,139.69362,785.604,172.03186,157.80034,713.95184,228.57556,46.63029,702.10736
126,1.042,102.77865,138.11017,786.25928,173.02408,156.28654,714.19061,228.84747,45.0673,703.57233
127,1.05,102.41959,137.27167,786.67883,172.9413,155.27962,715.36163,229.27957,44.46996,703.90363
128,1.058,103.09779,137.36072,787.3457,173.6528,153.59627,715.80035,229.90094,43.11147,704.84979
129,1.067,104.04406,135.65839,788.15149,174.23012,152.71866,716.68176,228.6245,40.64727,706.15179
130,1.075,104.26986,134.64325,789.0025,175.37318,151.49945,718.38239,229.2484,40.21451,707.64008
131,1.083,104.41351,133.46155,789.58051,175.49812,151.72795,718.97314,230.22823,38.64858,707.85388
132,1.092,104.98865,132.14673,790.24634,175.905,150.19664,719.90778,231.70711,36.93775,709.99219
133,1.1,105.4272,132.05418,791.03589,176.51721,149.11884,720.80725,230.9558,36.47247,710.7088
134,1.108,105.62208,131.36876,792.48016,177.64633,147.46138,722.80115,231.73985,34.38841,711.89136
135,1.117,107.03447,130.43661,793.31134,178.52264,146.94987,724.02124,232.17839,33.30933,712.64777
136,1.125,107.95844,129.61261,793.86865,179.7364,146.1387,724.2547,233.29694,30.8809,714.15747
137,1.133,108.29034,129.04684,795.29462,180.23166,144.49019,724.6936,233.21883,32.58194,715.62097
138,1.142,108.62727,127.9724,796.32758,181.18419,143.48759,727.65973,234.06946,29.19403,716.90906
139,1.15,108.87439,127.08078,796.92316,182.03786,142.40877,728.17493,235.01535,28.12459,719.31866
140,1.158,109.59596,126.83062,798.65198,183.72658,141.61972,728.86713,235.65268,27.36861,721.22357
141,1.167,110.12962,126.53629,799.25555,183.86107,141.2686,729.78143,236.27988,26.65557,722.69678
142,1.175,111.17247,125.90755,799.86011,184.43488,139.97842,731.58258,237.08598,26.31741,723.52838
143,1.183,112.33796,124.70478,801.57385,185.1097,139.05922,733.60382,237.88701,24.73715,725.42957
144,1.192,112.83413,124.0413,803.07825,186.54509,139.15446,734.72241,237.8367,24.53121,727.21643
145,1.2,113.15144,123.83676,803.32355,187.17329,137.76532,735.71454,238.24075,23.98955,729.18121
146,1.208,113.81239,122.53989,805.47961,188.43506,136.9955,737.10992,239.96852,22.19435,731.31946
147,1.217,114.29129,122.89587,807.22821,188.88667,135.8494,739.13824,241.17566,21.0824,733.13654
148,1.225,115.08993,121.67735,808.19208,190.96263,135.34674,740.35437,241.62752,19.2183,734.48767
149,1.233,116.20141,121.54397,809.02692,191.21542,134.37097,742.03888,242.92567,18.15578,737.05334
150,1.242,116.66828,121.62679,810.57385,191.86119,134.22253,744.17328,242.96231,18.52942,738.49835
151,1.25,117.0881,121.06197,811.88116,192.61394,134.55217,746.33179,244.06656,17.85636,741.12299
152,1.258,117.84826,119.0986,813.21088,194.22604,133.13452,747.26746,245.30226,17.40706,743.49762
153,1.267,118.43401,118.63464,814.67572,195.37306,131.64294,749.21075,244.5072,17.41462,745.27838
154,1.275,118.7248,119.50093,816.41345,195.88811,132.12263,751.03839,246.44072,15.6723,746.73627
155,1.283,119.97169,118.72019,818.29657,195.94209,130.71648,752.5481,247.70877,15.72059,750.55042
156,1.292,120.23373,117.50925,819.24487,197.3987,130.98997,754.68933,248.10934,14.5655,752.20892
157,1.3,120.93064,117.7301,820.45435,198.91397,129.1971,756.88843,249.11223,13.89755,754.15289
158,1.308,121.21162,117.68429,822.35339,199.5347,128.88506,758.17639,250.2164,13.16766,756.71643
159,1.317,121.89658,117.27628,824.138,200.73004,128.65172,759.71075,249.69702,14.32408,759.28973
160,1.325,122.51223,117.67365,825.12,201.43338,127.56459,762.54327,251.14096,12.61961,760.82874
161,1.333,123.46831,117.77108,826.97449,202.65964,128.5545,764.63843,252.2045,13.39595,763.95844
162,1.342,124.21449,117.47444,829.1156,203.60858,127.24145,766.58075,252.4071,11.80964,766.10986
163,1.35,124.95954,116.78297,831.00177,204.4789,127.79739,767.9505,253.23421,12.20533,769.00067
164,1.358,125.32877,116.6882,831.72101,204.79816,127.07406,770.38623,254.40784,12.17298,770.63062
165,1.367,125.81059,116.62418,833.93677,206.50937,126.59309,773.20313,254.80273,10.6616,773.52936
166,1.375,126.03194,116.26812,835.94116,207.55026,125.9373,775.13824,255.17009,11.08463,776.73077
167,1.383,126.61591,115.50212,837.86243,208.80978,125.41447,776.70135,256.34409,9.49652,779.10956
168,1.392,127.4206,115.72969,838.62115,208.91165,124.99834,779.65009,257.18176,10.12256,781.80481
169,1.4,127.9594,115.93837,841.38354,209.52644,125.36192,782.03583,257.87686,8.67571,784.87628
170,1.408,128.36327,115.26002,843.31952,210.73967,124.6146,783.76324,259.68475,8.83373,788.297
171,1.417,129.31291,114.50643,845.10565,211.76682,124.23478,786.34094,259.68817,8.00327,789.92645
172,1.425,130.26367,114.53185,846.83856,212.56316,124.46695,789.00763,259.67349,9.77695,793.11096
173,1.433,130.52563,114.56918,849.16888,213.28577,123.82552,791.37646,261.22845,9.31473,794.60327
174,1.442,131.28392,114.77826,851.60199,214.20949,123.36332,794.09619,261.94638,7.13581,799.62561
175,1.45,131.5289,115.24829,852.93799,215.108,122.78921,795.73438,262.15894,8.66189,802.31531
176,1.458,132.33241,114.78191,855.18842,216.86562,123.4667,799.19751,263.67355,7.3176,805.13287
177,1.467,132.55637,114.24702,856.85706,217.32832,123.01426,801.23792,264.66281,5.99593,808.49133
178,1.475,133.53897,114.89937,859.57098,218.24109,123.28703,803.52643,265.34415,6.23391,811.99323
179,1.483,133.51613,114.54786,860.94946,218.68556,122.70618,806.1994,266.01254,6.11629,813.66888
180,1.492,134.41222,114.37004,862.58759,219.6898,122.70853,809.24652,266.57321,6.7915,817.92255
181,1.5,134.79227,114.7341,865.27826,220.18059,122.15791,811.29718,267.46423,6.89463,819.93774
182,1.508,135.11279,114.40755,867.09717,221.74796,122.60343,814.44934,268.13525,5.34875,823.87781
183,1.517,135.96637,114.6239,869.47198,221.48651,122.95978,816.56824,270.04126,6.3211,828.58612
184,1.525,136.69778,114.26543,871.51526,223.24202,121.31465,819.56995,270.47223,6.62543,829.55884
185,1.533,137.98071,114.60057,873.64844,224.51788,122.62584,822.10846,272.38806,4.1528,834.72131
186,1.542,137.2536,115.4011,875.77209,225.55266,121.10658,825.00134,272.49576,5.34129,836.43951
187,1.55,138.63338,114.90307,878.29199,225.53767,123.02565,827.69958,272.85556,6.87349,840.24915
188,1.558,138.67123,114.88502,879.82361,227.25688,121.92017,829.88098,272.57925,6.21213,842.57056
189,1.567,138.72038,116.26907,882.51581,227.08022,122.32826,833.5199,273.33813,7.23785,844.49146
190,1.575,139.39958,115.20765,885.00372,228.40884,122.15375,835.83966,273.44177,9.03174,847.32648
191,1.583,139.06766,115.92181,886.82758,228.95956,122.25504,839.23883,274.82309,6.31495,851.15179
192,1.592,139.71115,116.34592,888.79803,229.73256,123.48773,842.10541,276.67044,5.63524,853.94653
193,1.6,140.88405,116.06051,891.5304,230.63632,123.72063,844.40497,276.83722,8.23361,856.01385
194,1.608,141.43877,116.98228,893.45776,230.72334,124.43908,847.48865,278.84857,7.85895,863.69788
195,1.617,142.5508,117.65553,895.71649,231.47491,124.21296,850.41449,279.18256,6.222,866.57764
196,1.625,142.47151,116.27531,898.29272,232.93507,124.41808,853.47687,279.25885,7.74241,869.90143
197,1.633,142.87683,117.42974,900.3924,233.60133,124.14129,856.05804,279.36847,8.37164,873.38776
198,1.642,142.91013,117.66997,903.03485,234.11781,124.32014,858.8775,280.01065,8.75954,876.95416
199,1.65,143.56091,118.1379,905.13824,234.62849,125.08673,861.77844,281.67725,9.41626,879.64575
200,1.658,143.68771,119.14911,907.17505,236.07448,125.9758,865.35052,282.22452,9.79811,882.48248
201,1.667,144.54727,119.12444,909.45044,236.42578,127.0079,867.86615,283.0968,10.37098,886.15375
202,1.675,144.77113,120.3807,912.47174,236.89793,127.10892,870.94128,284.24847,9.95461,890.06543
203,1.683,145.20456,120.38792,915.1662,237.32158,127.10528,873.74658,284.1492,12.25886,893.83575
204,1.692,145.52364,120.75059,916.7373,237.55945,127.1315,876.1748,285.17596,9.80374,896.2431
