Frame#,Time,L.Forearm.x,L.Forearm.y,L.Forearm.z,L.Ulna.x,L.Ulna.y,L.Ulna.z,L.Radius.x,L.Radius.y,L.Radius.z
1,0,149.89592,306.47403,1059.27173,126.09773,353.21149,951.0954,172.64308,273.6705,867.81702
2,0.008,149.77229,306.47379,1058.76746,126.09773,353.21149,951.0954,170.90929,273.77094,866.19849
3,0.017,149.74176,306.43222,1059.34631,126.09773,353.21149,951.0954,172.11188,273.31873,867.78387
4,0.025,149.89592,306.47403,1059.27173,126.09773,353.21149,951.0954,172.29254,273.36435,868.21063
5,0.033,150.28792,306.65012,1059.92236,126.29447,352.92249,951.11523,172.29254,273.36435,868.21063
6,0.042,150.6096,306.46368,1059.78162,126.29447,352.92249,951.11523,172.29254,273.36435,868.21063
7,0.05,150.6096,306.46368,1059.78162,126.46578,352.9119,951.07434,172.29254,273.36435,868.21063
8,0.058,150.52696,306.4501,1059.33398,126.57924,352.75357,951.17859,172.33856,272.16312,867.60168
9,0.067,150.75807,305.98154,1059.87268,126.57924,352.75357,951.17859,172.59212,271.7887,867.81287
10,0.075,150.7639,305.68951,1059.55945,126.57924,352.75357,951.17859,172.59212,271.7887,867.81287
11,0.083,150.77765,304.95163,1059.51221,126.57924,352.75357,951.17859,172.59212,271.7887,867.81287
12,0.092,150.94746,304.97287,1059.24756,126.57978,352.70444,950.97913,172.59212,271.7887,867.81287
13,0.1,151.57855,304.82437,1059.40112,126.57978,352.70444,950.97913,173.12332,272.14044,867.84607
14,0.108,151.76068,304.60806,1059.02356,126.75888,352.9726,950.76685,173.12332,272.14044,867.84607
15,0.117,151.76068,304.60806,1059.02356,126.85919,352.91394,950.67511,173.31238,272.11469,867.54376
16,0.125,152.21307,305.05124,1059.11035,127.84694,352.15558,950.75909,173.31238,272.11469,867.54376
17,0.133,152.21307,305.05124,1059.11035,127.67506,352.00354,950.88739,173.31238,272.11469,867.54376
18,0.142,152.53766,305.34335,1059.06519,127.72139,351.87573,951.02271,173.31238,272.11469,867.54376
19,0.15,152.53766,305.34335,1059.06519,127.94002,351.92435,950.87183,173.31238,272.11469,867.54376
20,0.158,153.07874,305.21811,1058.73035,128.11192,352.07639,950.74347,173.31238,272.11469,867.54376
21,0.167,153.2847,305.18134,1058.70251,128.01918,352.20313,950.62738,173.31238,272.11469,867.54376
22,0.175,153.65886,306.29056,1059.00854,128.14349,352.12027,950.67615,173.7722,271.93762,867.68488
23,0.183,153.37892,305.23282,1058.60632,128.14349,352.12027,950.67615,173.7722,271.93762,867.68488
24,0.192,153.53763,304.996,1058.28503,128.14349,352.12027,950.67615,173.7722,271.93762,867.68488
25,0.2,153.82434,305.03717,1058.56409,128.14349,352.12027,950.67615,173.7722,271.93762,867.68488
26,0.208,153.82434,305.03717,1058.56409,128.14349,352.12027,950.67615,174.36983,271.83078,867.67975
27,0.217,153.82434,305.03717,1058.56409,128.63815,351.93256,950.75586,174.36983,271.83078,867.67975
28,0.225,154.56415,305.81531,1058.78125,128.63815,351.93256,950.75586,174.36983,271.83078,867.67975
29,0.233,154.56415,305.81531,1058.78125,128.97891,351.76584,950.66492,174.36983,271.83078,867.67975
30,0.242,154.56415,305.81531,1058.78125,128.97891,351.76584,950.66492,174.58237,271.74966,867.24878
31,0.25,154.03981,304.97659,1058.56201,128.97891,351.76584,950.66492,174.36983,271.83078,867.67975
32,0.258,154.11354,305.13876,1058.38098,128.97891,351.76584,950.66492,174.58237,271.74966,867.24878
33,0.267,153.9245,305.25089,1058.27881,128.97891,351.76584,950.66492,174.58237,271.74966,867.24878
34,0.275,153.9245,305.25089,1058.27881,128.97891,351.76584,950.66492,174.58237,271.74966,867.24878
35,0.283,153.9982,305.41306,1058.09778,128.97891,351.76584,950.66492,174.58237,271.74966,867.24878
36,0.292,153.9982,305.41306,1058.09778,128.99306,351.71234,950.47968,174.36983,271.83078,867.67975
37,0.3,153.8567,305.63788,1057.75781,129.07211,351.4473,950.39667,174.58237,271.74966,867.24878
38,0.308,153.8567,305.63788,1057.75781,128.87387,351.49582,950.2605,174.51938,271.80551,866.69122
39,0.317,153.8567,305.63788,1057.75781,128.87387,351.49582,950.2605,174.51938,271.80551,866.69122
40,0.325,154.20886,304.88168,1057.53772,128.87387,351.49582,950.2605,174.58237,271.74966,867.24878
41,0.333,153.8978,304.92792,1057.3468,128.82785,351.49927,949.9176,174.51938,271.80551,866.69122
42,0.342,153.8978,304.92792,1057.3468,128.62589,351.42776,949.61005,174.51938,271.80551,866.69122
43,0.35,153.86891,305.47455,1057.37097,128.62589,351.42776,949.61005,174.51938,271.80551,866.69122
44,0.358,153.8978,304.92792,1057.3468,128.72621,351.36908,949.51837,174.51938,271.80551,866.69122
45,0.367,153.8978,304.92792,1057.3468,128.62589,351.42776,949.61005,174.51938,271.80551,866.69122
46,0.375,153.8978,304.92792,1057.3468,128.57208,351.26984,949.54675,174.36499,271.50601,866.46417
47,0.383,153.8978,304.92792,1057.3468,128.5015,351.51065,949.56122,173.92719,271.06537,866.31555
48,0.392,153.8978,304.92792,1057.3468,128.79681,351.12823,949.50385,173.92719,271.06537,866.31555
49,0.4,153.93144,304.64032,1057.18274,128.67241,351.21115,949.45508,173.92719,271.06537,866.31555
50,0.408,153.93144,304.64032,1057.18274,128.69649,351.18692,949.59558,173.92719,271.06537,866.31555
51,0.417,153.8978,304.92792,1057.3468,128.57208,351.26984,949.54675,173.92719,271.06537,866.31555
52,0.425,153.93144,304.64032,1057.18274,128.57208,351.26984,949.54675,173.92719,271.06537,866.31555
53,0.433,153.66948,304.3956,1057.38574,128.57208,351.26984,949.54675,173.32921,271.17215,866.32056
54,0.442,153.66948,304.3956,1057.38574,128.57208,351.26984,949.54675,172.68077,270.71884,866.4184
55,0.45,153.66948,304.3956,1057.38574,128.57208,351.26984,949.54675,172.22044,270.89587,866.27698
56,0.458,153.66948,304.3956,1057.38574,128.57208,351.26984,949.54675,172.22044,270.89587,866.27698
57,0.467,153.63585,304.68326,1057.5498,128.57208,351.26984,949.54675,172.22044,270.89587,866.27698
58,0.475,153.40314,304.85629,1057.74512,128.21391,351.42191,949.55151,172.22044,270.89587,866.27698
59,0.483,153.40314,304.85629,1057.74512,128.21391,351.42191,949.55151,172.22044,270.89587,866.27698
60,0.492,153.40314,304.85629,1057.74512,128.21391,351.42191,949.55151,172.00801,270.97687,866.70813
61,0.5,153.40314,304.85629,1057.74512,128.26003,351.41849,949.89453,172.18849,271.02286,867.13477
62,0.508,153.40314,304.85629,1057.74512,128.26003,351.41849,949.89453,172.18849,271.02286,867.13477
63,0.517,153.27838,304.88629,1058.02893,128.2016,351.57285,950.09753,172.18849,271.02286,867.13477
64,0.525,153.27838,304.88629,1058.02893,127.9508,351.9343,950.28723,172.18849,271.02286,867.13477
65,0.533,152.98572,304.77679,1058.31555,127.90504,351.89392,950.3562,172.18849,271.02286,867.13477
66,0.542,152.89146,304.72531,1058.41162,127.87183,352.19928,950.37024,172.18849,271.02286,867.13477
67,0.55,152.89146,304.72531,1058.41162,127.69958,352.15176,950.50195,172.18849,271.02286,867.13477
68,0.558,152.68547,304.76205,1058.43958,127.52768,351.99976,950.63025,172.18849,271.02286,867.13477
69,0.567,152.70787,305.11649,1058.36096,127.13997,352.1572,950.60663,172.39957,271.35077,867.34607
70,0.575,152.50072,305.33804,1058.51636,127.18031,352.19159,950.80762,172.39957,271.35077,867.34607
71,0.583,152.50072,305.33804,1058.51636,127.35221,352.3436,950.67932,172.78127,271.76294,867.51056
72,0.592,152.50072,305.33804,1058.51636,127.35221,352.3436,950.67932,172.78127,271.76294,867.51056
73,0.6,152.3398,305.35037,1058.55823,127.35221,352.3436,950.67932,172.78127,271.76294,867.51056
74,0.608,152.3398,305.35037,1058.55823,127.20004,352.7468,950.58417,173.31238,272.11469,867.54376
75,0.617,152.3398,305.35037,1058.55823,127.20004,352.7468,950.58417,173.31238,272.11469,867.54376
76,0.625,152.3398,305.35037,1058.55823,126.68732,352.76196,950.80341,173.31247,272.54449,867.43628
77,0.633,152.52283,305.37152,1058.78882,126.91118,352.95169,950.60663,173.31247,272.54449,867.43628
78,0.642,152.38541,305.6123,1058.23303,126.85919,352.91394,950.67511,173.07512,272.83179,867.35352
79,0.65,152.56844,305.63351,1058.46362,126.91118,352.95169,950.60663,173.07512,272.83179,867.35352
80,0.658,153.22987,306.60846,1058.58606,126.91118,352.95169,950.60663,173.07512,272.83179,867.35352
81,0.667,153.22987,306.60846,1058.58606,127.25203,352.78452,950.51569,173.07512,272.83179,867.35352
82,0.675,152.65247,305.69293,1058.36121,126.80416,353.09802,950.51666,173.07512,272.83179,867.35352
83,0.683,152.65247,305.69293,1058.36121,126.92439,353.10788,950.45349,173.07512,272.83179,867.35352
84,0.692,152.65247,305.69293,1058.36121,126.92439,353.10788,950.45349,173.07512,272.83179,867.35352
85,0.7,152.50409,306.25485,1058.24194,126.92439,353.10788,950.45349,173.07512,272.83179,867.35352
86,0.708,153.43082,306.79816,1058.39929,126.92439,353.10788,950.45349,173.07512,272.83179,867.35352
87,0.717,153.06319,306.87967,1058.22095,126.92439,353.10788,950.45349,173.18184,273.00604,867.08441
88,0.725,152.79089,306.27234,1057.63354,126.92439,353.10788,950.45349,173.11862,273.06198,866.52649
89,0.733,152.93924,305.71057,1057.75269,127.26521,352.9407,950.36255,173.11862,273.06198,866.52649
90,0.742,152.93924,305.71057,1057.75269,127.26521,352.9407,950.36255,171.7841,273.14169,864.59155
91,0.75,152.93924,305.71057,1057.75269,127.22489,352.90625,950.16162,171.7841,273.14169,864.59155
92,0.758,152.93924,305.71057,1057.75269,127.22489,352.90625,950.16162,171.7841,273.14169,864.59155
93,0.767,153.013,305.87271,1057.57153,127.22489,352.90625,950.16162,171.7841,273.14169,864.59155
94,0.775,153.013,305.87271,1057.57153,127.22489,352.90625,950.16162,171.7841,273.14169,864.59155
95,0.783,152.77777,305.86765,1057.31982,127.22489,352.90625,950.16162,171.7841,273.14169,864.59155
96,0.792,152.77777,305.86765,1057.31982,127.22489,352.90625,950.16162,171.7841,273.14169,864.59155
97,0.8,152.77777,305.86765,1057.31982,127.12606,353.10956,949.94257,171.53235,272.7066,864.495
98,0.808,152.96651,305.5676,1057.77258,127.33104,352.50659,949.9137,170.95389,271.05936,864.58368
99,0.817,152.80182,305.63983,1057.53333,127.38943,352.3522,949.71063,171.04785,270.8111,864.64124
100,0.825,152.61435,305.13794,1057.53076,127.38943,352.3522,949.71063,170.92354,270.82913,864.95001
101,0.833,152.83052,305.09323,1057.50916,127.57537,351.94089,949.71759,171.04785,270.8111,864.64124
102,0.842,152.59694,304.80765,1057.77625,127.57537,351.94089,949.71759,171.04785,270.8111,864.64124
103,0.85,152.47215,304.83762,1058.06006,127.57537,351.94089,949.71759,170.92354,270.82913,864.95001
104,0.858,152.30745,304.90979,1057.8208,127.57537,351.94089,949.71759,170.92354,270.82913,864.95001
105,0.867,152.47215,304.83762,1058.06006,127.57537,351.94089,949.71759,171.0116,270.86743,865.24487
106,0.875,152.47215,304.83762,1058.06006,127.85574,351.57413,949.55627,171.0116,270.86743,865.24487
107,0.883,152.38809,304.77817,1058.16248,127.85574,351.57413,949.55627,171.0116,270.86743,865.24487
108,0.892,152.22713,304.79047,1058.20435,127.85574,351.57413,949.55627,170.90599,270.04007,865.50861
109,0.9,152.22713,304.79047,1058.20435,128.21391,351.42191,949.55151,170.90599,270.04007,865.50861
110,0.908,152.22713,304.79047,1058.20435,127.68187,351.36746,949.57849,170.90599,270.04007,865.50861
111,0.917,152.05602,304.71164,1058.36829,127.91428,351.05978,950.0451,170.90599,270.04007,865.50861
112,0.925,152.22713,304.79047,1058.20435,127.82607,351.09109,950.08356,170.90599,270.04007,865.50861
113,0.933,152.05602,304.71164,1058.36829,127.73396,351.18054,950.22034,170.90599,270.04007,865.50861
114,0.942,152.05602,304.71164,1058.36829,127.90587,351.33258,950.09198,170.90599,270.04007,865.50861
115,0.95,152.05602,304.71164,1058.36829,128.0862,351.21179,949.91675,171.13313,269.92383,865.59875
116,0.958,152.03448,304.2258,1058.83545,128.66258,350.63928,949.80042,171.13313,269.92383,865.59875
117,0.967,152.17126,304.43738,1058.65161,128.49185,351.06046,949.93011,171.13313,269.92383,865.59875
118,0.975,152.17126,304.43738,1058.65161,127.77604,350.85086,950.17139,171.13313,269.92383,865.59875
119,0.983,152.17126,304.43738,1058.65161,128.00706,350.93298,950.16119,171.13313,269.92383,865.59875
120,0.992,152.17126,304.43738,1058.65161,128.70107,351.26642,949.89368,171.13313,269.92383,865.59875
121,1,152.05602,304.71164,1058.36829,128.70107,351.26642,949.89368,171.13313,269.92383,865.59875
122,1.008,152.05602,304.71164,1058.36829,128.2016,351.57285,950.09753,171.13313,269.92383,865.59875
123,1.017,152.05602,304.71164,1058.36829,128.26003,351.41849,949.89453,171.13313,269.92383,865.59875
124,1.025,152.34239,304.51624,1058.48767,128.70107,351.26642,949.89368,171.35695,270.11658,865.47589
125,1.033,152.22713,304.79047,1058.20435,128.52069,351.67581,950.11554,171.35695,270.11658,865.47589
126,1.042,152.40929,305.04861,1058.19824,128.13109,351.8136,950.11206,171.35695,270.11658,865.47589
127,1.05,152.57022,305.03629,1058.15625,128.25542,351.73074,950.16083,171.35695,270.11658,865.47589
128,1.058,152.57022,305.03629,1058.15625,128.13109,351.8136,950.11206,171.3849,271.07886,865.47131
129,1.067,152.59256,305.39075,1058.07764,127.9508,351.9343,950.28723,171.3849,271.07886,865.47131
130,1.075,152.67661,305.45016,1057.97522,128.05211,352.07864,950.19507,171.71704,271.4855,865.47211
131,1.083,152.67661,305.45016,1057.97522,128.05211,352.07864,950.19507,171.96877,271.92053,865.56866
132,1.092,152.89276,305.40543,1057.95374,127.87183,352.19928,950.37024,171.96877,271.92053,865.56866
133,1.1,152.89276,305.40543,1057.95374,127.87183,352.19928,950.37024,171.96877,271.92053,865.56866
134,1.108,152.89276,305.40543,1057.95374,127.87183,352.19928,950.37024,171.96877,271.92053,865.56866
135,1.117,152.89276,305.40543,1057.95374,127.87183,352.19928,950.37024,171.74179,272.03677,865.47852
136,1.125,152.89276,305.40543,1057.95374,127.71962,352.60245,950.27515,171.74179,272.03677,865.47852
137,1.133,152.89276,305.40543,1057.95374,128.01918,352.20313,950.62738,171.74179,272.03677,865.47852
138,1.142,153.07578,305.42664,1058.18433,127.86696,352.60629,950.53223,171.74179,272.03677,865.47852
139,1.15,152.89276,305.40543,1057.95374,127.86696,352.60629,950.53223,171.74179,272.03677,865.47852
140,1.158,152.89276,305.40543,1057.95374,127.86696,352.60629,950.53223,171.74179,272.03677,865.47852
141,1.167,153.07578,305.42664,1058.18433,127.86696,352.60629,950.53223,171.74179,272.03677,865.47852
142,1.175,153.07578,305.42664,1058.18433,127.99128,352.52347,950.58099,171.79619,272.45566,865.39374
143,1.183,153.79965,306.37186,1058.56445,127.86696,352.60629,950.53223,171.79619,272.45566,865.39374
144,1.192,154.19949,305.85858,1058.66345,127.99128,352.52347,950.58099,171.79619,272.45566,865.39374
145,1.2,153.79965,306.37186,1058.56445,127.99128,352.52347,950.58099,171.79619,272.45566,865.39374
146,1.208,154.36353,305.89502,1058.77942,127.99128,352.52347,950.58099,171.79619,272.45566,865.39374
147,1.217,153.82434,305.03717,1058.56409,127.99128,352.52347,950.58099,171.79619,272.45566,865.39374
148,1.225,153.82434,305.03717,1058.56409,127.99128,352.52347,950.58099,171.79619,272.45566,865.39374
149,1.233,153.82434,305.03717,1058.56409,127.99128,352.52347,950.58099,171.79619,272.45566,865.39374
150,1.242,153.94206,306.11707,1058.80603,127.99128,352.52347,950.58099,172.02313,272.33945,865.48389
151,1.25,153.73518,306.32422,1058.92883,127.99128,352.52347,950.58099,172.02461,272.64194,865.78717
152,1.258,153.73518,306.32422,1058.92883,128.18217,352.68655,950.93536,172.25151,272.5257,865.87726
153,1.267,154.31876,306.18417,1059.15247,128.52617,352.37076,950.86169,172.53197,272.8219,866.07428
154,1.275,153.73518,306.32422,1058.92883,128.56982,352.52951,950.95892,172.44945,272.57028,866.26593
155,1.283,153.8681,306.63907,1059.43396,128.56982,352.52951,950.95892,172.44945,272.57028,866.26593
156,1.292,153.89734,306.40616,1059.17908,128.56982,352.52951,950.95892,172.72983,272.86642,866.46295
157,1.3,154.28949,306.41708,1059.40723,128.56982,352.52951,950.95892,172.72983,272.86642,866.46295
158,1.308,154.28949,306.41708,1059.40723,128.56982,352.52951,950.95892,173.36571,272.80554,866.66663
159,1.317,154.28949,306.41708,1059.40723,128.56982,352.52951,950.95892,173.70657,272.75418,866.87579
160,1.325,154.28949,306.41708,1059.40723,128.56982,352.52951,950.95892,173.70657,272.75418,866.87579
161,1.333,155.0164,306.54767,1059.61108,128.56982,352.52951,950.95892,173.70657,272.75418,866.87579
162,1.342,154.94844,306.44479,1059.89172,128.62656,352.45926,951.021,173.70657,272.75418,866.87579
163,1.35,155.0164,306.54767,1059.61108,128.85611,352.38159,950.85223,173.84335,272.59274,867.02295
164,1.358,155.0164,306.54767,1059.61108,128.91286,352.31128,950.91437,173.84335,272.59274,867.02295
165,1.367,155.0164,306.54767,1059.61108,128.91286,352.31128,950.91437,173.84335,272.59274,867.02295
166,1.375,155.18674,306.4559,1059.64294,128.96111,352.55905,951.00537,173.84335,272.59274,867.02295
167,1.383,155.0164,306.54767,1059.61108,128.85611,352.38159,950.85223,173.84335,272.59274,867.02295
168,1.392,155.38173,306.32831,1059.72473,128.85611,352.38159,950.85223,175.56743,272.5065,868.67322
169,1.4,155.39365,306.24863,1059.52014,128.85611,352.38159,950.85223,175.56743,272.5065,868.67322
170,1.408,155.38173,306.32831,1059.72473,128.85611,352.38159,950.85223,175.56743,272.5065,868.67322
171,1.417,155.39365,306.24863,1059.52014,128.96111,352.55905,951.00537,174.67633,272.34836,867.10956
172,1.425,155.39365,306.24863,1059.52014,128.96111,352.55905,951.00537,175.56743,272.5065,868.67322
173,1.433,155.39365,306.24863,1059.52014,129.01784,352.48877,951.06744,175.56743,272.5065,868.67322
174,1.442,155.39365,306.24863,1059.52014,129.55632,352.34866,951.17004,175.56743,272.5065,868.67322
175,1.45,155.39365,306.24863,1059.52014,129.75963,352.45886,951.20526,176.12282,272.38696,868.69952
176,1.458,155.39365,306.24863,1059.52014,129.75963,352.45886,951.20526,176.22961,272.5611,868.4306
177,1.467,155.39365,306.24863,1059.52014,129.54019,352.35422,951.28607,176.22961,272.5611,868.4306
178,1.475,155.39365,306.24863,1059.52014,129.65038,352.26321,951.36456,176.22961,272.5611,868.4306
179,1.483,155.08089,305.61002,1059.53735,129.54019,352.35422,951.28607,176.22961,272.5611,868.4306
180,1.492,155.02283,305.69525,1059.45361,130.09975,352.67117,950.90723,176.73293,272.81592,868.01416
181,1.5,155.02283,305.69525,1059.45361,130.33247,352.70114,950.62659,176.73293,272.81592,868.01416
182,1.508,155.83499,306.04758,1059.35315,129.95012,352.31668,950.75806,177.13724,272.80698,867.91412
183,1.517,155.96967,306.23831,1059.34534,130.06151,352.24173,950.81641,177.13724,272.80698,867.91412
184,1.525,155.8781,306.17947,1059.20068,129.95012,352.31668,950.75806,177.13724,272.80698,867.91412
185,1.533,155.57817,305.39227,1058.74841,130.33247,352.70114,950.62659,177.13724,272.80698,867.91412
186,1.542,155.62111,305.31216,1058.83118,130.43671,352.64795,950.52362,177.13724,272.80698,867.91412
187,1.55,155.57817,305.39227,1058.74841,130.74551,352.4606,950.19556,177.13724,272.80698,867.91412
188,1.558,155.57817,305.39227,1058.74841,130.85693,352.38565,950.25391,177.13724,272.80698,867.91412
189,1.567,155.57817,305.39227,1058.74841,131.04308,352.08948,950.16284,177.13724,272.80698,867.91412
190,1.575,155.57817,305.39227,1058.74841,130.7285,351.68692,949.9743,177.13724,272.80698,867.91412
191,1.583,155.57817,305.39227,1058.74841,130.8399,351.61194,950.03271,177.13724,272.80698,867.91412
192,1.592,155.57817,305.39227,1058.74841,130.72827,351.67499,949.98901,177.13724,272.80698,867.91412
193,1.6,155.57817,305.39227,1058.74841,131.04308,352.08948,950.16284,177.13724,272.80698,867.91412
194,1.608,155.8109,305.2193,1058.5531,131.17894,351.91125,949.92542,177.67006,271.80884,867.64026
195,1.617,155.63165,305.09808,1058.21594,131.08788,351.92715,949.93353,177.67006,271.80884,867.64026
196,1.625,155.63165,305.09808,1058.21594,130.7733,351.52457,949.745,177.56396,272.49396,867.69482
197,1.633,155.8109,305.2193,1058.5531,130.56509,351.33682,949.89069,177.67006,271.80884,867.64026
198,1.642,156.13072,305.77795,1058.78931,130.56509,351.33682,949.89069,177.67006,271.80884,867.64026
199,1.65,155.5163,305.37234,1057.93298,130.72646,351.4903,949.84039,178.04688,271.10626,867.83405
200,1.658,155.05859,305.32126,1057.96875,130.66817,351.50992,949.63226,178.04688,271.10626,867.83405
