Frame#,Time,L.Forearm.x,L.Forearm.y,L.Forearm.z,L.Ulna.x,L.Ulna.y,L.Ulna.z,L.Radius.x,L.Radius.y,L.Radius.z
1,0,79.43393,228.82118,907.82495,152.13165,167.37515,937.00104,104.52273,164.1347,1027.22925
2,0.008,78.22292,228.14105,906.8374,149.33844,167.23624,936.88678,102.52006,164.74507,1026.54675
3,0.017,77.54901,228.31328,906.49084,147.50597,167.47498,937.02637,100.39355,164.2012,1026.63135
4,0.025,75.8556,228.22874,906.65546,147.1582,167.73434,936.87225,97.49946,165.19167,1026.53259
5,0.033,75.45728,228.62152,906.51862,145.74316,167.78058,936.77759,96.56654,165.44086,1026.21863
6,0.042,74.88008,228.09595,906.35956,144.78012,167.86575,937.0802,95.02147,164.86664,1025.84546
7,0.05,74.10955,227.91309,906.43158,143.9749,168.20212,937.14722,93.1496,164.47639,1025.39355
8,0.058,73.81129,227.60779,906.54907,143.4034,168.84129,937.15173,92.34688,165.77368,1025.4364
9,0.067,73.81129,227.60779,906.54907,143.00374,169.36571,936.83734,92.34712,166.02336,1024.84607
10,0.075,73.92487,227.95499,906.43158,142.97202,169.49942,936.25098,92.54758,166.31242,1024.92041
11,0.083,74.08246,228.21796,906.38757,143.18027,170.23187,936.57501,92.83303,166.92526,1024.82935
12,0.092,74.48899,228.44731,906.21545,144.02696,170.34576,936.65161,93.78127,167.07219,1024.9386
13,0.1,74.6998,228.36673,906.07037,144.83586,170.13744,936.55756,95.87957,167.67221,1026.31067
14,0.108,76.06883,230.39964,906.5993,146.57126,170.58748,936.80933,96.33671,166.98499,1025.60254
15,0.117,76.06883,230.39964,906.5993,147.26738,170.88135,936.6969,97.97956,168.47958,1026.11707
16,0.125,76.20328,230.38321,906.8645,148.66895,171.97974,937.34283,99.37209,168.67824,1026.53992
17,0.133,77.19032,230.52206,906.71967,150.28851,172.81506,937.2804,101.75713,168.59335,1027.1012
18,0.142,78.14426,230.81947,907.28992,152.27444,174.33728,937.51593,103.02841,167.95015,1027.73218
19,0.15,78.96877,231.22723,907.75958,153.77153,174.36,938.07404,106.78014,169.78421,1028.14807
20,0.158,80.43954,232.3533,908.02924,156.35918,176.08156,938.53949,108.85689,168.70473,1028.66919
21,0.167,81.52399,232.56009,908.48273,158.46866,177.78654,939.05432,112.04755,168.91519,1029.64758
22,0.175,83.12215,233.36627,909.08429,161.06383,178.28044,940.33252,114.8045,170.10825,1029.91394
23,0.183,84.99053,233.95679,909.90167,164.15532,180.68803,940.92419,118.5815,169.90668,1031.66577
24,0.192,85.89962,233.61703,911.28455,166.82289,180.15854,941.69751,122.22186,170.1577,1033.31958
25,0.2,88.44143,234.34245,912.82605,170.41206,182.80766,942.44257,126.43797,168.67676,1034.64185
26,0.208,89.53335,234.1041,913.64978,174.1127,183.72971,943.74213,131.44611,169.63449,1035.74731
27,0.217,92.14542,233.25656,915.18439,177.88075,185.45349,944.83856,135.776,170.17233,1037.10132
28,0.225,94.24908,234.43867,917.60083,180.88255,186.10837,946.00256,140.89496,170.66083,1038.41541
29,0.233,97.17316,234.28645,918.99109,184.72661,187.65309,947.026,145.92088,170.8331,1039.98376
30,0.242,98.97131,233.93324,921.58301,189.85315,189.79121,948.86121,152.59535,172.26477,1042.3363
31,0.25,102.00418,234.6774,923.96021,193.77588,192.5394,949.81604,157.85466,169.87291,1044.77637
32,0.258,105.04401,234.30763,926.97308,197.42659,193.24982,952.44812,163.56081,170.95245,1045.87439
33,0.267,107.39765,234.632,930.1756,202.27904,195.22147,954.0694,168.54733,170.21172,1048.18115
34,0.275,111.68504,233.69846,932.59021,207.01079,197.73724,956.02985,174.14909,169.35663,1049.81873
35,0.283,114.18861,234.79503,936.69263,211.19676,199.73425,957.62878,181.27562,169.38951,1052.08789
36,0.292,117.02876,235.05476,939.87042,215.90813,201.33012,959.51105,185.85072,165.81761,1054.52515
37,0.3,120.73085,234.60129,944.10364,219.57932,203.67409,962.7948,192.07269,165.34033,1057.35413
38,0.308,123.53791,235.01083,947.42175,222.64888,205.17944,966.19971,197.34459,164.01576,1059.15039
39,0.317,126.87408,234.33177,952.02393,226.81396,207.48833,969.25403,203.43878,163.74594,1060.83728
40,0.325,129.7157,236.01489,956.74469,230.57942,208.39418,972.46362,209.40047,161.81857,1064.62622
41,0.333,134.54016,235.17952,961.60767,235.43724,209.73187,976.43396,216.47417,159.97194,1067.32434
42,0.342,137.11743,234.84837,966.90173,239.4783,210.96385,979.95837,221.90404,158.28378,1069.68433
43,0.35,141.33069,235.38562,972.24023,243.9919,212.76813,983.45856,227.55621,156.57338,1073.11047
44,0.358,144.27097,234.74808,977.74463,247.93065,212.35512,988.20081,233.92146,154.44194,1075.8501
45,0.367,147.93925,233.44836,983.21509,252.5927,215.28615,991.16638,240.83482,153.29897,1078.30676
46,0.375,151.10907,233.68236,988.88275,255.59959,216.28221,995.33997,246.21661,151.64941,1081.36438
47,0.383,154.90877,231.5471,994.76355,258.87445,216.88394,1000.04034,253.38554,149.38289,1084.57031
48,0.392,157.42215,230.40211,999.87286,263.01483,217.60286,1003.75964,258.63,147.79811,1087.30273
49,0.4,160.11136,228.81981,1004.77917,265.5849,218.27754,1009.22388,263.25397,148.67856,1090.99243
50,0.408,162.16263,228.36906,1009.83044,269.27243,219.28661,1012.83429,268.53522,146.94801,1094.0614
51,0.417,166.40509,226.50052,1015.63696,271.55701,219.85559,1018.07275,274.1221,146.38274,1097.08984
52,0.425,168.35681,225.01903,1021.29572,274.53516,219.70717,1022.55231,279.53085,143.95346,1100.66992
53,0.433,171.21504,223.00537,1026.32178,278.33594,219.71371,1027.31763,284.49438,143.42885,1103.71497
54,0.442,173.7493,220.71257,1031.68457,280.18445,219.48393,1031.91858,289.5444,141.67293,1106.53613
55,0.45,175.78163,219.77486,1037.77844,283.82867,220.35057,1037.13196,294.08725,138.89296,1109.2854
56,0.458,179.50502,216.21686,1042.72876,286.55203,219.2431,1041.73059,300.50476,137.40569,1111.62964
57,0.467,181.53862,214.62729,1048.13196,289.1619,219.57658,1045.89001,305.55942,134.65154,1113.18408
58,0.475,184.71225,212.11592,1053.88196,291.7446,218.9621,1050.66272,311.49194,132.34979,1115.77344
59,0.483,187.33241,208.64792,1058.09668,295.11618,218.86867,1055.30591,316.63065,131.18813,1117.41077
60,0.492,189.70012,206.49611,1063.21436,297.06775,218.02576,1060.10132,321.18045,129.60027,1119.56641
61,0.5,192.5135,202.24442,1068.55518,299.09824,217.50665,1063.828,326.25711,128.12515,1120.88538
62,0.508,195.71046,198.74858,1074.25464,301.45761,216.33272,1067.99036,331.80081,126.60132,1122.50647
63,0.517,197.12289,196.1897,1077.20459,302.95233,216.19733,1072.9303,337.21417,124.13242,1124.24622
64,0.525,199.82364,192.71999,1082.32141,305.8157,215.58183,1076.23633,340.73813,124.34234,1125.05139
65,0.533,200.26331,190.52856,1086.39587,306.77341,215.49734,1079.71606,345.48953,122.63895,1126.38379
66,0.542,202.9955,188.06972,1089.45093,308.11432,214.91327,1082.52441,347.03802,122.69385,1128.19458
67,0.55,204.13814,185.57115,1093.75635,309.54147,213.63124,1085.69165,351.52377,120.99951,1129.65112
68,0.558,205.05246,184.43028,1096.54712,309.8396,213.09329,1088.23303,353.06143,121.18276,1131.15442
69,0.567,206.08803,183.90938,1099.56689,311.01218,212.94032,1090.76782,355.90683,119.46554,1131.98682
70,0.575,207.16672,181.74904,1102.28577,311.07971,211.0455,1092.90747,357.80423,117.87811,1132.51807
71,0.583,207.60167,179.89462,1103.77649,311.91751,210.79073,1096.39844,359.4577,118.08859,1132.35828
72,0.592,208.53204,177.74312,1106.77808,312.34061,209.66852,1097.27588,360.25854,117.72762,1132.29553
73,0.6,208.21483,176.20699,1107.58191,312.33539,208.82841,1099.29395,361.9585,115.51317,1132.44934
74,0.608,208.6783,173.70662,1108.43933,312.43204,208.53778,1101.95508,362.88568,114.42613,1133.099
75,0.617,208.43932,172.79694,1109.70789,311.56735,207.12631,1103.51807,363.9198,114.7336,1132.22803
76,0.625,208.50784,171.18079,1110.43457,311.49384,206.4028,1104.06946,363.6445,113.99686,1132.6261
77,0.633,208.37534,170.24075,1111.21265,312.07126,205.403,1104.91516,363.97604,113.9463,1132.98877
78,0.642,208.22606,169.89304,1111.53149,311.8418,204.68176,1105.67261,364.09665,113.26094,1133.823
79,0.65,207.89069,169.72459,1112.16907,311.78668,204.42224,1106.70239,363.79639,113.09911,1133.69971
80,0.658,207.43294,168.0441,1113.29395,311.89655,203.68434,1106.96362,363.52664,112.38523,1133.75916
81,0.667,207.35944,167.84036,1113.17126,311.86539,203.58696,1107.10754,362.961,111.35164,1133.41638
82,0.675,207.39966,167.07143,1113.31531,311.63791,203.01683,1107.52124,362.6384,110.62099,1133.77637
83,0.683,207.27786,167.54721,1112.20313,311.49457,203.02103,1107.55029,362.33929,110.45927,1133.95654
84,0.692,207.20644,167.74934,1111.72351,310.77505,203.1721,1107.69153,362.11606,109.7437,1133.76147
85,0.7,206.97414,168.30684,1110.91711,309.66718,201.87337,1107.57849,362.14291,109.4845,1133.50964
86,0.708,206.14034,168.17412,1110.68274,309.66718,201.87337,1107.57849,361.10394,109.12408,1133.47546
87,0.717,205.74881,168.0144,1110.32654,309.66718,201.87337,1107.57849,359.79385,108.20544,1133.77393
88,0.725,205.43488,168.28256,1109.70422,309.6954,202.20903,1107.27185,359.08591,108.09625,1134.39148
89,0.733,205.42572,168.61862,1109.42395,309.54282,202.04733,1106.97302,358.53625,107.13921,1134.33423
90,0.742,204.55006,169.42307,1108.40735,308.96866,201.59312,1106.30469,358.34677,106.77439,1133.14624
91,0.75,204.01485,169.39932,1108.08826,308.07895,201.4001,1105.34082,357.94821,106.3791,1132.64795
92,0.758,203.02415,171.00151,1106.9209,308.15515,201.44707,1104.93176,356.38654,107.33121,1132.51941
93,0.767,202.69562,171.11647,1105.94946,307.00266,202.17726,1103.75354,355.48218,107.71494,1132.70337
94,0.775,201.66727,171.21523,1104.62427,306.0162,202.9733,1103.20081,353.31778,108.30679,1131.62476
95,0.783,201.61913,171.57826,1102.60388,305.02295,202.42804,1101.48303,352.90298,108.86214,1131.52649
96,0.792,201.1913,172.4994,1101.35754,304.92758,202.51186,1100.13538,351.289,109.00229,1131.24072
97,0.8,199.56973,174.61417,1099.24817,304.72318,203.88173,1098.11938,349.19693,109.66531,1130.76123
98,0.808,198.6133,176.55981,1097.87939,303.52649,205.66725,1097.39661,348.09082,108.56746,1129.50977
99,0.817,198.03795,177.97626,1095.23889,302.35172,205.50691,1094.16357,344.57523,109.1981,1129.16309
100,0.825,196.23401,179.54655,1092.34875,300.89621,207.29736,1092.32397,343.29184,108.10657,1127.89209
101,0.833,195.02872,180.8455,1089.46375,300.63306,207.10634,1089.62219,339.21097,111.37126,1125.94604
102,0.842,193.60674,183.56787,1086.58069,299.1376,208.04753,1085.98291,336.5509,111.53066,1125.88611
103,0.85,191.54951,185.73604,1083.2821,297.19696,209.61383,1083.19263,332.73944,113.63419,1124.09705
104,0.858,190.34843,188.28757,1079.19092,296.78995,210.02347,1079.26697,329.21176,113.39059,1121.93652
105,0.867,188.62593,191.25833,1074.9978,294.69,211.18143,1075.30884,325.44418,115.1902,1120.41016
106,0.875,186.60332,193.42564,1071.10669,292.79932,211.32878,1071.18176,321.5791,116.06294,1118.66516
107,0.883,184.29544,197.18271,1066.86926,290.34348,211.7919,1066.15564,317.55252,118.20908,1117.71021
108,0.892,182.27399,199.11404,1060.99194,288.29626,212.69846,1061.31689,312.36145,120.7794,1115.72107
109,0.9,179.70831,202.21516,1057.00525,285.77557,214.29146,1055.77112,307.04102,122.16945,1113.56531
110,0.908,177.63408,204.86008,1051.78027,284.40021,213.90292,1052.08606,302.0148,123.36402,1112.59155
111,0.917,174.79205,207.32019,1046.25879,281.71634,215.43758,1046.93823,296.29364,126.20451,1110.70874
112,0.925,171.63156,210.40311,1041.49512,278.46335,215.36473,1042.20764,292.04858,127.57515,1109.03113
113,0.933,169.18217,211.94643,1036.32227,275.63406,215.96838,1037.62964,286.13211,129.75523,1106.64636
114,0.942,165.85654,214.64957,1031.10254,273.44214,215.7504,1033.2616,280.61823,131.7016,1104.60083
115,0.95,163.45718,216.77446,1025.24182,269.79269,215.88844,1029.01489,274.66455,134.24287,1101.83325
116,0.958,161.22418,219.10342,1019.95599,266.73453,215.55295,1024.09607,268.94644,137.50851,1100.29932
117,0.967,157.38638,221.26656,1014.95374,263.87915,216.14377,1020.15161,263.3671,138.53314,1097.85706
118,0.975,154.71474,222.52426,1009.43597,260.31281,215.59534,1015.61957,258.18756,140.1033,1094.18567
119,0.983,151.899,226.07782,1004.33539,257.3425,217.03278,1011.72681,253.02699,141.81743,1091.8833
120,0.992,149.64233,227.29564,998.76355,253.28387,216.69064,1006.81805,248.15633,144.44919,1088.75208
121,1,145.52432,227.54132,994.22577,250.87617,216.34581,1002.84949,242.55495,146.26126,1085.06677
122,1.008,141.94185,230.18364,988.91797,247.50996,216.64703,998.87885,237.90514,147.36374,1082.51855
123,1.017,140.09085,231.61934,983.50952,244.00705,215.67665,994.71021,232.33977,150.49464,1079.43079
124,1.025,137.27205,232.99069,979.91962,240.75517,215.81349,990.50153,227.09157,153.63684,1076.06946
125,1.033,134.3625,234.45126,975.927,237.33887,215.85356,987.35986,222.23532,155.5434,1074.56592
126,1.042,132.32913,234.47118,972.12427,234.62769,215.22214,983.83844,217.57445,155.80865,1071.1311
127,1.05,128.97566,236.06497,967.82593,230.99783,215.2928,980.47961,212.62787,158.17415,1068.2605
128,1.058,126.96101,237.01822,964.10876,228.29111,213.0014,976.82056,207.7229,160.32077,1065.65649
129,1.067,124.12891,237.53232,960.10504,225.11507,212.80037,973.47937,202.99695,159.99339,1062.51038
130,1.075,122.12024,238.42857,955.42017,221.00696,211.60175,970.5174,198.86188,162.59683,1059.90417
131,1.083,119.56798,240.38881,952.12531,217.88484,211.15404,967.12787,193.68225,164.11382,1057.92346
132,1.092,116.59226,239.41142,947.75488,215.02026,210.1414,963.47968,189.14264,164.40627,1054.35608
133,1.1,114.11119,240.13942,944.14087,211.56219,208.02274,960.86096,185.74181,165.85764,1052.08032
134,1.108,111.91886,241.96991,941.10376,208.54428,207.39766,958.15887,180.52824,167.14037,1049.29016
135,1.117,109.1745,242.47015,937.88757,206.66003,206.0247,955.6496,175.09706,167.27313,1047.47156
136,1.125,107.08476,242.30823,935.30444,203.0603,204.45042,953.36719,173.00418,169.40909,1044.62451
137,1.133,104.99851,242.88649,932.49048,200.37143,203.31389,951.20319,167.4595,169.33315,1043.57825
138,1.142,103.6293,243.83305,930.61267,197.51254,201.90596,948.86151,163.76707,169.80948,1041.60461
139,1.15,100.61524,244.14207,927.52911,193.67969,201.31424,947.48175,158.54578,168.80905,1039.4668
140,1.158,99.30957,245.37648,925.95587,190.5448,199.73703,946.23041,154.40314,172.27051,1038.48169
141,1.167,96.71491,244.20226,923.18439,187.44142,199.24408,944.59021,149.81833,169.97942,1037.13855
142,1.175,94.9662,244.19038,922.11658,183.90585,197.77805,943.53192,145.72438,171.41422,1034.66614
143,1.183,92.27052,243.69165,920.28802,181.13033,197.11432,942.79688,141.72615,169.68127,1033.83972
144,1.192,90.07275,242.84456,918.28516,178.24043,195.38188,941.46881,137.32845,171.41122,1032.31995
145,1.2,88.64944,242.68971,916.63892,174.54416,194.76518,941.19263,133.12357,169.85419,1031.07874
146,1.208,87.3745,242.23595,914.53882,171.96007,193.66853,940.27393,130.40094,171.41743,1030.52136
147,1.217,83.96976,241.54909,913.78479,169.29922,193.75388,939.08075,126.39893,170.72739,1029.38147
148,1.225,82.72836,241.6004,912.87885,166.61537,192.40224,938.44885,122.41764,171.60852,1028.38562
149,1.233,81.90387,241.6411,911.66479,164.13762,191.59961,937.88782,120.86513,172.50087,1028.04407
150,1.242,80.96904,241.2937,910.54657,161.99625,191.45474,936.70886,116.96364,172.46095,1026.87671
151,1.25,79.26259,241.08223,909.33606,160.07304,189.19919,936.09149,113.89068,171.85806,1026.29602
152,1.258,78.85268,241.10588,908.78381,158.5321,187.77109,935.98499,111.18424,172.35806,1025.36633
153,1.267,77.22923,240.20662,908.22058,156.39517,186.89645,935.25281,108.61507,172.46901,1024.91296
154,1.275,76.99227,241.42371,907.77435,154.73225,185.71867,934.87921,106.01495,171.51682,1023.67694
155,1.283,75.72018,240.98599,907.63763,153.1107,185.41724,935.13074,103.66785,173.4944,1023.70697
156,1.292,75.45378,241.27997,907.29919,150.82146,185.0262,935.03625,99.51891,171.92781,1022.73871
157,1.3,74.41164,241.41887,907.18433,148.90747,184.56114,934.39764,98.3075,171.83299,1022.70538
158,1.308,73.27937,241.50316,907.01361,147.57121,184.47963,934.81818,96.32835,171.97726,1021.43933
159,1.317,72.63911,240.81787,906.86731,145.8423,183.87439,934.75842,92.94862,171.60297,1021.07111
160,1.325,72.15901,240.01836,906.42914,144.85066,183.13594,934.6778,91.41806,171.43327,1020.72205
161,1.333,71.58158,239.28285,906.11041,142.95987,182.96043,934.65155,89.95039,171.55209,1020.13556
162,1.342,71.21999,238.97028,906.35541,141.32831,182.17932,934.83936,88.09637,172.49117,1020.29425
163,1.35,70.81049,238.6445,906.34003,140.26663,181.9839,935.08142,85.51889,172.37352,1020.65082
164,1.358,70.32659,238.55469,906.03772,139.73984,181.81303,935.07837,84.34074,171.22461,1020.07227
165,1.367,68.48932,239.58493,906.65765,138.50032,180.70863,934.90808,83.2428,171.8951,1020.25177
166,1.375,68.16055,239.72647,906.48676,137.2971,180.44325,934.87115,81.01214,172.30815,1019.99243
167,1.383,67.67208,240.05183,906.48969,136.13539,181.08698,935.15002,79.79283,173.21416,1019.88025
168,1.392,67.49557,239.9482,906.3205,135.48744,181.02992,935.2066,79.66496,173.17534,1019.95111
169,1.4,67.49557,239.9482,906.3205,134.95628,180.88383,935.33276,78.59026,173.37724,1019.97437
170,1.408,67.59369,239.67203,905.97107,134.83311,180.5482,935.29755,78.59026,173.37724,1019.97437
171,1.417,67.41931,239.67834,906.00439,134.83311,180.5482,935.29755,77.3046,172.73378,1019.66327
172,1.425,67.20383,239.85347,905.8808,134.71982,180.65338,935.23505,77.3046,172.73378,1019.66327
173,1.433,66.88393,239.13142,905.67102,134.92194,180.8918,935.40143,78.5191,173.53395,1019.8446
174,1.442,67.40735,238.75221,905.45386,135.3069,181.13106,935.10834,79.24371,173.34656,1019.66791
175,1.45,67.68539,239.07806,905.20062,136.02388,181.3799,935.07611,79.79283,173.21416,1019.88025
176,1.458,68.01664,238.82753,905.26855,137.46176,180.71861,934.7724,80.13083,173.491,1019.49768
177,1.467,69.65324,238.78767,904.95575,139.28125,181.41495,935.03125,82.95707,172.63719,1019.64282
178,1.475,70.65669,238.82616,904.77753,140.07533,182.4863,934.95483,85.67667,174.66389,1020.35339
179,1.483,71.27579,238.84227,904.41577,141.47223,182.89763,934.56726,86.87371,174.43927,1020.07129
180,1.492,72.16386,239.52673,904.76678,144.32375,183.00684,934.60803,88.91225,174.16479,1020.19495
181,1.5,73.17892,240.45844,904.73407,146.50154,184.0598,934.67627,93.57085,174.45753,1021.38055
182,1.508,74.70619,240.90012,904.21124,148.83014,184.55138,935.52148,95.29964,174.44897,1022.43011
183,1.517,76.72974,240.51411,904.79706,151.5685,185.12453,936.0365,99.57477,175.13208,1024.27881
184,1.525,77.55955,241.45442,904.94958,154.40063,186.43695,936.21173,103.26282,175.20827,1025.00317
185,1.533,81.08699,242.15591,906.28766,158.14212,187.19202,937.49866,107.96368,175.22246,1025.54565
186,1.542,81.91298,241.93716,907.31433,160.7141,189.25964,938.65057,111.40394,175.57568,1028.11292
187,1.55,83.21187,241.47607,908.26221,164.36917,190.83907,939.15887,117.4162,176.92543,1028.5459
188,1.558,85.27521,241.03247,909.14758,168.26645,192.1295,940.5293,121.87104,175.76672,1029.81641
189,1.567,88.45689,241.63435,911.73828,172.58984,193.66391,941.0752,126.74758,175.19501,1031.23486
190,1.575,90.32604,242.32256,913.487,176.8399,194.21033,942.93915,132.22871,175.57689,1033.81848
191,1.583,93.82529,240.71556,915.23419,180.9679,196.07828,945.08325,137.32227,174.16103,1035.99963
192,1.592,96.47163,240.7229,918.02527,186.0367,198.8186,945.88745,143.58815,174.59264,1037.63379
193,1.6,98.60773,240.83211,920.125,189.7637,199.77711,947.18585,149.0845,174.76437,1038.85864
194,1.608,101.88285,240.61151,923.11987,194.11336,201.07722,949.50482,154.53458,172.8019,1039.66943
195,1.617,104.80651,241.94853,926.27112,198.6826,202.84064,951.31268,160.67914,172.70786,1042.6864
196,1.625,108.23177,239.08873,929.21729,202.87506,204.30269,953.4007,166.75775,170.13234,1044.3866
197,1.633,110.55813,240.15714,932.0127,207.94066,207.24458,955.32581,173.19904,168.40097,1046.30774
198,1.642,114.33538,239.50352,936.16681,211.41287,207.33649,958.16742,179.41812,165.8847,1048.42676
199,1.65,116.96838,238.38144,938.84393,216.10303,208.92761,960.09497,185.7681,164.96722,1050.5459
200,1.658,121.34702,238.59689,943.26135,220.51331,211.38861,962.96283,192.15771,162.95422,1052.99475
