Frame#,Time,L.Forearm.x,L.Forearm.y,L.Forearm.z,L.Ulna.x,L.Ulna.y,L.Ulna.z,L.Radius.x,L.Radius.y,L.Radius.z
1,0,-1033.47595,280.27881,905.01947,-1055.42456,340.00519,828.4895,-1002.34576,281.28369,791.66388
2,0.008,-1025.40576,279.38953,907.21393,-1048.19739,340.21045,829.3186,-994.41266,279.81625,792.83374
3,0.017,-1020.94666,279.70529,907.00616,-1041.68115,338.92349,829.3656,-986.73767,278.55319,794.42993
4,0.025,-1014.97729,278.29239,908.76062,-1034.4552,338.97943,830.34021,-979.06146,278.6889,795.96954
5,0.033,-1007.03857,279.11966,908.00238,-1027.9834,339.47232,830.57367,-973.91058,279.32571,795.66699
6,0.042,-1000.31122,279.77164,908.25854,-1021.1618,339.47473,830.23059,-967.55591,276.93304,795.73871
7,0.05,-994.70306,280.97162,907.97595,-1014.3147,338.26132,829.9256,-961.05908,277.89618,795.98755
8,0.058,-987.71173,280.2449,907.12817,-1007.89807,337.39972,829.84143,-952.82635,278.86465,795.61603
9,0.067,-982.93634,277.91516,907.73151,-1001.24261,337.25766,829.01642,-947.24341,276.54733,795.25739
10,0.075,-977.71429,275.48795,907.3562,-995.29028,337.19193,828.46448,-940.862,275.64053,795.35059
11,0.083,-971.19275,275.25052,907.2453,-988.15686,336.54736,827.62085,-934.41077,275.48929,795.33331
12,0.092,-963.81836,277.87955,905.55438,-982.23029,335.65637,827.13226,-927.43268,275.90814,795.03845
13,0.1,-957.98004,277.47949,905.86261,-976.06714,335.11011,826.65948,-923.30286,273.39041,794.45569
14,0.108,-953.59705,275.39548,903.58337,-969.3092,335.06082,826.32355,-917.36932,274.56079,794.09369
15,0.117,-947.57605,272.73434,903.82684,-963.18768,333.0748,825.03986,-911.11084,272.47769,793.67523
16,0.125,-942.20099,270.6879,903.4375,-958.33441,332.46457,824.00519,-904.86713,270.74219,790.81335
17,0.133,-936.02228,269.672,902.15778,-952.17542,331.44656,822.90051,-898.23401,271.75961,790.0683
18,0.142,-931.08099,270.2934,899.96869,-947.13947,331.25208,822.4798,-894.59351,269.80762,789.73029
19,0.15,-925.42072,270.29282,899.85052,-940.80902,330.69604,821.30066,-887.91974,269.73416,788.99731
20,0.158,-920.56134,268.21561,899.76379,-936.72205,331.16199,820.73907,-882.91479,267.85751,788.30835
21,0.167,-913.83716,268.54739,899.49365,-930.61536,328.62799,820.18365,-875.44702,269.74683,788.55121
22,0.175,-909.86932,264.6051,897.45319,-925.28967,327.94949,820.18591,-873.23926,265.82227,787.54938
23,0.183,-904.41461,265.02905,897.35443,-919.42139,327.34348,819.83978,-866.66907,265.16656,787.21393
24,0.192,-898.52423,265.78809,897.12451,-914.17584,326.78482,819.36249,-862.91248,264.94919,786.59894
25,0.2,-892.69568,263.19818,896.9129,-909.89868,324.91272,819.52222,-856.88342,266.06503,787.43506
26,0.208,-888.711,261.89645,896.32458,-906.18591,324.17749,818.8725,-851.9682,260.61298,785.19293
27,0.217,-883.77228,261.49377,895.14368,-901.08417,323.35721,818.599,-847.54846,261.25787,784.2572
28,0.225,-877.5755,260.37891,895.0033,-895.50653,322.92786,818.34064,-843.67651,260.57861,783.76349
29,0.233,-873.08868,257.5296,893.4715,-890.33057,320.93741,816.28418,-839.43689,259.51755,783.22107
30,0.242,-869.26788,258.35529,895.09357,-884.5614,318.9079,815.50427,-832.41608,261.25317,782.95807
31,0.25,-862.1073,260.40695,895.13654,-883.38806,319.42957,816.93622,-828.94495,257.92825,781.71887
32,0.258,-858.41174,259.12961,895.12488,-877.51648,318.94321,815.63696,-824.13043,258.58286,781.22095
33,0.267,-853.21588,258.07941,892.29773,-872.73743,316.76236,815.16437,-821.50677,257.63562,780.23566
34,0.275,-848.11456,255.84505,893.46796,-869.75494,316.6283,815.19739,-816.09094,257.39001,781.05701
35,0.283,-843.51556,255.55545,892.42725,-866.26941,315.54526,815.51202,-811.18652,254.53732,780.30261
36,0.292,-837.81824,255.44269,892.67822,-860.79865,315.401,815.65558,-806.29968,254.96036,780.00879
37,0.3,-835.26001,253.92131,891.92548,-857.36255,314.88559,813.40399,-803.87054,255.35385,779.82532
38,0.308,-830.7326,251.00233,892.31677,-853.01001,314.23514,814.27289,-798.29614,255.67574,779.3205
39,0.317,-824.02692,252.26318,893.31488,-848.46625,312.56027,814.33673,-793.73737,254.99948,779.25
40,0.325,-819.54712,253.22072,893.32635,-842.75732,311.65247,814.07715,-791.35376,252.5912,776.57184
41,0.333,-816.4375,251.0681,893.45227,-841.74634,311.29834,815.10535,-786.69672,252.03516,777.91162
42,0.342,-811.60339,249.71353,893.0769,-836.58057,311.20743,815.16266,-782.12952,252.52487,777.82861
43,0.35,-807.72528,249.29831,894.35883,-832.12604,310.47604,815.43695,-779.71851,252.80972,778.22473
44,0.358,-801.54395,249.86368,894.31586,-829.09821,310.61954,815.83972,-774.90588,252.32466,777.90601
45,0.367,-797.52094,250.13393,894.15625,-825.2124,308.93872,816.35675,-771.86945,250.8943,779.75787
46,0.375,-791.66547,249.54123,893.59662,-820.94312,309.39111,816.4986,-767.31799,253.37677,778.52704
47,0.383,-788.65356,249.49889,893.6203,-817.17419,309.55753,816.8916,-761.59467,250.51352,779.46198
48,0.392,-782.84448,251.88544,895.00427,-812.32056,309.31387,817.14435,-759.23163,249.38232,779.53644
49,0.4,-779.36969,249.5475,895.617,-808.27753,309.66898,816.9812,-755.50299,249.84152,779.59558
50,0.408,-777.11591,246.49565,893.67401,-805.2749,309.55936,817.25488,-751.22052,251.21288,778.51978
51,0.417,-773.39697,247.71268,894.04449,-799.75287,309.54822,817.13483,-748.06934,251.55635,778.77838
52,0.425,-768.586,247.56717,894.11511,-795.87811,308.71722,817.69788,-742.84857,252.64091,779.74567
53,0.433,-761.01782,250.13821,894.22327,-792.30585,309.20227,818.69135,-739.22589,252.44005,778.44482
54,0.442,-758.00983,248.45309,894.10529,-787.26831,308.91537,818.18048,-735.40649,251.48795,778.49786
55,0.45,-755.46002,248.06052,894.31122,-784.06921,309.37543,817.94232,-729.06531,253.54823,779.263
56,0.458,-747.95453,251.20773,894.94476,-779.02716,309.58109,818.35931,-726.35516,253.71877,779.12915
57,0.467,-743.38062,250.4792,894.04102,-774.13745,310.03806,818.22882,-722.51727,251.25288,777.87457
58,0.475,-739.8634,247.24988,892.92114,-770.67078,310.59848,818.33069,-717.76208,251.49638,777.68805
59,0.483,-735.5368,247.69594,892.54358,-765.41693,311.38907,818.16254,-713.48602,253.01041,777.93848
60,0.492,-729.7724,248.71529,892.50592,-760.56519,310.98199,818.21497,-709.12695,252.07413,777.5376
61,0.5,-723.79828,249.7209,892.72668,-754.80096,311.21799,818.22327,-704.40356,253.23875,777.70337
62,0.508,-718.92114,249.78716,893.12213,-750.80951,311.91708,817.47687,-698.65833,254.93127,777.27576
63,0.517,-714.71863,250.73149,893.28223,-746.68701,312.11139,818.31555,-693.96606,256.09937,775.96222
64,0.525,-710.09381,252.63292,892.48242,-740.80908,312.40784,818.38873,-688.23718,255.94,775.30005
65,0.533,-704.30615,252.53008,892.10175,-734.59967,312.80298,816.97729,-685.17993,256.13052,774.92352
66,0.542,-697.86652,253.99258,891.58813,-730.34338,313.06146,816.46875,-679.78632,258.21152,775.57587
67,0.55,-694.04797,252.83846,890.34277,-724.92816,313.56149,815.64166,-675.7735,257.96353,775.32428
68,0.558,-686.89777,254.07204,890.52478,-720.50983,314.39667,815.4118,-668.16949,260.01389,775.50537
69,0.567,-682.97693,254.67255,889.47015,-714.93073,314.95807,814.32977,-663.64691,258.67651,773.39111
70,0.575,-677.30615,254.92186,888.21735,-708.49969,316.18335,813.82947,-659.30878,258.49731,771.28204
71,0.583,-670.79889,256.31143,887.58752,-703.88934,317.42838,813.13702,-652.65051,259.57922,770.32233
72,0.592,-664.50482,256.57458,887.7804,-698.80536,317.845,811.99524,-647.9953,258.51245,769.77704
73,0.6,-658.9422,257.31204,885.39404,-692.97247,317.77533,810.48877,-641.00751,262.3259,768.91119
74,0.608,-652.24884,258.77832,883.10327,-688.05792,319.67325,809.79224,-636.08881,262.09396,767.61047
75,0.617,-647.63007,258.22092,882.91766,-681.26099,321.20132,808.06927,-630.45734,263.20224,766.92773
76,0.625,-639.7937,260.0329,882.12592,-675.15698,321.71783,806.94641,-624.16882,264.41992,763.54858
77,0.633,-633.79901,261.77194,880.30554,-669.30035,322.81946,805.45435,-618.31897,263.89471,761.81812
78,0.642,-625.95264,264.43219,880.008,-662.69617,322.05423,804.48767,-611.66479,266.755,761.62134
79,0.65,-619.72552,263.89261,879.03998,-656.32538,323.41382,803.75781,-606.84631,266.68823,761.47198
80,0.658,-615.19604,263.50046,876.9173,-650.28265,324.35391,802.7135,-598.33734,270.6235,760.81531
81,0.667,-607.79681,264.72543,875.66144,-643.84875,324.03464,802.18011,-593.90247,268.13879,759.5058
82,0.675,-601.74261,263.25394,875.36487,-636.88391,324.32434,803.12933,-588.14911,265.65942,757.90961
83,0.683,-595.28503,264.91122,876.27771,-630.83899,325.64325,803.05963,-580.80566,270.21106,758.84143
84,0.692,-590.04144,265.32443,876.48157,-623.73346,326.37802,802.91321,-574.83478,269.20258,759.12866
85,0.7,-578.70459,266.92987,877.43744,-616.83398,327.31537,802.89026,-566.11053,271.04044,758.91028
86,0.708,-572.30652,266.55179,875.86401,-610.41864,328.1683,803.07159,-560.91718,271.1778,758.828
87,0.717,-567.00885,265.63904,876.39758,-602.87994,328.04266,803.15955,-552.9776,272.81512,759.56061
88,0.725,-559.93005,265.11694,876.75555,-596.2417,327.30301,802.92358,-547.10071,271.52081,758.57941
89,0.733,-553.79413,266.35239,877.30475,-589.86328,328.35904,803.6413,-541.09772,272.86871,759.55298
90,0.742,-546.6087,268.36395,877.13202,-582.59521,329.43872,804.30151,-533.68591,270.5889,758.87286
91,0.75,-538.38605,267.31097,877.44537,-574.36188,329.89621,804.12909,-527.71436,271.38739,759.88654
92,0.758,-531.13647,269.59921,877.42908,-567.52185,331.08762,804.79974,-518.28766,274.57977,760.15009
93,0.767,-523.82001,271.52347,877.44592,-560.04272,331.56271,805.32758,-511.45544,273.05707,760.26172
94,0.775,-517.60797,269.38834,878.39093,-552.47742,332.03952,805.79956,-504.38068,275.85199,760.86102
95,0.783,-509.65051,271.04105,880.26691,-545.82184,332.19714,805.59656,-499.87259,275.50385,761.35266
96,0.792,-502.57147,271.29205,880.71936,-538.01642,331.97772,806.6817,-489.5607,274.61981,762.09485
97,0.8,-495.19986,271.25232,880.43799,-529.29749,332.87384,807.28967,-483.10245,273.22232,760.95776
98,0.808,-490.43738,271.62903,880.97009,-522.31897,333.28244,808.22028,-475.72897,275.09641,762.15894
99,0.817,-481.59161,271.27249,881.32745,-515.38287,334.33017,809.14813,-467.67664,275.76187,763.40704
100,0.825,-474.42847,270.14194,882.16486,-506.77011,334.53943,809.64398,-460.15762,273.95419,764.96954
101,0.833,-467.7215,271.45474,884.59521,-498.35834,333.98331,810.34491,-452.72293,274.70703,765.77502
102,0.842,-462.58063,271.4147,885.13818,-490.98074,333.93658,810.95111,-446.71402,273.62109,766.90308
103,0.85,-452.62332,272.15991,886.41089,-483.91742,334.67014,812.12305,-437.70255,275.16373,767.53998
104,0.858,-446.86945,270.59879,886.1496,-476.49362,335.67538,812.89825,-430.71729,275.21445,769.49652
105,0.867,-437.70816,271.59662,887.90387,-467.11096,336.04715,814.49347,-422.49966,276.09497,772.23291
106,0.875,-433.83502,271.80493,887.98376,-460.28909,335.50604,814.83734,-414.68555,274.78146,772.2558
107,0.883,-425.01685,271.20947,888.89819,-452.77145,335.07932,815.33881,-407.99725,275.22717,773.013
108,0.892,-417.85184,270.81027,890.6601,-444.98004,335.65109,816.1817,-399.70483,274.68723,773.86969
109,0.9,-412.87793,270.37723,891.96326,-437.68851,336.98917,817.05017,-391.81601,275.68256,774.75494
110,0.908,-404.32169,271.21225,893.71899,-430.87839,335.86606,818.27551,-384.98337,275.24146,776.92596
111,0.917,-398.81421,272.513,894.48419,-423.84103,335.39529,819.24048,-376.12027,276.6825,777.67383
112,0.925,-390.80368,271.42386,895.23682,-415.94571,335.42969,819.91931,-369.52356,273.3743,778.466
113,0.933,-382.6907,270.81952,895.7627,-408.25375,336.02499,821.08704,-360.67374,275.1601,779.21533
114,0.942,-377.3479,271.55518,895.95563,-401.47006,336.02652,821.02393,-354.4949,274.68802,780.05493
115,0.95,-369.97232,271.19696,897.64862,-393.93433,335.33972,821.35522,-346.82263,273.52414,781.13916
116,0.958,-361.78778,272.50446,898.71027,-385.5032,336.34668,821.23254,-338.55917,274.27365,781.32361
117,0.967,-356.08905,272.61432,897.83185,-379.44223,334.90665,821.87457,-330.48016,272.40775,782.88226
118,0.975,-350.58655,269.43692,897.93079,-372.81485,334.93753,822.62549,-324.1102,274.64371,783.68201
119,0.983,-343.33649,271.95297,898.72791,-365.52695,333.24579,822.27856,-316.72742,270.30389,783.67822
120,0.992,-337.14999,270.41354,898.14111,-358.36072,333.77246,822.8269,-309.22894,272.39728,784.01074
121,1,-329.56616,269.58636,898.11584,-350.36905,333.82556,822.62311,-302.30573,271.54932,784.47095
122,1.008,-324.11035,268.85434,898.48822,-344.00732,333.14304,822.34357,-296.0607,271.07294,784.28168
123,1.017,-316.08978,270.07233,899.26727,-337.96121,331.92188,821.61426,-288.255,270.04825,784.49493
124,1.025,-309.94601,270.47195,898.77173,-330.91629,331.29471,822.03711,-279.87503,272.59171,784.94623
125,1.033,-302.74164,267.7088,897.40417,-325.26715,330.52811,821.18384,-273.13376,271.56006,784.63849
126,1.042,-296.32443,268.84671,897.64594,-317.61057,329.63046,820.08179,-268.00516,268.57724,785.12579
127,1.05,-290.83487,268.31781,896.75861,-310.83917,329.53738,820.20154,-260.71545,268.95715,784.31775
128,1.058,-285.461,265.9101,896.82599,-303.9646,328.31659,819.51605,-253.66296,265.64557,784.43579
129,1.067,-277.61462,265.01712,895.04657,-299.24973,326.93872,818.45483,-247.64478,267.67142,784.04584
130,1.075,-271.94058,264.45987,894.53278,-292.42975,326.61758,818.19574,-242.38559,265.81781,783.64209
131,1.083,-265.94324,264.1991,894.71802,-285.44513,326.04199,818.03967,-234.24165,265.36417,782.99774
132,1.092,-261.2728,263.61621,894.83057,-279.48981,323.94278,816.66119,-228.85109,263.5769,781.77765
133,1.1,-256.04581,261.87189,893.76862,-274.36557,323.93839,816.70239,-223.1091,264.54633,781.4837
134,1.108,-247.92059,260.3024,893.3092,-269.29861,323.52716,816.58337,-216.86755,261.52048,781.63477
135,1.117,-243.04932,259.43839,892.89185,-262.86188,320.733,816.70929,-210.84923,263.54776,780.211
136,1.125,-236.67809,257.97171,893.46967,-257.43671,321.35495,817.03979,-205.35551,261.21515,779.66962
137,1.133,-232.06224,257.37921,893.20856,-251.68172,319.9342,816.90918,-199.92789,258.11633,780.12286
138,1.142,-226.48593,255.01862,892.79578,-246.13487,318.34879,815.91101,-195.21175,258.42126,780.02179
139,1.15,-219.73894,254.81508,893.57471,-241.73732,317.19809,816.48096,-190.23596,257.34082,779.43127
140,1.158,-213.4409,253.84323,893.51733,-237.32925,315.45261,816.63037,-185.57516,255.24817,779.38959
141,1.167,-208.18166,253.26923,893.67981,-231.77504,314.94348,816.95117,-181.27921,253.63805,779.29773
142,1.175,-203.39514,250.93347,893.28546,-227.36652,313.51636,816.69202,-175.61023,254.32475,779.19794
143,1.183,-198.62747,250.48759,892.95435,-222.36232,312.41693,816.16119,-171.45905,251.60838,778.20483
144,1.192,-193.16644,249.78207,891.95251,-216.56602,311.05115,816.26587,-165.85548,251.53976,776.78192
145,1.2,-187.67993,247.60109,891.9024,-212.01495,311.29813,816.06805,-160.86993,251.64139,776.52972
146,1.208,-184.42104,246.78154,891.73914,-206.79474,310.13031,815.20776,-157.06418,248.06702,775.56097
147,1.217,-178.58435,246.12636,891.17383,-202.33899,307.84308,814.44617,-152.43797,247.91232,775.38733
148,1.225,-173.08133,245.64294,890.39709,-198.13757,307.96533,813.55792,-147.63239,248.95769,775.59985
149,1.233,-168.56985,245.69049,889.67542,-194.00183,306.70743,813.16565,-142.35732,247.08136,773.27686
150,1.242,-163.30515,244.20987,888.57074,-188.22183,305.93011,812.73761,-138.96269,245.19095,772.51868
151,1.25,-158.49355,244.6694,888.30884,-184.90486,304.78909,811.95184,-133.21292,246.6956,772.18665
152,1.258,-153.76283,242.94655,887.59827,-179.49387,304.78397,811.21228,-129.57608,245.54036,772.37463
153,1.267,-148.12431,243.18855,887.04059,-175.51271,304.18884,810.53278,-126.21323,243.11406,770.82422
154,1.275,-145.33603,242.00861,887.4975,-171.39128,302.80951,810.18188,-121.58631,244.71779,770.94513
155,1.283,-139.9993,239.43466,887.01379,-166.02101,302.23654,810.50574,-116.89902,242.87212,770.22693
156,1.292,-135.33566,239.98315,886.96594,-161.89319,302.23529,810.75958,-113.85867,243.20663,769.84625
157,1.3,-130.62379,239.68588,886.91248,-159.32422,302.62848,810.95697,-110.40862,242.92274,770.07007
158,1.308,-126.44863,237.48705,887.659,-154.64902,302.49286,810.98352,-104.91785,241.59825,770.20776
159,1.317,-121.10955,238.73126,887.25146,-150.72345,299.92804,811.19843,-100.80003,240.9341,770.35571
160,1.325,-118.27641,238.50298,887.37329,-146.82048,300.19128,811.88904,-96.82918,243.17009,770.2713
161,1.333,-114.39448,237.87331,886.96472,-142.49617,300.9129,812.44757,-92.9015,242.69649,770.44061
162,1.342,-108.79588,237.48877,887.26837,-138.99426,300.36649,812.91418,-89.52057,241.37666,770.42938
163,1.35,-104.73929,237.5719,888.46558,-135.88293,300.22906,813.66919,-84.83523,241.29573,770.50635
164,1.358,-99.65691,239.11394,888.95587,-131.17139,300.14676,814.02692,-81.74149,241.53999,771.94922
165,1.367,-96.18348,238.7298,889.02478,-126.9103,300.22568,814.33972,-75.99371,243.48645,773.3396
166,1.375,-90.57201,238.59586,890.7511,-122.3619,300.18707,814.58356,-72.05247,242.20297,773.06213
167,1.383,-85.30144,240.39275,890.71814,-117.5442,300.17267,814.50092,-68.04128,242.6629,773.75885
168,1.392,-80.3186,241.76274,891.1488,-114.66199,301.75684,814.82849,-62.83175,244.47467,774.12933
169,1.4,-75.06416,241.30168,890.50232,-110.22203,301.9183,815.29602,-58.34508,242.70676,773.7475
170,1.408,-71.90926,241.15195,891.46051,-105.13401,300.72903,815.64563,-52.77171,243.52151,774.11627
171,1.417,-67.18998,242.33865,891.63708,-100.56963,301.03015,815.48657,-49.90965,243.95526,774.40253
172,1.425,-62.79947,241.47762,891.49835,-95.77428,301.63928,815.91602,-44.19863,244.70934,774.5542
173,1.433,-56.39288,242.06276,891.64709,-90.94657,300.88327,815.94525,-40.27781,243.354,774.69904
174,1.442,-52.47696,241.47659,891.05811,-85.66837,301.43927,817.021,-34.23148,245.33444,774.08362
175,1.45,-46.1553,243.12506,890.55566,-80.72603,302.44125,816.26953,-30.23522,245.39261,773.61597
176,1.458,-41.02376,240.33693,890.17914,-75.887,303.42496,816.12885,-24.14831,245.29936,773.66315
177,1.467,-35.30899,243.30312,889.97278,-70.51196,304.4447,815.70703,-20.2615,244.73499,773.30499
178,1.475,-30.09578,243.69044,890.69049,-64.23203,304.44003,815.64514,-13.33981,245.54929,772.7558
179,1.483,-24.87917,242.35626,889.47845,-58.83252,305.16055,814.98859,-8.50246,246.61789,772.3288
180,1.492,-19.22344,244.89357,888.66321,-52.07734,305.81296,814.04413,-3.12068,247.7215,770.86499
181,1.5,-14.02631,244.80606,888.14594,-48.00772,305.01569,813.66486,1.99628,249.27936,770.91943
182,1.508,-7.02559,245.36287,887.5921,-42.11609,306.20706,813.80585,7.48972,250.03378,769.97205
183,1.517,-1.47135,246.13264,886.04999,-36.07172,308.17157,813.0907,14.90308,249.0457,768.65149
184,1.525,4.65582,245.96654,884.58746,-30.15278,307.48779,811.28723,19.32705,249.74231,768.35309
185,1.533,10.47738,248.96869,884.15228,-23.88592,308.94064,810.21906,25.88902,251.51691,767.39093
186,1.542,17.03185,248.45576,882.73431,-17.16528,310.93893,809.39154,32.86263,251.52863,765.77692
187,1.55,23.13201,249.02925,881.90442,-11.74087,309.91495,808.05359,38.11984,250.88367,765.19373
188,1.558,29.80539,250.20213,881.22821,-4.52202,310.65479,807.14758,43.84941,253.64922,764.02972
189,1.567,36.33246,251.64326,879.57501,2.25162,311.34448,804.66034,52.22724,253.64984,761.92041
190,1.575,43.16711,250.39232,878.73267,8.10245,313.05249,804.2088,59.15551,255.4529,760.64441
191,1.583,50.2827,251.80215,878.40314,15.65225,313.24124,803.4566,64.75024,255.28178,759.10522
192,1.592,56.73714,252.74501,877.68646,21.16789,313.18735,803.47095,71.52867,256.11392,758.79102
193,1.6,64.26973,254.45311,876.83148,29.03661,313.93839,802.56635,78.70405,257.17822,758.02075
194,1.608,70.07733,253.18605,875.80865,35.36483,314.17542,802.25647,84.72431,256.53403,757.7049
195,1.617,77.48185,254.34766,875.75085,42.52965,314.98172,802.15198,92.00861,257.47409,757.36371
196,1.625,84.76576,254.10886,875.64215,50.00499,316.17078,801.9256,98.63132,256.90186,756.81226
197,1.633,91.6234,254.08131,875.94446,56.95777,316.35693,801.96613,105.90147,258.76413,758.19293
