Frame#,Time,L.Forearm.x,L.Forearm.y,L.Forearm.z,L.Ulna.x,L.Ulna.y,L.Ulna.z,L.Radius.x,L.Radius.y,L.Radius.z
1,0,274.69992,269.4379,994.12836,237.56522,303.18738,909.18054,321.13379,295.99609,850.76965
2,0.008,274.69992,269.4379,994.12836,237.38193,303.23706,909.17169,320.11746,297.07028,850.84137
3,0.017,274.28329,269.55331,993.94501,237.00879,302.95605,908.84363,320.04929,297.37918,850.75574
4,0.025,274.22018,269.41589,993.46411,236.29063,303.25732,908.97284,319.26297,298.31857,850.1579
5,0.033,273.94254,269.56812,993.54425,236.13052,303.30295,908.96252,318.81577,298.61057,850.00879
6,0.042,273.70593,269.96368,993.50165,235.44203,303.61658,908.78766,318.2644,298.37946,849.70636
7,0.05,272.41827,270.3295,993.79449,235.1315,303.69971,908.896,318.33917,298.7059,848.84937
8,0.058,271.58191,269.65106,993.65405,234.39836,304.06967,909.01868,316.68643,297.58691,849.21692
9,0.067,271.29828,269.79773,993.00989,234.28505,304.14972,908.95605,315.83832,296.80225,848.79132
10,0.075,271.21478,269.76648,992.85706,234.28505,304.14972,908.95605,315.25626,297.02969,848.53088
11,0.083,270.92502,269.72064,992.63275,234.28505,304.14972,908.95605,314.96173,296.46078,848.36072
12,0.092,271.03665,269.63263,992.4931,233.90851,304.04221,909.2605,314.42044,294.86612,848.18445
13,0.1,270.63879,269.21774,992.6297,233.33813,303.74692,909.30164,314.22144,294.42514,847.44025
14,0.108,270.40616,269.06039,991.4184,233.12144,303.74411,909.1709,313.81046,294.42984,846.88177
15,0.117,270.1506,268.79901,991.36896,232.45668,304.38937,909.349,312.87967,293.63654,846.07654
16,0.125,269.75397,268.47452,990.33972,232.34157,303.7457,909.06439,312.60776,293.70917,846.08783
17,0.133,269.28351,268.14438,989.68451,231.74583,304.41681,908.48535,311.60666,293.14328,845.82361
18,0.142,269.1846,268.22766,989.6272,231.07684,303.8638,908.60046,311.1774,292.77066,844.63654
19,0.15,268.81006,268.15063,989.46417,230.48268,303.49634,908.37701,309.77835,291.32947,844.50116
20,0.158,268.81006,268.15063,989.46417,229.85583,303.61627,908.43121,309.77835,291.32947,844.50116
21,0.167,268.40125,268.26077,989.25452,229.65099,303.6424,908.45581,309.27231,292.16684,844.42767
22,0.175,268.34531,268.34293,989.17963,229.3559,303.86426,908.17334,308.80621,291.07397,844.46436
23,0.183,268.36737,268.18167,988.81531,229.0833,303.11649,908.0462,308.52069,291.52866,844.29919
24,0.192,268.20712,268.24017,988.81519,228.71046,303.04276,907.71729,308.3999,290.52179,844.23395
25,0.2,268.06662,268.46301,988.78247,229.03503,302.50156,907.68781,308.3999,290.52179,844.23395
26,0.208,267.89819,268.53058,988.59668,229.0106,302.18732,907.31891,308.97177,290.74246,844.14795
27,0.217,268.06662,268.46301,988.78247,229.02934,301.94617,906.92566,309.7438,291.59085,844.27893
28,0.225,268.04025,268.41449,988.85291,228.83577,301.66714,906.47156,310.3241,292.18619,844.37866
29,0.233,268.18079,268.19165,988.88556,228.75322,301.44714,906.58105,309.58368,293.80875,844.34698
30,0.242,268.06662,268.46301,988.78247,228.80807,300.85059,906.38007,310.88593,295.01129,844.96368
31,0.25,268.06613,268.60895,988.89648,228.51337,300.8204,906.17468,310.47623,297.10217,844.9184
32,0.258,268.27185,268.76825,988.63544,228.7438,300.16052,905.82715,311.61224,299.22519,844.49249
33,0.267,268.54626,269.62808,988.81738,228.23222,299.0788,905.24225,312.30463,300.98981,844.2337
34,0.275,268.23328,270.33466,988.80322,228.15607,299.1102,905.30627,311.41943,302.18689,843.95081
35,0.283,268.95148,270.83118,989.07324,228.15607,299.1102,905.30627,310.9743,302.62106,843.31439
36,0.292,269.52786,271.55658,989.14056,227.70125,300.73343,906.13977,311.40076,301.90381,843.33685
37,0.3,271.0379,271.83084,989.32904,228.42191,300.59827,906.1394,310.72626,301.23575,842.83575
38,0.308,272.1004,270.68628,989.32086,228.53813,301.75269,907.05261,310.27222,300.24667,842.67548
39,0.317,273.70667,270.09937,989.67383,229.29846,301.82309,908.11475,310.06577,300.31213,842.41296
40,0.325,273.63004,269.67615,989.62347,229.53262,302.08469,908.75531,309.23944,301.27786,842.29877
41,0.333,274.00439,269.17645,990.14185,229.60901,303.0499,909.82587,308.8605,302.11804,842.88098
42,0.342,273.52777,269.0033,990.2514,229.1283,304.03574,910.71344,308.27182,303.31696,843.65948
43,0.35,273.51868,269.71555,991.14478,229.84079,305.79938,911.18091,307.03986,304.00562,843.83405
44,0.358,273.34381,270.05972,991.80219,229.19627,308.17416,912.323,307.05853,304.67181,844.08362
45,0.367,271.86816,271.07184,992.5025,228.51184,308.51566,912.64844,305.33334,304.09293,844.83673
46,0.375,271.29593,271.61679,993.18036,228.5601,309.22964,913.15948,305.41867,304.76434,844.9892
47,0.383,270.8288,272.08096,993.73584,227.68329,310.03659,913.75201,304.78574,305.5444,846.63782
48,0.392,270.35849,273.18146,994.48999,226.88571,311.20319,915.63385,304.18771,306.62473,847.36871
49,0.4,270.01593,273.48541,994.6712,225.90331,311.74442,916.60425,303.75732,307.12662,847.89716
50,0.408,270.12585,273.50916,995.34283,225.28937,312.84296,917.56445,303.74246,309.3981,849.44434
51,0.417,269.8667,273.75266,996.08203,225.25987,313.33142,917.66907,302.81097,309.8331,849.97864
52,0.425,268.45575,275.23438,996.70587,225.05585,314.36313,918.17596,302.11356,310.9859,850.78235
53,0.433,267.52823,276.27377,998.13788,224.84477,314.60812,918.97552,301.93655,312.5687,851.39581
54,0.442,268.58145,276.94876,998.53638,224.04205,315.42996,919.43103,301.67337,314.4679,852.22803
55,0.45,268.06711,277.56625,998.68097,223.49332,315.91376,919.66479,301.93268,315.48016,852.81274
56,0.458,267.85226,278.05148,998.84619,222.57829,316.53586,920.55206,300.93469,316.39099,853.39777
57,0.467,266.13513,279.11618,999.44122,222.40129,317.96616,920.87384,300.6933,317.97629,854.01221
58,0.475,266.41959,279.29187,999.63562,222.60109,318.48672,921.02155,300.1716,319.32947,854.30731
59,0.483,266.12241,279.35675,999.89819,222.42673,318.64349,921.15039,299.92709,320.36172,854.95862
60,0.492,265.40683,279.93143,1000.05731,221.58546,320.18674,921.11395,299.80292,320.80215,855.52985
61,0.5,265.16843,280.03632,1000.30768,221.20804,320.68912,921.23828,298.96143,322.0788,855.69641
62,0.508,264.52304,280.54477,1000.03003,220.976,320.69385,921.12408,299.29788,322.82422,855.70105
63,0.517,264.30618,280.85056,1000.36896,220.37305,320.55579,921.15009,299.09348,323.4267,856.08417
64,0.525,262.30737,281.12857,999.73114,220.00804,320.04462,921.03619,298.64761,323.52689,856.24127
65,0.533,262.22684,281.20047,999.85425,219.46542,320.14111,921.05377,298.4989,324.17261,856.45337
66,0.542,261.90588,281.25546,999.60059,218.9171,320.34402,920.95441,298.13962,323.36594,856.43005
67,0.55,260.98978,281.53516,999.77924,218.24821,319.9874,920.59784,298.13962,323.36594,856.43005
68,0.558,260.36075,281.81464,999.54962,218.02959,320.07053,918.92615,297.38885,322.26031,855.91284
69,0.567,259.37302,282.49649,999.33466,217.83856,319.94272,918.53632,297.37402,322.16559,855.8255
70,0.575,258.76602,282.41647,998.98633,217.48631,319.95554,918.15125,297.51083,321.3653,855.59979
71,0.583,256.76877,282.34531,998.66553,217.18909,319.32867,917.43152,297.1095,320.69775,855.33398
72,0.592,256.23749,281.94928,997.91028,216.10815,318.89078,917.1084,296.32599,319.60706,854.91742
73,0.6,255.86407,281.56036,997.35754,216.19894,318.78677,916.52167,296.22992,318.82681,853.80573
74,0.608,255.40262,280.42023,997.33673,215.76196,318.14719,916.10602,295.5654,317.40472,853.7771
75,0.617,255.0824,279.40292,996.80206,214.53604,317.70328,915.22443,295.42685,315.58371,853.19995
76,0.625,254.42604,279.55396,996.32898,213.79742,316.59659,914.81305,294.5202,314.1467,852.07037
77,0.633,254.43068,279.41492,995.25275,213.23289,316.34131,914.91595,294.06494,313.33731,852.04767
78,0.642,253.74641,278.63837,995.17487,213.40015,314.94247,913.97711,293.97287,310.41425,851.51733
79,0.65,252.79228,277.67029,994.51837,213.31802,314.34927,913.04889,294.02045,308.74179,851.51044
80,0.658,251.95122,276.74097,993.70776,213.3007,312.97702,912.6427,294.7175,308.29633,850.59869
81,0.667,251.70956,276.31021,993.73126,212.96983,311.22507,912.51715,293.98068,307.26999,850.14398
82,0.675,251.55142,275.48096,993.72321,212.16382,309.93753,911.36237,293.44208,305.21896,849.59991
83,0.683,251.4939,275.08487,993.44037,212.30121,309.27448,910.38556,293.54272,304.70822,848.85486
84,0.692,250.86536,273.40738,992.78589,212.18799,309.1691,910.24353,293.40359,302.6951,848.16412
85,0.7,250.72046,273.09686,992.11102,212.51198,307.19083,909.92572,293.31287,301.46286,847.62006
86,0.708,250.78096,272.51099,991.19543,211.85187,306.44946,909.70447,292.98929,300.40054,847.48053
87,0.717,250.569,272.06021,990.78674,211.36426,305.44617,908.79352,292.83347,299.87952,846.50757
88,0.725,250.74611,271.56583,990.45508,211.32637,303.39993,907.69611,292.19055,298.58777,845.95874
89,0.733,251.02626,271.03107,990.06323,211.20897,302.81076,907.22687,292.27121,298.22565,845.68982
90,0.742,250.6033,270.45917,989.95654,211.54449,302.42023,906.95544,292.18579,296.92343,845.38062
91,0.75,250.52284,270.53839,989.89648,211.67354,301.95456,906.73737,292.32309,296.44781,845.25409
92,0.758,250.24969,270.02768,989.36438,211.85258,300.34296,906.4234,292.59003,294.87384,844.8775
93,0.767,250.36227,269.0582,989.49384,210.86542,298.71405,906.29376,292.95642,294.54233,844.69183
94,0.775,251.13518,266.88446,988.99323,210.73886,297.97421,905.63672,293.43637,294.23318,844.75555
95,0.783,251.37695,266.31784,989.05603,211.36269,296.98233,905.41412,294.12341,294.24149,844.33087
96,0.792,251.94658,265.89911,989.10712,211.9334,296.51431,905.06354,294.35464,294.32394,844.26324
97,0.8,251.93173,265.66122,988.99628,212.43649,296.33423,904.91211,294.58737,294.18988,843.7771
98,0.808,252.16585,265.48364,988.78436,212.36044,295.70963,904.28326,294.55743,294.06223,843.51294
99,0.817,252.70238,265.21451,988.60071,212.19255,295.3887,903.89258,295.37033,293.87036,842.7782
100,0.825,253.23764,264.92682,988.29297,212.28886,295.31854,903.70801,295.43777,294.08698,842.34979
101,0.833,253.53185,264.59641,988.17554,211.9953,295.08804,903.60181,295.47702,293.97272,841.9212
102,0.842,253.84541,264.64578,987.92944,212.34593,295.61209,903.85498,294.45706,294.68506,841.19678
103,0.85,254.23058,264.99762,987.7699,212.43175,295.74088,904.43207,293.39349,294.66364,840.06622
104,0.858,254.8394,265.27875,987.93494,212.43649,296.33423,904.91211,292.77518,294.41293,839.69684
105,0.867,255.21298,265.64383,987.93976,212.66116,296.58896,905.02332,292.77518,294.41293,839.69684
106,0.875,255.81598,265.5032,988.00293,212.96538,297.15482,905.28589,292.77518,294.41293,839.69684
107,0.883,255.89481,265.42999,988.0564,213.67061,298.58463,905.58661,292.55389,295.14163,839.62952
108,0.892,255.90416,265.72806,988.29706,213.27835,300.08542,906.68304,293.09338,294.85989,839.92383
109,0.9,255.53239,266.10925,988.29395,213.03246,301.15018,906.80353,291.92435,295.43457,840.30872
110,0.908,254.9827,266.78839,988.68176,212.21881,301.49716,906.91022,290.55914,296.22372,840.40704
111,0.917,254.42363,268.01483,989.03558,212.17625,301.57233,907.14191,290.49167,297.35898,840.69757
112,0.925,253.99008,269.75909,989.55829,211.66127,302.86575,907.70581,289.78125,298.11334,841.43878
113,0.933,253.40157,270.37515,989.72937,211.2204,303.2439,907.93781,290.08969,299.86557,841.30743
114,0.942,252.81947,270.67389,990.09515,210.99039,303.7009,909.05511,290.47308,300.0813,842.21021
115,0.95,252.2831,271.02682,990.39252,210.43509,304.60501,909.35236,290.25699,300.40045,842.57178
116,0.958,251.90408,271.13077,990.28461,210.02924,305.16592,909.48517,289.46313,301.08609,843.35992
117,0.967,251.6039,271.41223,990.25208,209.27132,306.05823,909.95929,289.38873,301.33963,843.81409
118,0.975,250.89378,271.86655,990.50391,209.32996,305.79001,910.13617,289.01514,301.9595,844.65106
119,0.983,250.64728,272.16849,990.48492,208.3037,305.67389,910.08093,289.24628,303.27286,845.04065
120,0.992,250.36131,272.33234,990.71649,207.63847,306.46106,909.63727,289.37784,304.82355,845.31818
121,1,250.0083,272.99469,991.12921,207.48463,307.20386,909.6626,289.07623,305.93378,845.1745
122,1.008,249.79132,273.07446,991.51624,207.16846,307.2424,909.60944,288.78424,306.68753,845.71655
123,1.017,249.42502,273.69531,991.48444,207.46611,306.23022,909.98846,288.35233,306.24719,846.01666
124,1.025,249.42502,273.69531,991.48444,207.15053,306.49054,910.16504,288.56583,306.24695,846.05872
125,1.033,249.42502,273.69531,991.48444,207.15053,306.49054,910.16504,288.56583,306.24695,846.05872
126,1.042,249.42502,273.69531,991.48444,207.15053,306.49054,910.16504,288.24088,306.36942,846.02026
127,1.05,249.42502,273.69531,991.48444,207.15053,306.49054,910.16504,288.01755,306.41016,845.78937
128,1.058,249.7718,272.8454,990.93463,207.33768,306.18964,910.07831,287.82642,306.52054,845.26288
129,1.067,249.88663,272.62958,990.75507,207.33768,306.18964,910.07831,287.71695,306.36826,844.92731
130,1.075,249.97176,272.5087,990.45093,207.40141,305.73541,909.69873,287.3428,306.2294,844.69263
131,1.083,250.31696,272.27759,990.24103,207.35875,305.48987,909.55212,286.38223,305.74268,844.00824
132,1.092,250.03889,272.18658,990.17072,207.37483,305.58673,909.98065,286.53641,305.59677,843.8548
133,1.1,250.10284,272.20728,990.11719,206.77898,305.65845,909.87744,286.06622,305.09171,843.25171
134,1.108,249.82864,271.74338,989.83972,206.77898,305.65845,909.87744,285.94681,304.78528,842.99915
135,1.117,249.31973,271.67065,989.60681,206.77898,305.65845,909.87744,285.19672,303.15555,843.14929
136,1.125,249.34267,271.53864,989.80298,206.60457,305.28534,909.25269,284.92523,302.42743,843.14545
137,1.133,249.08621,271.27402,989.75299,206.47139,305.15918,908.99115,284.96414,302.34863,843.20819
138,1.142,248.93282,270.85696,989.72192,206.22339,304.81897,908.87103,284.66498,302.38983,843.09686
139,1.15,248.77664,270.61371,989.73792,205.93002,304.58887,908.76526,284.51447,302.09546,843.2384
140,1.158,248.56593,270.60794,989.19141,205.70529,303.64267,908.43433,284.49603,301.74353,843.43335
141,1.167,248.02441,270.63629,989.62292,205.70529,303.64267,908.43433,284.61346,301.73041,843.41876
142,1.175,248.02441,270.63629,989.62292,205.21275,303.24759,907.9834,284.74722,301.11102,843.59131
143,1.183,248.02441,270.63629,989.62292,205.17964,303.07867,907.86707,284.34048,301.13257,843.53821
144,1.192,248.02441,270.63629,989.62292,205.28136,302.41507,907.93231,284.34048,301.13257,843.53821
145,1.2,247.81036,270.48444,989.59961,205.2101,302.38382,907.78387,284.34048,301.13257,843.53821
146,1.208,247.41426,269.85043,989.62665,204.85785,301.44855,906.84064,284.65091,301.05783,843.42883
147,1.217,248.03078,269.5174,989.41125,204.85785,301.44855,906.84064,285.05905,301.793,843.14862
148,1.225,248.00276,269.36169,989.25897,204.6992,301.17258,906.64423,285.04349,301.61487,842.97552
149,1.233,247.85735,269.32587,988.90417,204.52,300.97061,906.57593,285.37698,301.77075,842.65851
150,1.242,247.85735,269.32587,988.90417,204.83205,300.87793,906.44269,285.18143,301.73734,842.32544
151,1.25,247.86617,268.62933,988.57629,205.1257,300.86057,906.55591,285.33484,301.43857,841.90735
152,1.258,248.09525,268.72665,988.31305,205.1257,300.86057,906.55591,285.51355,300.95554,841.83069
153,1.267,248.16879,268.47278,988.19702,204.83205,300.87793,906.44269,284.34674,299.80582,841.81006
154,1.275,248.34155,267.99503,988.14081,205.1257,300.86057,906.55591,284.77524,299.30701,841.52667
155,1.283,248.29121,267.77853,988.02936,205.00291,300.7623,906.32135,284.77377,298.88504,841.35168
156,1.292,248.14259,267.60971,988.16882,205.68231,299.91995,906.26758,284.93063,298.10062,841.33917
157,1.3,248.53613,266.50223,988.2793,205.68231,299.91995,906.26758,285.23776,297.19882,841.74182
158,1.308,248.34782,266.28497,988.30487,205.68231,299.91995,906.26758,285.27667,296.32153,841.74396
159,1.317,248.18762,266.14493,988.25385,206.04588,299.85422,906.25562,285.27176,296.53067,841.9292
160,1.325,247.96332,266.58951,988.50293,205.68231,299.91995,906.26758,285.52255,296.6478,842.24512
161,1.333,248.05649,266.14047,988.49323,205.68231,299.91995,906.26758,285.71237,296.84622,842.5426
162,1.342,248.12706,266.42917,988.70868,205.68231,299.91995,906.26758,286.78818,298.11148,842.2616
163,1.35,247.89293,266.52243,988.87469,205.4308,300.00156,906.39886,286.62662,298.69897,842.69977
164,1.358,247.71217,267.0029,988.63293,205.78824,299.67874,906.37183,287.26324,298.48288,842.96796
165,1.367,247.2216,267.58325,988.96289,205.5367,299.76035,906.50311,287.15125,299.14963,842.85272
166,1.375,246.84337,267.91327,989.71698,205.5367,299.76035,906.50311,287.56189,299.71313,842.74994
167,1.383,246.70859,268.02643,989.90436,205.24292,299.77774,906.38983,287.26074,300.07916,843.06311
168,1.392,246.98993,268.09875,990.07733,205.38631,299.87534,906.63416,286.97406,300.63074,843.15179
169,1.4,246.89722,268.54758,990.08704,205.38631,299.87534,906.63416,285.83411,301.27917,842.87177
170,1.408,246.89722,268.54758,990.08704,205.38631,299.87534,906.63416,285.38034,301.47742,842.88806
171,1.417,246.99272,268.83585,990.24677,205.38631,299.87534,906.63416,285.38034,301.47742,842.88806
172,1.425,247.23671,268.13208,990.29211,205.07596,299.96051,906.74274,285.66785,301.17487,842.60455
173,1.433,247.44521,269.0051,990.04852,204.97012,300.20163,906.63855,286.16534,300.46027,842.46912
174,1.442,247.44521,269.0051,990.04852,204.81546,300.94568,906.66449,285.4614,299.69641,842.59692
175,1.45,247.70854,268.69818,989.74695,204.61772,301.09912,907.40295,285.16779,299.59259,842.21332
176,1.458,247.53799,268.55621,990.03888,204.689,301.13049,907.55145,285.16779,299.59259,842.21332
177,1.467,247.48248,268.41199,989.84839,204.58667,301.21417,908.10571,285.4614,299.69641,842.59692
178,1.475,247.53799,268.55621,990.03888,204.76364,301.58624,908.51361,284.91495,300.00943,842.96826
179,1.483,247.23671,268.13208,990.29211,204.64743,301.81305,908.49329,284.79971,300.60718,842.93658
180,1.492,246.90692,268.64734,990.48773,204.57111,301.76559,908.56885,285.03268,301.215,842.79089
181,1.5,246.51706,269.16486,990.53821,204.28691,301.49121,908.07709,285.00797,301.39557,843.02338
182,1.508,246.51706,269.16486,990.53821,203.33414,301.57593,908.14087,284.10974,301.40799,843.49329
183,1.517,245.8038,269.60437,990.57129,203.58652,301.97922,908.69977,283.74374,301.91998,843.56213
184,1.525,245.75648,269.68802,990.49078,203.15332,302.00766,908.61432,284.37714,302.88824,844.63837
185,1.533,245.5876,269.75354,990.48663,202.71062,302.17792,908.49951,284.30679,303.22955,844.39307
186,1.542,245.58383,270.36893,990.14685,202.3232,301.83038,907.9071,284.13184,303.56036,844.49951
187,1.55,245.58383,270.36893,990.14685,202.80347,301.97427,907.9632,284.41226,303.754,844.4502
188,1.558,245.43063,270.45392,990.11212,202.58794,302.06741,908.15454,283.83051,303.85037,844.16663
189,1.567,245.43063,270.45392,990.11212,202.54431,301.82187,908.00812,283.60568,303.43112,843.95001
190,1.575,245.43063,270.45392,990.11212,202.37621,302.08188,908.19543,284.51987,302.90475,844.19452
191,1.583,245.39723,270.47751,989.84949,202.50639,302.11966,908.11627,284.28326,302.05035,843.2085
192,1.592,245.4985,270.41525,989.73767,202.6649,302.39581,908.3125,284.28326,302.05035,843.2085
193,1.6,245.31966,270.5506,989.79553,202.6649,302.39581,908.3125,283.97885,301.90182,843.25659
194,1.608,245.74286,270.51627,989.2818,202.6649,302.39581,908.3125,283.7262,301.80377,842.85321
195,1.617,245.6642,270.58932,989.22845,202.6649,302.39581,908.3125,283.77615,301.52252,842.66559
196,1.625,245.67091,270.52499,989.04413,202.46069,302.43872,908.33875,284.13165,301.74979,842.28522
197,1.633,245.39806,270.06033,988.75189,202.6649,302.39581,908.3125,284.07831,301.70871,842.35266
198,1.642,245.39806,270.06033,988.75189,203.02711,302.50568,907.40094,283.37595,301.41245,842.5556
199,1.65,245.39806,270.06033,988.75189,202.8954,302.58197,907.34857,282.56772,301.60474,842.46692
200,1.658,245.39806,270.06033,988.75189,202.78232,302.66257,907.28632,282.99268,301.19763,842.34747
201,1.667,245.39806,270.06033,988.75189,202.59421,302.6427,907.10822,282.99268,301.19763,842.34747
202,1.675,245.39806,270.06033,988.75189,202.59421,302.6427,907.10822,282.99268,301.19763,842.34747
