Frame#,Time,L.Forearm.x,L.Forearm.y,L.Forearm.z,L.Ulna.x,L.Ulna.y,L.Ulna.z,L.Radius.x,L.Radius.y,L.Radius.z
1,0,363.30316,372.98468,1223.35425,417.81479,338.29272,1147.97046,455.26389,285.81036,1223.27026
2,0.008,364.47775,371.83197,1222.15576,418.14673,338.37073,1148.22607,455.3443,285.54221,1223.33289
3,0.017,363.4144,372.50955,1223.79309,418.13593,337.21777,1148.87183,454.87384,283.94913,1223.78943
4,0.025,364.55539,371.37744,1222.7804,418.09225,336.76743,1149.11584,455.07208,283.11575,1224.17358
5,0.033,364.34583,370.76651,1222.79138,418.71655,336.68253,1149.3938,454.71106,282.35345,1224.44336
6,0.042,364.10248,371.7258,1224.80994,418.74677,336.95715,1149.88208,454.51965,282.32327,1224.4812
7,0.05,365.1571,370.29724,1224.10339,418.69742,336.77866,1150.30298,454.70822,282.37457,1224.62378
8,0.058,365.11243,369.98151,1224.32861,418.59799,336.70309,1150.82776,454.00583,281.42542,1225.27563
9,0.067,365.40576,369.72586,1224.7041,418.44244,335.96701,1151.31482,453.28406,281.09857,1224.64014
10,0.075,364.33719,370.15222,1226.56177,417.84949,335.24399,1151.40405,452.95248,280.48416,1224.94702
11,0.083,364.37732,369.87991,1226.71765,417.95206,334.51285,1151.55261,452.65652,279.65399,1224.86597
12,0.092,364.2854,369.10745,1227.0686,418.43262,335.08359,1151.63904,452.3103,279.72711,1225.25391
13,0.1,365.55737,368.5437,1225.97559,417.95206,334.51285,1151.55261,451.71487,278.13525,1224.97876
14,0.108,365.48035,368.3381,1226.33508,417.77405,334.49118,1151.58667,451.68616,278.24246,1224.84192
15,0.117,365.43488,368.09232,1225.88733,417.13309,333.87039,1151.97656,451.90436,279.26074,1225.09802
16,0.125,365.51187,368.29788,1225.52771,416.87823,334.60312,1151.74536,452.95325,279.61533,1223.87244
17,0.133,364.87256,368.31155,1225.58984,416.87823,334.60312,1151.74536,452.28275,281.28076,1225.17554
18,0.142,364.53384,369.03894,1225.23389,416.53455,334.7009,1151.68921,452.16122,281.34921,1225.32605
19,0.15,364.18213,369.54129,1225.21289,416.15097,335.56085,1151.30725,452.16122,281.34921,1225.32605
20,0.158,364.15726,369.95386,1224.5387,415.55334,334.97733,1151.66528,452.09775,281.70642,1225.1532
21,0.167,364.15726,369.95386,1224.5387,415.32147,335.27356,1152.17358,451.50235,280.23544,1225.05566
22,0.175,363.45306,370.23212,1224.16943,415.95129,335.83243,1151.73584,451.55481,280.66476,1225.24963
23,0.183,362.79947,370.91553,1224.19495,415.81015,335.754,1151.83105,451.43063,281.57288,1225.83862
24,0.192,362.41635,370.90796,1224.27112,415.31857,335.86935,1151.88208,450.98114,281.74304,1225.77246
25,0.2,361.86307,371.35324,1224.42114,415.31857,335.86935,1151.88208,450.77408,281.98889,1226.17273
26,0.208,359.99704,371.94769,1226.28308,414.43765,335.56442,1152.69678,451.3074,282.98944,1226.52124
27,0.217,360.78223,371.39038,1225.16626,414.43765,335.56442,1152.69678,450.94064,283.06696,1226.28223
28,0.225,359.23907,370.50797,1225.01941,415.16647,336.17947,1152.15527,450.07724,282.37778,1225.87
29,0.233,359.35803,370.05777,1224.94556,415.16647,336.17947,1152.15527,449.90765,282.12045,1225.76282
30,0.242,358.91425,369.88495,1224.72034,414.80988,336.15088,1151.9884,449.9325,282.22842,1225.62524
31,0.25,359.32748,369.17957,1225.02124,414.28723,336.85461,1151.71667,448.56604,281.42996,1224.98816
32,0.258,359.46741,368.91049,1224.8584,413.27982,335.69931,1151.77014,448.12717,280.28391,1224.41309
33,0.267,359.36279,368.74719,1224.82959,414.15256,336.56021,1151.25525,448.12717,280.28391,1224.41309
34,0.275,359.37228,368.43298,1224.50586,413.81192,336.43539,1150.92322,448.12717,280.28391,1224.41309
35,0.283,359.32758,368.1868,1224.05713,412.97931,335.6575,1150.59509,447.96805,279.80316,1223.79077
36,0.292,359.49136,367.25989,1223.89465,412.67441,335.53558,1150.48328,447.26364,279.97778,1223.40479
37,0.3,358.15723,368.16071,1225.50391,412.45364,336.62408,1149.24731,446.69742,279.95197,1222.30713
38,0.308,359.18042,367.55676,1222.50244,412.45364,336.62408,1149.24731,446.517,280.38959,1222.2887
39,0.317,358.91724,368.45047,1223.91797,412.45364,336.62408,1149.24731,446.3056,281.0416,1222.95422
40,0.325,358.73331,368.08774,1223.43457,413.0304,337.50507,1148.98865,446.31058,282.03354,1222.95947
41,0.333,357.50504,370.33762,1225.45349,412.26334,337.31479,1148.91284,446.75665,282.56573,1223.10461
42,0.342,357.13159,370.35828,1225.43237,411.37057,338.17371,1149.08984,447.28226,283.49496,1223.68848
43,0.35,356.82834,370.59033,1225.21252,410.34503,337.50665,1149.98975,447.62311,283.89099,1223.86975
44,0.358,356.56079,371.17615,1225.36145,410.26782,337.40921,1150.10242,447.11044,285.16333,1224.2207
45,0.367,356.3226,371.15042,1225.4032,409.78644,337.02884,1150.2605,447.09933,285.90042,1224.42639
46,0.375,356.01471,371.26834,1225.47656,409.82925,337.77258,1150.28174,447.09933,285.90042,1224.42639
47,0.383,356.00067,371.55792,1226.13501,409.83878,337.83051,1150.70679,446.92218,285.8248,1224.52246
48,0.392,354.5896,370.69171,1224.42834,409.23746,337.18402,1152.13794,446.67236,285.56512,1225.61133
49,0.4,354.5896,370.69171,1224.42834,408.85886,337.14667,1152.42358,447.15427,285.99905,1226.26147
50,0.408,354.5896,370.69171,1224.42834,409.54422,338.03546,1152.45081,446.46445,285.9776,1226.1322
51,0.417,354.5896,370.69171,1224.42834,409.25488,338.58017,1152.99634,445.66199,285.41492,1226.21948
52,0.425,354.86679,370.63745,1224.51843,409.25488,338.58017,1152.99634,445.15387,285.3269,1226.33093
53,0.433,355.23795,371.16397,1226.51904,409.42603,338.54645,1153.02393,444.715,283.87286,1225.651
54,0.442,354.32037,370.25314,1225.26489,409.25488,338.58017,1152.99634,443.55457,280.95151,1225.44128
55,0.45,354.32037,370.25314,1225.26489,408.15692,337.52228,1153.08765,443.56534,280.6416,1225.27698
56,0.458,354.3855,370.5885,1225.53308,408.14905,337.95758,1152.48242,444.08594,282.04239,1225.40247
57,0.467,354.34863,370.02737,1224.75977,408.14905,337.95758,1152.48242,443.67438,281.81689,1224.98242
58,0.475,354.11703,370.08057,1224.66504,407.681,337.60355,1150.92151,443.6008,281.89917,1224.18005
59,0.483,354.11703,370.08057,1224.66504,407.64917,336.98071,1150.54565,443.35297,282.2337,1223.60742
60,0.492,354.43353,370.1217,1224.51697,407.61295,337.51721,1149.4364,443.73376,282.09561,1223.4104
61,0.5,354.36838,369.78629,1224.24854,407.62363,337.92303,1148.93188,443.63519,282.16843,1223.31775
62,0.508,354.63901,369.69931,1224.03491,407.62363,337.92303,1148.93188,443.7215,282.37851,1222.90051
63,0.517,354.96686,369.96722,1223.88293,407.55457,337.59238,1148.52124,443.9003,282.54327,1222.32568
64,0.525,355.22083,371.40262,1225.69592,407.07904,338.2883,1148.51636,444.01227,284.20374,1222.5542
65,0.533,355.18237,371.67563,1225.53967,406.81299,337.99695,1148.54321,444.69382,285.24155,1222.83142
66,0.542,355.00717,371.70248,1225.58203,406.8754,337.44727,1148.54004,445.17841,285.82242,1222.93933
67,0.55,355.08594,370.90155,1223.89551,406.8754,337.44727,1148.54004,445.27631,286.31696,1222.82581
68,0.558,355.00717,371.70248,1225.58203,406.8754,337.44727,1148.54004,445.25446,286.22244,1222.94592
69,0.567,354.92929,371.79715,1225.77429,406.8754,337.44727,1148.54004,445.31845,286.42026,1223.31921
70,0.575,355.07791,371.99683,1225.55481,406.8754,337.44727,1148.54004,445.22055,285.92569,1223.43274
71,0.583,354.75,371.73578,1225.86462,406.78595,337.24747,1148.7561,444.99323,285.86374,1223.51147
72,0.592,354.72992,370.86829,1224.03088,406.90201,336.69019,1148.60925,444.186,284.87579,1223.47302
73,0.6,354.72992,370.86829,1224.03088,406.90201,336.69019,1148.60925,443.70029,283.15561,1223.40649
74,0.608,354.28616,370.69547,1223.80566,407.01843,336.39905,1148.74719,443.63519,282.16843,1223.31775
75,0.617,354.14584,370.51889,1224.20313,407.01843,336.39905,1148.74719,443.01837,282.28485,1223.54211
76,0.625,353.80933,369.30603,1223.77295,407.01843,336.39905,1148.74719,442.93777,282.09119,1223.1853
77,0.633,353.80933,369.30603,1223.77295,407.01843,336.39905,1148.74719,442.15839,282.23654,1222.69299
78,0.642,352.97949,368.91339,1223.51147,407.01843,336.39905,1148.74719,442.0723,281.23608,1221.35364
79,0.65,352.91412,368.57794,1223.24304,406.85168,336.97766,1148.32715,442.0723,281.23608,1221.35364
80,0.658,353.02124,367.93979,1222.91089,406.50421,337.06583,1148.05933,442.0723,281.23608,1221.35364
81,0.667,353.02124,367.93979,1222.91089,406.15475,337.21893,1147.74097,442.0723,281.23608,1221.35364
82,0.675,353.02124,367.93979,1222.91089,405.936,336.9541,1147.97046,442.04022,281.32764,1221.23694
83,0.683,353.02124,367.93979,1222.91089,405.48541,336.80472,1147.35779,442.24213,281.89044,1220.72107
84,0.692,352.42679,368.67334,1223.08435,405.30545,336.91046,1147.48633,442.36331,281.82159,1220.57019
85,0.7,352.19147,369.64987,1222.276,405.17999,336.74612,1147.50232,442.2905,282.91772,1220.60376
86,0.708,351.87909,370.02963,1222.79199,405.26456,337.91675,1147.63403,442.4035,284.40588,1220.50671
87,0.717,351.87909,370.02963,1222.79199,404.71021,338.70129,1147.7478,442.43878,284.45047,1220.66833
88,0.725,353.26315,371.52054,1223.04785,403.83023,338.38333,1147.94275,442.43039,284.9411,1220.79688
89,0.733,353.26315,371.52054,1223.04785,404.29712,338.8479,1147.73962,442.53699,285.86411,1221.45288
90,0.742,353.26315,371.52054,1223.04785,403.68552,338.40997,1147.95837,442.53699,285.86411,1221.45288
91,0.75,352.94617,371.54538,1223.3905,403.88998,338.45587,1148.22388,442.35962,285.7883,1221.54895
92,0.758,352.94617,371.54538,1223.3905,403.87186,338.32257,1148.41675,442.35962,285.7883,1221.54895
93,0.767,352.67734,371.38788,1223.68982,403.87186,338.32257,1148.41675,442.57571,285.71481,1222.396
94,0.775,352.16806,371.39301,1223.75513,404.21716,338.80032,1148.45032,442.38797,284.30832,1223.19067
95,0.783,352.16806,371.39301,1223.75513,403.71823,338.36914,1148.7323,442.1619,284.50201,1223.50671
96,0.792,352.41235,371.33499,1223.85901,404.03555,338.18121,1149.18738,441.57193,284.05322,1223.63806
97,0.8,351.69901,370.84723,1223.97424,404.0296,337.23138,1149.62524,440.9668,283.88657,1223.14661
98,0.808,350.73322,369.96252,1223.99121,405.31763,337.784,1149.45007,441.01843,282.68384,1223.11694
99,0.817,351.22214,369.96231,1223.91724,405.31763,337.784,1149.45007,440.49704,281.98566,1223.40491
100,0.825,351.22214,369.96231,1223.91724,405.43683,337.69568,1149.54114,440.28568,281.81735,1223.05396
101,0.833,352.58575,369.25354,1222.50427,404.82117,336.78275,1149.70007,440.28189,281.63345,1222.72375
102,0.842,352.60373,368.98026,1222.32263,404.70151,336.87567,1149.61462,440.21771,281.43491,1222.34985
103,0.85,352.60373,368.98026,1222.32263,405.35941,338.08475,1149.15186,440.21771,281.43491,1222.34985
104,0.858,352.65045,369.01929,1221.56409,405.70468,337.89117,1148.91223,440.20392,281.06155,1222.15454
105,0.867,352.61813,369.42737,1222.19958,405.29807,337.84702,1148.23755,440.53104,281.89746,1222.11157
106,0.875,352.73895,369.60684,1221.96887,405.29807,337.84702,1148.23755,440.91043,282.05408,1221.91309
107,0.883,351.91525,369.69379,1221.67212,405.04541,337.65765,1147.87585,440.89038,283.76495,1221.84021
108,0.892,351.67493,370.16382,1220.64233,405.04541,337.65765,1147.87585,441.30942,284.69965,1221.31079
109,0.9,352.18121,371.08054,1220.50427,404.55792,338.59164,1148.05408,441.5896,285.57507,1221.06311
110,0.908,351.85849,371.87189,1220.30896,404.10532,338.67508,1148.05713,442.28934,286.43011,1221.18457
111,0.917,351.98526,372.65851,1220.61157,404.10532,338.67508,1148.05713,442.70227,287.05313,1221.16418
112,0.925,351.974,373.23853,1220.52356,404.10532,338.67508,1148.05713,443.80829,288.09381,1221.8634
113,0.933,351.85876,373.27817,1220.32312,404.10532,338.67508,1148.05713,443.4455,288.91205,1222.43994
114,0.942,351.85876,373.27817,1220.32312,404.00601,339.40637,1147.9082,443.30118,289.27753,1223.03406
115,0.95,351.603,373.42426,1220.35986,404.00601,339.40637,1147.9082,443.30118,289.27753,1223.03406
116,0.958,351.59766,373.71301,1220.26563,404.00601,339.40637,1147.9082,443.30118,289.27753,1223.03406
117,0.967,351.44394,373.79324,1220.2041,404.00601,339.40637,1147.9082,442.86722,289.00723,1223.57422
118,0.975,351.2995,373.49796,1220.36694,404.45853,339.32297,1147.90515,442.1478,288.04608,1223.60205
119,0.983,351.2995,373.49796,1220.36694,404.00601,339.40637,1147.9082,441.27383,287.13434,1223.21143
120,0.992,350.55161,373.07599,1219.75903,404.00601,339.40637,1147.9082,441.05396,286.3855,1222.49524
121,1,350.84311,372.33716,1219.4353,404.00601,339.40637,1147.9082,440.58527,285.78217,1222.45337
122,1.008,350.4744,371.95856,1219.22119,403.83456,339.44016,1147.88062,440.37177,285.37134,1222.60535
123,1.017,349.92569,370.90634,1218.44653,403.67438,339.90915,1147.62695,440.19583,285.08316,1222.02759
124,1.025,349.76434,370.86038,1218.55054,402.44815,339.44424,1147.50256,439.65335,284.74313,1221.24963
125,1.033,349.76434,370.86038,1218.55054,403.21454,339.91888,1146.55066,438.98727,285.04016,1220.88293
126,1.042,349.47375,370.37469,1218.04724,403.42276,339.44705,1145.70251,438.987,284.83383,1220.56287
127,1.05,349.63513,370.42065,1217.94324,403.42276,339.44705,1145.70251,439.13644,285.41129,1220.58154
128,1.058,348.89075,370.42447,1218.12549,402.56476,339.4809,1145.58411,439.51694,286.72095,1220.20093
129,1.067,348.89075,370.42447,1218.12549,402.4548,339.42657,1145.13013,439.51694,286.72095,1220.20093
130,1.075,348.45703,370.26306,1217.98047,401.59314,339.30817,1145.3208,440.06824,286.77548,1220.40198
131,1.083,348.54599,371.57361,1217.82605,401.55405,339.21472,1145.43152,440.35956,287.30368,1220.63623
132,1.092,348.11209,371.41211,1217.68103,401.509,339.13464,1145.52844,440.72269,288.06381,1220.3678
133,1.1,348.3822,372.1489,1217.68335,401.44144,339.19458,1145.70496,440.65466,289.34204,1220.73059
134,1.108,349.134,373.81873,1217.31628,402.02545,339.54761,1145.56482,440.6683,290.3699,1221.63892
135,1.117,349.13593,374.6983,1217.80212,402.02545,339.54761,1145.56482,440.6683,290.3699,1221.63892
136,1.125,349.13593,374.6983,1217.80212,401.89294,339.72113,1146.21106,440.6683,290.3699,1221.63892
137,1.133,348.69699,374.95551,1218.50598,401.90192,339.8862,1146.51563,440.64133,289.95404,1222.09497
138,1.142,348.69699,374.95551,1218.50598,402.30426,340.29926,1147.04883,439.59167,287.62219,1222.58472
139,1.15,348.5079,375.02289,1219.07202,401.57999,339.78409,1147.68835,439.12277,287.42426,1222.78967
140,1.158,349.26736,373.78516,1219.46118,402.43671,339.60654,1146.64685,439.78445,288.45966,1223.34216
141,1.167,349.31439,373.56671,1219.32019,403.48969,339.87967,1147.67053,438.68695,286.31924,1223.49524
142,1.175,349.54242,372.80356,1219.59009,403.58594,339.79645,1147.75732,439.2854,287.66635,1223.8479
143,1.183,348.87427,370.99356,1218.9823,403.58594,339.79645,1147.75732,439.36365,286.79639,1223.09216
144,1.192,349.0145,370.93225,1218.83899,403.58594,339.79645,1147.75732,439.48987,286.07852,1222.68921
145,1.2,349.0145,370.93225,1218.83899,403.48969,339.87967,1147.67053,438.65439,286.42273,1222.52966
146,1.208,349.17581,370.97824,1218.73511,403.34845,340.14691,1147.00525,438.22693,285.91599,1221.45642
147,1.217,349.17581,370.97824,1218.73511,403.01578,340.18869,1146.97852,438.35861,285.75772,1221.45166
148,1.225,349.17581,370.97824,1218.73511,403.35596,339.9101,1146.20923,438.33749,285.62445,1220.77515
149,1.233,349.17581,370.97824,1218.73511,402.51727,338.84222,1146.2052,438.29434,286.19623,1220.56506
150,1.242,348.81693,370.80997,1218.56091,401.59314,339.30817,1145.3208,438.38239,286.69598,1219.81262
151,1.25,348.52988,371.77795,1218.14441,402.18991,339.88574,1144.96118,438.07205,287.16,1219.7511
152,1.258,347.90158,371.64389,1217.97534,401.6055,339.48755,1144.97583,437.90997,287.79193,1219.0824
153,1.267,347.90158,371.64389,1217.97534,401.81232,340.41476,1144.24487,438.14597,287.81348,1219.05505
154,1.275,347.37717,373.14001,1217.43201,401.32602,340.41064,1143.74597,438.05814,288.82138,1219.19971
155,1.283,347.70694,374.36063,1217.20508,401.18005,340.57587,1143.98218,439.47787,290.89166,1219.26501
156,1.292,347.60611,374.87177,1217.24048,400.9978,341.0303,1143.96533,438.98746,290.93851,1219.28235
157,1.3,347.53265,375.1557,1217.29028,400.9978,341.0303,1143.96533,439.31656,291.8031,1219.50842
158,1.308,347.04953,375.95096,1217.1228,400.9151,341.37347,1143.20557,439.14182,291.76044,1219.56287
159,1.317,347.04953,375.95096,1217.1228,400.9978,341.0303,1143.96533,438.97916,291.19464,1219.92615
160,1.325,346.61099,375.96231,1217.1178,400.4986,340.92041,1144.35522,438.97916,291.19464,1219.92615
161,1.333,346.61099,375.96231,1217.1178,401.18005,340.57587,1143.98218,438.77969,291.21625,1219.95227
162,1.342,346.83536,375.48346,1217.25952,400.50836,340.1149,1144.59143,437.81375,289.53897,1219.43408
163,1.35,347.16779,374.88303,1217.23547,401.18005,340.57587,1143.98218,437.41013,288.57758,1219.30676
164,1.358,347.60611,374.87177,1217.24048,401.13297,340.38202,1144.36902,437.41895,287.83859,1219.09985
165,1.367,346.81894,373.45642,1217.50024,401.2453,340.30542,1144.22839,437.23721,287.45844,1219.23376
166,1.375,347.0845,373.25867,1217.3147,401.29236,340.49924,1143.84155,443.17169,286.84268,1218.89697
167,1.383,347.18475,372.32309,1217.57117,401.29236,340.49924,1143.84155,442.22369,285.73392,1219.08008
168,1.392,347.353,371.9303,1217.51355,401.07315,340.30807,1143.604,437.37939,287.26498,1219.65039
169,1.4,347.74066,371.61813,1217.66931,401.07315,340.30807,1143.604,438.61218,287.23837,1219.51611
170,1.408,347.74066,371.61813,1217.66931,401.79306,340.51138,1142.80811,437.17285,287.59235,1219.50354
171,1.417,347.68259,371.97287,1217.37915,401.86047,340.25104,1142.44348,437.36191,286.69241,1218.50391
172,1.425,347.62366,371.77557,1217.08948,401.54028,340.37,1142.42065,437.48679,287.34991,1218.2887
173,1.433,346.96088,372.2511,1216.49146,401.22839,340.54379,1142.5542,436.80481,287.61823,1217.94873
174,1.442,346.67294,372.22101,1216.17212,400.24316,340.44522,1142.65564,436.70587,287.96738,1217.59131
175,1.45,346.56857,372.36511,1215.82483,400.4491,340.871,1141.9845,436.67023,288.54272,1217.76721
176,1.458,345.7457,372.79965,1215.62341,399.34537,339.61484,1142.61963,436.81723,288.74896,1217.5061
177,1.467,345.61655,372.68393,1215.28992,398.57629,340.11548,1142.30737,436.74719,289.84494,1217.54041
178,1.475,345.40262,373.12326,1215.3252,398.09744,339.82062,1142.77734,437.0361,289.95453,1217.77734
179,1.483,345.20615,373.99243,1215.39441,397.66821,339.93045,1142.54041,437.0361,289.95453,1217.77734
180,1.492,344.81195,374.41821,1215.29346,398.00238,339.80811,1142.41931,437.0361,289.95453,1217.77734
181,1.5,344.6507,374.37228,1215.39734,397.79199,340.06168,1142.6012,436.95355,289.9476,1218.41284
182,1.508,344.6507,374.37228,1215.39734,397.79199,340.06168,1142.6012,436.97418,289.84027,1218.54907
183,1.517,344.6507,374.37228,1215.39734,397.6615,339.58807,1142.90381,436.97418,289.84027,1218.54907
184,1.525,344.49673,374.11557,1215.52393,397.4176,339.4136,1143.57153,435.90643,289.78668,1219.0127
185,1.533,344.63046,374.04056,1215.60889,397.4176,339.4136,1143.57153,435.99936,288.32495,1218.96753
186,1.542,344.63046,374.04056,1215.60889,397.74747,339.58731,1143.21619,435.75555,288.32394,1218.96851
187,1.55,344.84454,373.74167,1215.93201,397.6615,339.58807,1142.90381,435.52185,287.83646,1218.88708
188,1.558,345.13596,373.0314,1215.83105,397.54211,339.67661,1142.81299,434.8895,287.327,1218.1217
189,1.567,345.23804,372.27686,1216.08875,397.75256,339.42307,1142.63098,434.20996,286.66028,1217.15845
190,1.575,345.50363,372.07895,1215.90308,397.15155,339.46881,1142.05164,434.08063,284.79108,1216.63257
191,1.583,345.60815,371.93481,1216.25061,397.15155,339.46881,1142.05164,433.82843,284.6156,1216.66565
192,1.592,345.76846,371.86591,1216.32043,397.40918,339.68976,1141.59778,433.82843,284.6156,1216.66565
193,1.6,345.43735,372.04736,1215.48083,397.62085,339.53201,1141.27332,433.91977,284.74356,1216.44434
194,1.608,345.43735,372.04736,1215.48083,397.62085,339.53201,1141.27332,433.80093,284.74789,1216.12793
195,1.617,345.37143,370.69388,1214.87317,397.62085,339.53201,1141.27332,434.36078,284.75327,1215.46973
196,1.625,345.52167,370.56848,1214.4613,397.95648,339.91672,1141.37415,434.72891,285.15994,1215.32813
