Frame#,Time,L.Forearm.x,L.Forearm.y,L.Forearm.z,L.Ulna.x,L.Ulna.y,L.Ulna.z,L.Radius.x,L.Radius.y,L.Radius.z
1,0,-184.66737,274.88739,687.51062,-169.68593,281.79037,607.78821,-113.45873,217.62253,643.1546
2,0.008,-185.0661,274.97656,686.85864,-169.68593,281.79037,607.78821,-113.68805,217.63521,643.14215
3,0.017,-185.11105,274.9415,686.55603,-169.54282,281.77094,607.45001,-113.68805,217.63521,643.14215
4,0.025,-185.11105,274.9415,686.55603,-169.73906,281.57095,607.30994,-113.63091,217.8741,643.29126
5,0.033,-185.12779,274.57968,686.12518,-169.54195,281.51303,607.00989,-113.63091,217.8741,643.29126
6,0.042,-185.12779,274.57968,686.12518,-169.54195,281.51303,607.00989,-113.63091,217.8741,643.29126
7,0.05,-185.12779,274.57968,686.12518,-169.85545,281.38879,607.36768,-113.68805,217.63521,643.14215
8,0.058,-185.12779,274.57968,686.12518,-169.65836,281.33087,607.06769,-113.68805,217.63521,643.14215
9,0.067,-185.12779,274.57968,686.12518,-169.85545,281.38879,607.36768,-113.68805,217.63521,643.14215
10,0.075,-185.12779,274.57968,686.12518,-169.65836,281.33087,607.06769,-113.68805,217.63521,643.14215
11,0.083,-185.12779,274.57968,686.12518,-169.85545,281.38879,607.36768,-113.68805,217.63521,643.14215
12,0.092,-185.12779,274.57968,686.12518,-169.85545,281.38879,607.36768,-114.01237,217.53908,643.1062
13,0.1,-185.45122,274.18958,686.12872,-169.85545,281.38879,607.36768,-113.68805,217.63521,643.14215
14,0.108,-185.45122,274.18958,686.12872,-169.65836,281.33087,607.06769,-114.01237,217.53908,643.1062
15,0.117,-185.45122,274.18958,686.12872,-169.80144,281.3504,607.40594,-113.68805,217.63521,643.14215
16,0.125,-185.75801,274.25995,686.30841,-169.85545,281.38879,607.36768,-114.01237,217.53908,643.1062
17,0.133,-185.75801,274.25995,686.30841,-169.85545,281.38879,607.36768,-113.68805,217.63521,643.14215
18,0.142,-185.75801,274.25995,686.30841,-169.85545,281.38879,607.36768,-114.01237,217.53908,643.1062
19,0.15,-185.45122,274.18958,686.12872,-169.65836,281.33087,607.06769,-114.01237,217.53908,643.1062
20,0.158,-185.45122,274.18958,686.12872,-170.14952,281.42065,607.3725,-114.01237,217.53908,643.1062
21,0.167,-185.75801,274.25995,686.30841,-170.5062,281.35992,606.74677,-114.01237,217.53908,643.1062
22,0.175,-185.75801,274.25995,686.30841,-170.5062,281.35992,606.74677,-114.01237,217.53908,643.1062
23,0.183,-186.03168,274.34521,686.23785,-170.84845,281.26294,606.87189,-114.19516,217.38771,642.98187
24,0.192,-186.30971,274.57501,686.02924,-171.07628,281.3157,606.57385,-113.95525,217.77794,643.25525
25,0.2,-186.2113,274.45844,686.13678,-171.40233,281.37473,606.7475,-114.1475,218.2522,643.06567
26,0.208,-186.2113,274.45844,686.13678,-171.56956,281.81766,606.65833,-113.95525,217.77794,643.25525
27,0.217,-186.03168,274.34521,686.23785,-171.20338,281.73724,606.98749,-114.37756,217.63547,643.21149
28,0.225,-186.03168,274.34521,686.23785,-171.05821,281.89215,607.16241,-114.48737,217.71027,643.31451
29,0.233,-185.7489,274.58792,686.43823,-171.05821,281.89215,607.16241,-114.37756,217.63547,643.21149
30,0.242,-185.78258,275.50156,687.08441,-170.45985,281.88306,607.62146,-114.25951,218.3278,643.16986
31,0.25,-185.57095,275.30606,687.83057,-170.78592,281.94266,607.79517,-114.60058,218.27507,643.18414
32,0.258,-185.91527,275.36435,687.70837,-170.78592,281.94266,607.79517,-114.39317,218.41061,643.28644
33,0.267,-185.57095,275.30606,687.83057,-170.78592,281.94266,607.79517,-114.39317,218.41061,643.28644
34,0.275,-185.7271,275.28748,688.12274,-170.78592,281.94266,607.79517,-114.6004,217.95627,643.70245
35,0.283,-185.7271,275.28748,688.12274,-170.78592,281.94266,607.79517,-114.6004,217.95627,643.70245
36,0.292,-185.7271,275.28748,688.12274,-170.78592,281.94266,607.79517,-114.26349,218.52982,643.58337
37,0.3,-185.7271,275.28748,688.12274,-170.78592,281.94266,607.79517,-114.26349,218.52982,643.58337
38,0.308,-185.7271,275.28748,688.12274,-170.78592,281.94266,607.79517,-114.26349,218.52982,643.58337
39,0.317,-185.7271,275.28748,688.12274,-170.78592,281.94266,607.79517,-114.26349,218.52982,643.58337
40,0.325,-185.7271,275.28748,688.12274,-170.78592,281.94266,607.79517,-114.26349,218.52982,643.58337
41,0.333,-185.7271,275.28748,688.12274,-170.78592,281.94266,607.79517,-114.30058,218.0683,643.7605
42,0.342,-185.7271,275.28748,688.12274,-170.78592,281.94266,607.79517,-114.30058,218.0683,643.7605
43,0.35,-185.7271,275.28748,688.12274,-170.78592,281.94266,607.79517,-114.56335,218.41772,643.52533
44,0.358,-185.7271,275.28748,688.12274,-170.78592,281.94266,607.79517,-114.26349,218.52982,643.58337
45,0.367,-185.7271,275.28748,688.12274,-170.78592,281.94266,607.79517,-114.56335,218.41772,643.52533
46,0.375,-185.7271,275.28748,688.12274,-170.78592,281.94266,607.79517,-114.26349,218.52982,643.58337
47,0.383,-185.7271,275.28748,688.12274,-170.78592,281.94266,607.79517,-114.6004,217.95627,643.70245
48,0.392,-186.26425,274.78076,688.05652,-170.78592,281.94266,607.79517,-114.89429,217.68925,643.57233
49,0.4,-186.55557,274.74847,688.02997,-170.87814,281.78766,608.04291,-115.10434,217.56351,643.48114
50,0.408,-186.55557,274.74847,688.02997,-170.87814,281.78766,608.04291,-115.04935,217.64352,643.38824
51,0.417,-185.01274,275.69662,689.0282,-170.6187,281.49969,607.8844,-115.47189,217.26682,643.5708
52,0.425,-184.77599,275.61844,689.10321,-170.71098,281.34464,608.13214,-115.13725,217.17862,643.39471
53,0.433,-185.01274,275.69662,689.0282,-170.71098,281.34464,608.13214,-114.87919,217.63638,643.14929
54,0.442,-184.71346,275.19067,688.85779,-170.91393,281.31042,608.19623,-115.13696,217.8147,643.07825
55,0.45,-185.25285,274.86847,688.3479,-170.91393,281.31042,608.19623,-114.76119,217.78859,642.84033
56,0.458,-185.25285,274.86847,688.3479,-170.6187,281.49969,607.8844,-114.87669,217.62073,642.82697
57,0.467,-185.25285,274.86847,688.3479,-170.71098,281.34464,608.13214,-115.12376,217.43515,643.03479
58,0.475,-185.25285,274.86847,688.3479,-170.9433,281.27396,608.00226,-115.05049,217.69223,642.77161
59,0.483,-185.25285,274.86847,688.3479,-170.8562,281.18982,607.95728,-115.05049,217.69223,642.77161
60,0.492,-184.73885,274.77032,688.36694,-171.08472,280.68033,607.95013,-114.9938,217.60379,642.67493
61,0.5,-184.73885,274.77032,688.36694,-170.73648,280.86948,608.06097,-114.87669,217.62073,642.82697
62,0.508,-187.57971,272.98468,687.01971,-171.1718,280.76447,607.99512,-115.21999,217.0686,642.83319
63,0.517,-187.57971,272.98468,687.01971,-170.93947,280.83524,608.12506,-115.21999,217.0686,642.83319
64,0.525,-187.57971,272.98468,687.01971,-170.93947,280.83524,608.12506,-115.26754,217.25536,642.81207
65,0.533,-188.1703,272.35364,687.01117,-171.08472,280.68033,607.95013,-115.18118,217.34097,642.94482
66,0.542,-188.1703,272.35364,687.01117,-171.32799,280.44601,607.91064,-115.38067,217.14012,642.78754
67,0.55,-188.1703,272.35364,687.01117,-171.2023,280.58496,608.11255,-115.38067,217.14012,642.78754
68,0.558,-188.1703,272.35364,687.01117,-171.4346,280.51419,607.9826,-115.53756,217.17465,642.98981
69,0.567,-188.1703,272.35364,687.01117,-171.4346,280.51419,607.9826,-115.40544,216.91313,642.85699
70,0.575,-188.1703,272.35364,687.01117,-171.4346,280.51419,607.9826,-115.40544,216.91313,642.85699
71,0.583,-188.1703,272.35364,687.01117,-171.56027,280.37521,607.7807,-115.56234,216.94765,643.05933
72,0.592,-188.1703,272.35364,687.01117,-171.56027,280.37521,607.7807,-115.53756,217.17465,642.98981
73,0.6,-188.1703,272.35364,687.01117,-171.56027,280.37521,607.7807,-115.56234,216.94765,643.05933
74,0.608,-188.1703,272.35364,687.01117,-171.56027,280.37521,607.7807,-115.56234,216.94765,643.05933
75,0.617,-188.1703,272.35364,687.01117,-171.56027,280.37521,607.7807,-115.56234,216.94765,643.05933
76,0.625,-188.1703,272.35364,687.01117,-171.62,279.60583,607.69403,-115.56234,216.94765,643.05933
77,0.633,-188.1703,272.35364,687.01117,-171.62,279.60583,607.69403,-115.71821,216.88431,643.16376
78,0.642,-188.1703,272.35364,687.01117,-171.56027,280.37521,607.7807,-115.71821,216.88431,643.16376
79,0.65,-188.1703,272.35364,687.01117,-171.56027,280.37521,607.7807,-115.71821,216.88431,643.16376
80,0.658,-188.1703,272.35364,687.01117,-171.4346,280.51419,607.9826,-115.71821,216.88431,643.16376
81,0.667,-188.44621,272.90451,687.17328,-171.68523,280.4964,608.03534,-115.71821,216.88431,643.16376
82,0.675,-188.03764,272.84689,687.56635,-171.60413,279.66119,608.0011,-115.71821,216.88431,643.16376
83,0.683,-188.1703,272.35364,687.01117,-171.8405,279.66232,608.20557,-115.64802,217.16548,642.99976
84,0.692,-188.31367,273.39761,687.72839,-171.85774,280.3573,608.38287,-115.64802,217.16548,642.99976
85,0.7,-188.03764,272.84689,687.56635,-171.63986,280.36584,608.34448,-115.71821,216.88431,643.16376
86,0.708,-188.31367,273.39761,687.72839,-171.85774,280.3573,608.38287,-115.71821,216.88431,643.16376
87,0.717,-188.31367,273.39761,687.72839,-171.85774,280.3573,608.38287,-115.71821,216.88431,643.16376
88,0.725,-188.31367,273.39761,687.72839,-171.85774,280.3573,608.38287,-115.64413,217.11385,643.51746
89,0.733,-188.31367,273.39761,687.72839,-171.85774,280.3573,608.38287,-115.64413,217.11385,643.51746
90,0.742,-188.92014,273.42804,687.65863,-171.85774,280.3573,608.38287,-115.64413,217.11385,643.51746
91,0.75,-188.31367,273.39761,687.72839,-171.85774,280.3573,608.38287,-115.7708,216.81993,643.66229
92,0.758,-188.92014,273.42804,687.65863,-171.85774,280.3573,608.38287,-115.71821,216.88431,643.16376
93,0.767,-188.92014,273.42804,687.65863,-171.85774,280.3573,608.38287,-115.64413,217.11385,643.51746
94,0.775,-188.64413,272.87747,687.49664,-171.98933,280.2034,608.08923,-115.64413,217.11385,643.51746
95,0.783,-188.64413,272.87747,687.49664,-171.98933,280.2034,608.08923,-115.64413,217.11385,643.51746
96,0.792,-188.62248,271.67419,687.34497,-171.85774,280.3573,608.38287,-115.86752,217.0368,643.48138
97,0.8,-188.62248,271.67419,687.34497,-171.91753,279.58795,608.29633,-115.96395,216.84799,643.3656
98,0.808,-188.62248,271.67419,687.34497,-171.91753,279.58795,608.29633,-115.93443,216.9424,643.57928
99,0.817,-188.62248,271.67419,687.34497,-171.91753,279.58795,608.29633,-116.03087,216.75357,643.4635
100,0.825,-188.62248,271.67419,687.34497,-171.91753,279.58795,608.29633,-115.67947,216.93468,643.703
101,0.833,-188.62248,271.67419,687.34497,-171.91753,279.58795,608.29633,-115.93443,216.9424,643.57928
102,0.842,-188.81566,271.10892,687.40094,-171.91753,279.58795,608.29633,-115.93443,216.9424,643.57928
103,0.85,-188.62248,271.67419,687.34497,-171.91753,279.58795,608.29633,-116.30039,216.3246,643.60468
104,0.858,-188.81566,271.10892,687.40094,-171.91753,279.58795,608.29633,-116.30039,216.3246,643.60468
105,0.867,-188.62248,271.67419,687.34497,-171.91753,279.58795,608.29633,-116.03087,216.75357,643.4635
106,0.875,-188.62248,271.67419,687.34497,-171.91753,279.58795,608.29633,-116.23251,216.36444,643.66785
107,0.883,-188.62248,271.67419,687.34497,-171.91753,279.58795,608.29633,-116.30039,216.3246,643.60468
108,0.892,-188.62248,271.67419,687.34497,-171.91753,279.58795,608.29633,-115.96395,216.84799,643.3656
109,0.9,-188.62248,271.67419,687.34497,-172.04907,279.43402,608.00262,-115.96395,216.84799,643.3656
110,0.908,-188.62248,271.67419,687.34497,-172.04907,279.43402,608.00262,-115.96395,216.84799,643.3656
111,0.917,-188.62248,271.67419,687.34497,-172.04907,279.43402,608.00262,-115.96395,216.84799,643.3656
112,0.925,-188.62248,271.67419,687.34497,-171.98933,280.2034,608.08923,-115.74056,216.925,643.40173
113,0.933,-188.62248,271.67419,687.34497,-171.85774,280.3573,608.38287,-115.96395,216.84799,643.3656
114,0.942,-188.62248,271.67419,687.34497,-171.91753,279.58795,608.29633,-116.04325,216.46443,643.54218
115,0.95,-188.62248,271.67419,687.34497,-171.91753,279.58795,608.29633,-115.96395,216.84799,643.3656
116,0.958,-188.62248,271.67419,687.34497,-171.91753,279.58795,608.29633,-116.04325,216.46443,643.54218
117,0.967,-188.62248,271.67419,687.34497,-171.91753,279.58795,608.29633,-115.93528,216.74821,643.46869
118,0.975,-188.62248,271.67419,687.34497,-171.62544,280.4281,608.51282,-115.64413,217.11385,643.51746
119,0.983,-188.01576,271.64365,687.41473,-171.62544,280.4281,608.51282,-115.61547,217.01407,643.62054
120,0.992,-188.01576,271.64365,687.41473,-171.62544,280.4281,608.51282,-115.61547,217.01407,643.62054
121,1,-188.01576,271.64365,687.41473,-171.6286,279.79596,608.95953,-115.61547,217.01407,643.62054
122,1.008,-188.01576,271.64365,687.41473,-171.6286,279.79596,608.95953,-115.64413,217.11385,643.51746
123,1.017,-188.01576,271.64365,687.41473,-171.6286,279.79596,608.95953,-115.94495,216.54752,643.74377
124,1.025,-188.01576,271.64365,687.41473,-171.57016,279.7207,609.03314,-115.61547,217.01407,643.62054
125,1.033,-188.01576,271.64365,687.41473,-171.62544,280.4281,608.51282,-115.61547,217.01407,643.62054
126,1.042,-188.01576,271.64365,687.41473,-171.62544,280.4281,608.51282,-115.61313,217.07326,643.09106
127,1.05,-188.03764,272.84689,687.56635,-171.54895,280.18796,608.91309,-115.74291,216.67111,643.30426
128,1.058,-188.01576,271.64365,687.41473,-171.6286,279.79596,608.95953,-115.61313,217.07326,643.09106
129,1.067,-188.01576,271.64365,687.41473,-171.6286,279.79596,608.95953,-115.67947,216.93468,643.703
130,1.075,-187.73471,271.58801,687.52216,-171.6286,279.79596,608.95953,-115.94495,216.54752,643.74377
131,1.083,-188.01576,271.64365,687.41473,-171.6286,279.79596,608.95953,-115.94495,216.54752,643.74377
132,1.092,-188.01576,271.64365,687.41473,-171.60736,280.26318,608.83948,-115.61313,217.07326,643.09106
133,1.1,-189.51761,271.52002,687.73718,-171.62544,280.4281,608.51282,-115.49438,216.63071,643.18817
134,1.108,-188.67664,271.80551,687.76367,-171.62544,280.4281,608.51282,-115.46495,216.60245,643.15723
135,1.117,-188.57144,271.61172,687.54663,-171.60736,280.26318,608.83948,-116.01647,216.37506,643.63483
136,1.125,-187.92561,271.73175,687.4729,-171.6286,279.79596,608.95953,-115.23269,216.64474,643.72113
137,1.133,-187.83562,272.09015,687.79059,-171.36679,279.72156,609.00494,-116.24266,216.4951,643.87744
138,1.142,-187.64352,271.98972,687.88092,-171.57016,279.7207,609.03314,-116.35237,216.28224,643.73291
139,1.15,-188.79875,269.90829,686.22577,-171.36369,280.35376,608.55823,-115.82066,216.80968,643.03607
140,1.158,-188.65732,270.25711,686.27521,-171.36369,280.35376,608.55823,-116.0622,216.44235,643.09949
141,1.167,-188.15054,270.83466,686.67957,-171.40755,280.43658,608.47437,-116.2653,216.34828,643.65045
142,1.175,-187.35455,270.93854,686.54858,-171.4234,279.58429,608.47168,-116.2653,216.34828,643.65045
143,1.183,-187.73471,271.58801,687.52216,-171.46729,279.66718,608.38782,-116.2653,216.34828,643.65045
144,1.192,-186.35599,271.84979,687.13147,-171.46729,279.66718,608.38782,-115.81393,216.84209,643.54407
145,1.2,-184.86713,272.73932,688.23871,-171.36369,280.35376,608.55823,-115.77927,216.61171,643.35474
146,1.208,-185.12022,272.83841,687.96429,-171.36369,280.35376,608.55823,-115.53606,216.56642,643.42731
147,1.217,-186.36378,272.57803,688.43634,-171.36369,280.35376,608.55823,-115.66675,216.16232,643.38647
148,1.225,-187.47263,271.90396,687.74872,-171.4234,279.58429,608.47168,-115.53594,216.24844,643.29871
149,1.233,-187.55316,271.43631,687.86548,-171.4234,279.58429,608.47168,-116.06965,215.71614,643.48657
150,1.242,-187.66472,272.00443,687.65839,-171.46729,279.66718,608.38782,-115.66675,216.16232,643.38647
151,1.25,-187.8636,271.59225,687.17743,-171.4234,279.58429,608.47168,-116.16868,215.83897,643.34576
152,1.258,-187.67145,271.49185,687.26782,-171.36369,280.35376,608.55823,-116.06965,215.71614,643.48657
153,1.267,-187.78308,272.05994,687.06067,-171.40755,280.43658,608.47437,-115.77918,216.29373,643.22614
154,1.275,-187.8636,271.59225,687.17743,-171.4234,279.58429,608.47168,-116.25577,215.77292,643.42822
155,1.283,-187.8636,271.59225,687.17743,-171.46729,279.66718,608.38782,-115.88123,216.21074,643.31268
156,1.292,-187.8636,271.59225,687.17743,-171.65572,279.51355,608.34174,-116.25577,215.77292,643.42822
157,1.3,-187.8636,271.59225,687.17743,-171.65572,279.51355,608.34174,-116.25577,215.77292,643.42822
158,1.308,-187.8636,271.59225,687.17743,-171.60413,279.66119,608.0011,-116.25577,215.77292,643.42822
159,1.317,-187.8636,271.59225,687.17743,-171.6859,279.43936,607.883,-115.73206,215.78497,643.4422
160,1.325,-188.12457,271.31964,686.99182,-171.83113,279.4425,607.96417,-116.25577,215.77292,643.42822
161,1.333,-188.12457,271.31964,686.99182,-171.83113,279.4425,607.96417,-116.25577,215.77292,643.42822
162,1.342,-188.12457,271.31964,686.99182,-171.83113,279.4425,607.96417,-116.25577,215.77292,643.42822
163,1.35,-188.12457,271.31964,686.99182,-172.04907,279.43402,608.00262,-116.25577,215.77292,643.42822
164,1.358,-188.60129,271.15991,686.70154,-172.04907,279.43402,608.00262,-116.25577,215.77292,643.42822
165,1.367,-188.94304,271.33139,686.96582,-172.04907,279.43402,608.00262,-116.47195,215.81892,643.38422
166,1.375,-189.11772,271.21677,686.65021,-171.94772,279.51376,607.83759,-116.6059,215.72403,643.10309
167,1.383,-189.40718,271.3468,686.36951,-171.94772,279.51376,607.83759,-116.13073,216.24423,643.25323
168,1.392,-189.39252,271.57498,686.58429,-171.94772,279.51376,607.83759,-116.16542,216.79263,643.57117
169,1.4,-189.40718,271.3468,686.36951,-172.40204,279.50699,607.84094,-116.9769,216.12941,643.54431
170,1.408,-189.66779,271.77524,686.69397,-172.40204,279.50699,607.84094,-116.16542,216.79263,643.57117
171,1.417,-189.99989,272.36847,686.91351,-172.40204,279.50699,607.84094,-116.16542,216.79263,643.57117
172,1.425,-190.77151,272.04694,686.88257,-172.40204,279.50699,607.84094,-116.3908,216.73347,643.62018
173,1.433,-191.27989,272.06549,687.05011,-172.34218,280.27625,607.92755,-117.17096,216.09245,643.59766
174,1.442,-190.34602,271.83307,686.50073,-172.40204,279.50699,607.84094,-116.63737,216.7625,643.56635
175,1.45,-190.64668,271.72836,686.5401,-172.62547,279.56348,607.80988,-117.38457,216.13434,643.55859
176,1.458,-190.64668,271.72836,686.5401,-173.08826,279.64337,607.76917,-117.38457,216.13434,643.55859
177,1.467,-190.78461,272.01135,686.94965,-173.25949,279.71939,607.70984,-116.63737,216.7625,643.56635
178,1.475,-190.59132,272.57663,686.89374,-173.4782,279.77765,607.67621,-117.38457,216.13434,643.55859
179,1.483,-190.59132,272.57663,686.89374,-173.74515,279.51767,607.6026,-117.97978,216.19916,643.65692
180,1.492,-190.59132,272.57663,686.89374,-173.41798,280.54654,607.76288,-117.38457,216.13434,643.55859
181,1.5,-190.59132,272.57663,686.89374,-173.4782,279.77765,607.67621,-117.97978,216.19916,643.65692
182,1.508,-190.59132,272.57663,686.89374,-173.4782,279.77765,607.67621,-117.38457,216.13434,643.55859
183,1.517,-190.59132,272.57663,686.89374,-173.4782,279.77765,607.67621,-117.3144,216.78033,643.64258
184,1.525,-190.59132,272.57663,686.89374,-173.37686,279.85733,607.51129,-117.79158,216.80672,643.51349
185,1.533,-190.59132,272.57663,686.89374,-173.37686,279.85733,607.51129,-117.79158,216.80672,643.51349
186,1.542,-190.59132,272.57663,686.89374,-173.41798,280.54654,607.76288,-117.74119,216.90662,643.4032
187,1.55,-190.59132,272.57663,686.89374,-173.41798,280.54654,607.76288,-117.6302,217.04855,643.67261
188,1.558,-190.59132,272.57663,686.89374,-173.41798,280.54654,607.76288,-117.5798,217.14847,643.56232
189,1.567,-190.59132,272.57663,686.89374,-174.46272,281.41241,607.7796,-117.32795,217.32303,642.99017
190,1.575,-190.59132,272.57663,686.89374,-174.52324,280.64392,607.69305,-117.4505,217.46115,643.49402
191,1.583,-190.59132,272.57663,686.89374,-174.42462,281.50021,607.67963,-117.92761,217.48779,643.36505
192,1.592,-190.94235,272.58209,686.4046,-174.37941,281.80408,607.39594,-117.92761,217.48779,643.36505
193,1.6,-190.94235,272.58209,686.4046,-174.37941,281.80408,607.39594,-117.67804,217.66159,642.81824
194,1.608,-190.80899,273.0759,686.96045,-174.23636,281.78436,607.05762,-117.8877,217.91539,642.79742
195,1.617,-190.80899,273.0759,686.96045,-174.21054,282.25967,607.12891,-117.54034,217.66476,642.80707
196,1.625,-190.94235,272.58209,686.4046,-174.34998,282.09241,607.3938,-117.54034,217.66476,642.80707
