Frame#,Time,L.Forearm.x,L.Forearm.y,L.Forearm.z,L.Ulna.x,L.Ulna.y,L.Ulna.z,L.Radius.x,L.Radius.y,L.Radius.z
1,0,-204.50191,333.94055,837.40057,-147.67226,326.70871,770.01788,-134.17073,263.09082,828.54742
2,0.008,-204.40715,334.16165,837.32043,-147.28279,326.4397,769.83282,-134.18439,263.15833,828.07135
3,0.017,-204.35619,334.22589,837.23181,-146.99193,326.82736,769.72021,-134.09325,263.20145,827.88519
4,0.025,-204.35619,334.22589,837.23181,-146.99193,326.82736,769.72021,-133.94781,263.1315,827.72815
5,0.033,-204.35619,334.22589,837.23181,-146.99193,326.82736,769.72021,-133.94781,263.1315,827.72815
6,0.042,-203.9072,333.9971,836.93628,-146.99193,326.82736,769.72021,-133.94781,263.1315,827.72815
7,0.05,-203.9072,333.9971,836.93628,-146.99193,326.82736,769.72021,-133.94781,263.1315,827.72815
8,0.058,-203.9072,333.9971,836.93628,-146.99193,326.82736,769.72021,-133.94781,263.1315,827.72815
9,0.067,-203.96811,333.97476,836.43549,-146.9818,326.7507,769.43164,-133.93187,263.25253,827.60614
10,0.075,-203.94908,334.1373,836.79437,-146.9818,326.7507,769.43164,-133.93187,263.25253,827.60614
11,0.083,-204.01001,334.11493,836.29358,-146.9818,326.7507,769.43164,-133.93187,263.25253,827.60614
12,0.092,-204.01001,334.11493,836.29358,-146.9818,326.7507,769.43164,-133.93187,263.25253,827.60614
13,0.1,-204.01001,334.11493,836.29358,-146.9818,326.7507,769.43164,-133.93187,263.25253,827.60614
14,0.108,-204.01001,334.11493,836.29358,-146.9818,326.7507,769.43164,-133.93187,263.25253,827.60614
15,0.117,-204.04529,334.23199,836.18457,-146.9818,326.7507,769.43164,-133.93187,263.25253,827.60614
16,0.125,-204.04529,334.23199,836.18457,-146.9818,326.7507,769.43164,-133.93187,263.25253,827.60614
17,0.133,-204.04529,334.23199,836.18457,-146.9818,326.7507,769.43164,-134.06096,263.25262,827.47559
18,0.142,-204.25029,334.11035,836.09174,-146.9818,326.7507,769.43164,-134.06096,263.25262,827.47559
19,0.15,-204.25029,334.11035,836.09174,-146.9818,326.7507,769.43164,-133.93187,263.25253,827.60614
20,0.158,-204.25029,334.11035,836.09174,-146.9818,326.7507,769.43164,-134.06096,263.25262,827.47559
21,0.167,-204.25029,334.11035,836.09174,-146.9818,326.7507,769.43164,-134.06096,263.25262,827.47559
22,0.175,-204.25029,334.11035,836.09174,-146.98068,326.86728,769.31494,-134.03703,263.47577,827.3056
23,0.183,-204.25029,334.11035,836.09174,-146.98068,326.86728,769.31494,-134.03703,263.47577,827.3056
24,0.192,-204.28819,334.2197,835.492,-147.1759,326.58871,769.13391,-134.03703,263.47577,827.3056
25,0.2,-204.28819,334.2197,835.492,-147.50204,326.82547,769.33618,-134.03703,263.47577,827.3056
26,0.208,-204.75955,334.21851,835.47021,-147.30676,327.10403,769.51727,-134.08383,263.66995,827.25067
27,0.217,-204.75955,334.21851,835.47021,-147.50204,326.82547,769.33618,-134.08383,263.66995,827.25067
28,0.225,-204.93353,334.21765,835.54218,-147.50204,326.82547,769.33618,-134.28932,263.69196,827.2572
29,0.233,-205.11726,334.41611,835.90393,-147.50204,326.82547,769.33618,-134.28932,263.69196,827.2572
30,0.242,-204.97879,334.54147,835.71478,-147.50204,326.82547,769.33618,-134.28932,263.69196,827.2572
31,0.25,-204.86169,333.90564,833.68671,-147.50204,326.82547,769.33618,-134.28932,263.69196,827.2572
32,0.258,-205.03891,334.13474,834.15228,-148.19986,327.1897,769.41681,-134.28932,263.69196,827.2572
33,0.267,-205.22414,334.22397,834.09698,-148.33635,326.95123,769.21649,-135.12524,263.99313,827.14386
34,0.275,-205.24126,334.34918,833.97479,-148.33635,326.95123,769.21649,-135.12524,263.99313,827.14386
35,0.283,-205.24126,334.34918,833.97479,-148.33635,326.95123,769.21649,-135.12524,263.99313,827.14386
36,0.292,-205.24126,334.34918,833.97479,-148.64937,327.43521,769.35883,-135.12524,263.99313,827.14386
37,0.3,-205.24126,334.34918,833.97479,-148.64937,327.43521,769.35883,-135.59431,264.48706,827.02032
38,0.308,-205.24126,334.34918,833.97479,-148.64937,327.43521,769.35883,-135.59431,264.48706,827.02032
39,0.317,-205.74292,334.55258,834.01654,-148.64937,327.43521,769.35883,-135.86598,264.23868,826.89722
40,0.325,-205.74292,334.55258,834.01654,-148.64937,327.43521,769.35883,-135.59431,264.48706,827.02032
41,0.333,-205.74292,334.55258,834.01654,-148.83298,327.48541,769.13391,-135.86598,264.23868,826.89722
42,0.342,-206.08226,334.76947,834.27026,-148.83298,327.48541,769.13391,-135.99739,264.31976,826.83521
43,0.35,-206.36868,334.54251,834.14337,-149.18581,326.99902,769.04578,-136.36249,264.3992,826.56305
44,0.358,-206.36868,334.54251,834.14337,-149.57063,326.89368,769.18237,-136.36249,264.3992,826.56305
45,0.367,-206.36868,334.54251,834.14337,-149.74002,327.02139,769.13812,-136.508,264.46906,826.72021
46,0.375,-206.76045,333.85345,833.93518,-149.91074,327.02188,769.22107,-136.74808,264.15714,826.74927
47,0.383,-207.1255,333.38818,833.94116,-150.11053,327.19455,769.45795,-136.508,264.46906,826.72021
48,0.392,-207.39417,333.23389,833.62152,-150.11053,327.19455,769.45795,-136.89693,264.1062,826.82025
49,0.4,-208.25566,333.91885,833.4845,-150.39012,327.30054,769.2359,-137.66754,264.38046,826.7572
50,0.408,-208.25566,333.91885,833.4845,-150.39012,327.30054,769.2359,-137.66754,264.38046,826.7572
51,0.417,-208.25566,333.91885,833.4845,-150.70277,327.11276,769.09277,-137.77565,264.68985,826.72778
52,0.425,-208.25566,333.91885,833.4845,-150.70277,327.11276,769.09277,-137.77565,264.68985,826.72778
53,0.433,-208.52072,333.95953,833.49225,-150.70277,327.11276,769.09277,-137.77565,264.68985,826.72778
54,0.442,-208.90477,334.01065,833.22339,-150.70277,327.11276,769.09277,-137.77565,264.68985,826.72778
55,0.45,-209.164,333.79858,833.39771,-151.18221,327.39175,769.1076,-137.77565,264.68985,826.72778
56,0.458,-209.164,333.79858,833.39771,-151.18221,327.39175,769.1076,-137.77565,264.68985,826.72778
57,0.467,-209.164,333.79858,833.39771,-151.18221,327.39175,769.1076,-137.97083,264.55624,826.64716
58,0.475,-209.64725,333.88605,833.39893,-151.18221,327.39175,769.1076,-137.97083,264.55624,826.64716
59,0.483,-209.64725,333.88605,833.39893,-151.18221,327.39175,769.1076,-138.28397,264.42215,826.67267
60,0.492,-209.64725,333.88605,833.39893,-151.9438,326.33279,769.01154,-138.28397,264.42215,826.67267
61,0.5,-209.64725,333.88605,833.39893,-151.38683,327.41562,769.1839,-138.28397,264.42215,826.67267
62,0.508,-209.55029,334.30997,834.84375,-151.38683,327.41562,769.1839,-138.28397,264.42215,826.67267
63,0.517,-209.87086,334.08386,834.68091,-151.38683,327.41562,769.1839,-138.28397,264.42215,826.67267
64,0.525,-209.64725,333.88605,833.39893,-151.90923,327.05273,769.0816,-138.28397,264.42215,826.67267
65,0.533,-209.87086,334.08386,834.68091,-151.90923,327.05273,769.0816,-138.28397,264.42215,826.67267
66,0.542,-209.87086,334.08386,834.68091,-151.90923,327.05273,769.0816,-138.28397,264.42215,826.67267
67,0.55,-209.87086,334.08386,834.68091,-151.90923,327.05273,769.0816,-138.23599,264.4939,827.20825
68,0.558,-209.69949,333.99582,833.29877,-151.90923,327.05273,769.0816,-138.23599,264.4939,827.20825
69,0.567,-209.87086,334.08386,834.68091,-151.90923,327.05273,769.0816,-138.23599,264.4939,827.20825
70,0.575,-209.87086,334.08386,834.68091,-151.90923,327.05273,769.0816,-138.28397,264.42215,826.67267
71,0.583,-209.69949,333.99582,833.29877,-152.15875,327.14676,769.11017,-138.41145,264.45694,827.2691
72,0.592,-209.87086,334.08386,834.68091,-152.15875,327.14676,769.11017,-138.41145,264.45694,827.2691
73,0.6,-209.87086,334.08386,834.68091,-152.15875,327.14676,769.11017,-138.41145,264.45694,827.2691
74,0.608,-209.87086,334.08386,834.68091,-152.15875,327.14676,769.11017,-138.41145,264.45694,827.2691
75,0.617,-209.87086,334.08386,834.68091,-152.15875,327.14676,769.11017,-138.71313,264.11298,827.40417
76,0.625,-209.69949,333.99582,833.29877,-152.66054,326.1459,768.935,-139.02621,263.97882,827.42975
77,0.633,-209.87086,334.08386,834.68091,-152.15875,327.14676,769.11017,-139.02621,263.97882,827.42975
78,0.642,-209.69949,333.99582,833.29877,-152.19023,326.854,769.27765,-139.02621,263.97882,827.42975
79,0.65,-209.80844,333.98233,834.76227,-152.19023,326.854,769.27765,-139.02621,263.97882,827.42975
80,0.658,-209.69949,333.99582,833.29877,-152.51665,327.09109,769.48004,-139.02621,263.97882,827.42975
81,0.667,-209.84973,333.89847,834.86761,-152.51665,327.09109,769.48004,-139.23189,264.00095,827.43634
82,0.675,-209.84973,333.89847,834.86761,-152.51665,327.09109,769.48004,-139.23189,264.00095,827.43634
83,0.683,-209.84973,333.89847,834.86761,-152.51665,327.09109,769.48004,-139.17935,263.75626,827.46918
84,0.692,-209.9882,333.77328,835.05652,-152.51665,327.09109,769.48004,-139.38504,263.77838,827.47577
85,0.7,-209.9882,333.77328,835.05652,-152.51665,327.09109,769.48004,-139.38504,263.77838,827.47577
86,0.708,-209.84973,333.89847,834.86761,-152.51665,327.09109,769.48004,-139.38504,263.77838,827.47577
87,0.717,-209.84973,333.89847,834.86761,-152.51665,327.09109,769.48004,-139.17935,263.75626,827.46918
88,0.725,-209.84973,333.89847,834.86761,-152.51665,327.09109,769.48004,-139.17935,263.75626,827.46918
89,0.733,-209.9882,333.77328,835.05652,-152.51665,327.09109,769.48004,-139.17935,263.75626,827.46918
90,0.742,-209.9882,333.77328,835.05652,-152.51665,327.09109,769.48004,-139.17935,263.75626,827.46918
91,0.75,-209.9882,333.77328,835.05652,-152.51665,327.09109,769.48004,-139.17935,263.75626,827.46918
92,0.758,-209.71968,333.77002,833.52863,-152.51665,327.09109,769.48004,-139.17935,263.75626,827.46918
93,0.767,-209.71968,333.77002,833.52863,-152.51665,327.09109,769.48004,-139.17935,263.75626,827.46918
94,0.775,-209.71968,333.77002,833.52863,-152.26714,326.99716,769.4516,-139.17935,263.75626,827.46918
95,0.783,-209.84973,333.89847,834.86761,-152.29103,326.89987,769.56024,-139.17935,263.75626,827.46918
96,0.792,-209.84973,333.89847,834.86761,-152.51796,326.97467,769.5968,-139.17935,263.75626,827.46918
97,0.8,-209.9882,333.77328,835.05652,-152.51796,326.97467,769.5968,-139.17935,263.75626,827.46918
98,0.808,-209.9882,333.77328,835.05652,-152.29103,326.89987,769.56024,-139.17935,263.75626,827.46918
99,0.817,-209.9882,333.77328,835.05652,-152.26714,326.99716,769.4516,-139.17935,263.75626,827.46918
100,0.825,-209.9882,333.77328,835.05652,-152.29103,326.89987,769.56024,-139.17935,263.75626,827.46918
101,0.833,-209.84973,333.89847,834.86761,-152.29103,326.89987,769.56024,-139.17935,263.75626,827.46918
102,0.842,-209.84973,333.89847,834.86761,-151.96457,326.66266,769.35785,-139.17935,263.75626,827.46918
103,0.85,-209.84973,333.89847,834.86761,-151.96457,326.66266,769.35785,-139.17935,263.75626,827.46918
104,0.858,-209.84973,333.89847,834.86761,-151.96457,326.66266,769.35785,-139.17935,263.75626,827.46918
105,0.867,-209.9882,333.77328,835.05652,-151.96457,326.66266,769.35785,-139.17935,263.75626,827.46918
106,0.875,-209.9882,333.77328,835.05652,-151.96457,326.66266,769.35785,-139.17935,263.75626,827.46918
107,0.883,-209.84973,333.89847,834.86761,-151.96457,326.66266,769.35785,-139.17935,263.75626,827.46918
108,0.892,-209.51646,333.7739,835.0788,-151.96457,326.66266,769.35785,-139.17935,263.75626,827.46918
109,0.9,-209.51646,333.7739,835.0788,-151.96457,326.66266,769.35785,-139.0712,263.44678,827.4986
110,0.908,-209.33519,333.38361,835.08295,-152.1777,326.31647,769.40625,-139.0712,263.44678,827.4986
111,0.917,-209.66849,333.50821,834.87177,-151.96457,326.66266,769.35785,-139.0712,263.44678,827.4986
112,0.925,-209.33519,333.38361,835.08295,-152.1777,326.31647,769.40625,-139.0712,263.44678,827.4986
113,0.933,-209.33519,333.38361,835.08295,-151.78322,326.71658,769.47711,-139.0712,263.44678,827.4986
114,0.942,-209.12976,333.26385,835.12494,-151.86479,326.50366,769.54913,-138.99312,263.37256,827.64215
115,0.95,-209.12976,333.26385,835.12494,-151.86479,326.50366,769.54913,-138.99312,263.37256,827.64215
116,0.958,-209.12976,333.26385,835.12494,-151.78322,326.71658,769.47711,-138.99312,263.37256,827.64215
117,0.967,-209.12976,333.26385,835.12494,-151.38513,326.22461,769.5343,-138.99312,263.37256,827.64215
118,0.975,-209.12976,333.26385,835.12494,-151.02388,326.33167,769.68439,-138.99312,263.37256,827.64215
119,0.983,-209.12976,333.26385,835.12494,-151.02388,326.33167,769.68439,-138.99312,263.37256,827.64215
120,0.992,-209.12976,333.26385,835.12494,-151.02388,326.33167,769.68439,-138.6801,263.50671,827.61658
121,1,-209.46307,333.38858,834.91376,-151.02388,326.33167,769.68439,-138.6801,263.50671,827.61658
122,1.008,-209.12976,333.26385,835.12494,-151.02388,326.33167,769.68439,-138.6801,263.50671,827.61658
123,1.017,-209.12976,333.26385,835.12494,-151.02388,326.33167,769.68439,-138.6801,263.50671,827.61658
124,1.025,-209.12976,333.26385,835.12494,-151.02388,326.33167,769.68439,-138.50459,263.5437,827.55573
125,1.033,-209.12976,333.26385,835.12494,-151.02388,326.33167,769.68439,-138.50459,263.5437,827.55573
126,1.042,-208.98312,333.16702,833.84082,-151.02388,326.33167,769.68439,-138.50459,263.5437,827.55573
127,1.05,-208.87663,333.1846,835.10492,-151.02388,326.33167,769.68439,-138.50459,263.5437,827.55573
128,1.058,-209.20993,333.30942,834.89374,-151.02388,326.33167,769.68439,-138.50459,263.5437,827.55573
129,1.067,-208.87663,333.1846,835.10492,-151.02388,326.33167,769.68439,-138.50459,263.5437,827.55573
130,1.075,-208.87663,333.1846,835.10492,-151.02388,326.33167,769.68439,-138.55258,263.47198,827.01996
131,1.083,-208.87663,333.1846,835.10492,-150.71088,325.84793,769.54205,-138.55258,263.47198,827.01996
132,1.092,-208.87663,333.1846,835.10492,-150.71088,325.84793,769.54205,-138.63066,263.54617,826.87634
133,1.1,-209.20993,333.30942,834.89374,-150.52118,325.83395,769.46301,-138.55258,263.47198,827.01996
134,1.108,-208.62358,333.10556,835.08496,-150.71088,325.84793,769.54205,-138.55258,263.47198,827.01996
135,1.117,-208.87663,333.1846,835.10492,-150.52118,325.83395,769.46301,-138.63066,263.54617,826.87634
136,1.125,-208.95689,333.23044,834.87378,-150.83423,326.31772,769.60535,-138.63066,263.54617,826.87634
137,1.133,-208.39282,333.10764,833.79187,-151.03485,324.85745,769.32172,-138.63066,263.54617,826.87634
138,1.142,-208.61848,333.51242,835.18634,-150.75279,326.53091,769.53339,-138.63066,263.54617,826.87634
139,1.15,-208.68793,333.13721,833.81628,-151.25804,325.56937,769.26636,-138.63066,263.54617,826.87634
140,1.158,-208.69873,333.55823,834.95526,-150.99359,326.72415,769.20532,-138.63066,263.54617,826.87634
141,1.167,-209.20993,333.30942,834.89374,-150.40089,326.13458,769.28503,-138.16437,263.90283,826.81146
142,1.175,-208.95689,333.23044,834.87378,-150.71394,326.61826,769.42743,-138.16437,263.90283,826.81146
143,1.183,-208.95689,333.23044,834.87378,-150.99359,326.72415,769.20532,-137.86273,264.24686,826.67651
144,1.192,-208.69873,333.55823,834.95526,-150.69788,326.49591,768.96539,-137.09209,263.97263,826.73962
145,1.2,-208.71841,333.67496,834.84015,-150.69788,326.49591,768.96539,-137.09209,263.97263,826.73962
146,1.208,-208.71841,333.67496,834.84015,-150.69788,326.49591,768.96539,-137.09209,263.97263,826.73962
147,1.217,-208.71841,333.67496,834.84015,-150.69788,326.49591,768.96539,-137.09209,263.97263,826.73962
148,1.225,-208.97658,333.34717,834.75867,-150.69788,326.49591,768.96539,-137.09209,263.97263,826.73962
149,1.233,-208.7939,333.47363,834.61475,-150.69788,326.49591,768.96539,-137.09209,263.97263,826.73962
150,1.242,-208.53574,333.80139,834.69623,-150.64139,326.54941,768.63538,-137.09209,263.97263,826.73962
151,1.25,-208.53574,333.80139,834.69623,-150.64139,326.54941,768.63538,-137.09209,263.97263,826.73962
152,1.258,-208.53574,333.80139,834.69623,-150.64139,326.54941,768.63538,-137.09209,263.97263,826.73962
153,1.267,-208.53574,333.80139,834.69623,-150.64139,326.54941,768.63538,-137.09209,263.97263,826.73962
154,1.275,-208.7939,333.47363,834.61475,-150.64139,326.54941,768.63538,-137.09209,263.97263,826.73962
155,1.283,-208.7939,333.47363,834.61475,-150.40843,326.86423,768.59662,-137.09209,263.97263,826.73962
156,1.292,-208.53574,333.80139,834.69623,-150.40843,326.86423,768.59662,-137.09209,263.97263,826.73962
157,1.3,-208.53574,333.80139,834.69623,-150.40843,326.86423,768.59662,-137.09209,263.97263,826.73962
158,1.308,-208.53574,333.80139,834.69623,-150.40843,326.86423,768.59662,-137.09209,263.97263,826.73962
159,1.317,-208.543,333.7384,834.44574,-150.40843,326.86423,768.59662,-137.09209,263.97263,826.73962
160,1.325,-208.543,333.7384,834.44574,-150.40843,326.86423,768.59662,-137.09209,263.97263,826.73962
161,1.333,-208.543,333.7384,834.44574,-150.40843,326.86423,768.59662,-137.09209,263.97263,826.73962
162,1.342,-208.543,333.7384,834.44574,-150.40843,326.86423,768.59662,-137.02487,264.06305,826.64087
163,1.35,-208.51295,333.51144,833.20691,-150.40843,326.86423,768.59662,-137.09209,263.97263,826.73962
164,1.358,-208.86761,333.31308,834.28125,-150.40843,326.86423,768.59662,-137.09209,263.97263,826.73962
165,1.367,-208.543,333.7384,834.44574,-150.40843,326.86423,768.59662,-136.94664,263.90274,826.58246
166,1.375,-208.543,333.7384,834.44574,-150.40843,326.86423,768.59662,-136.96506,264.00241,826.48645
167,1.383,-208.543,333.7384,834.44574,-150.40843,326.86423,768.59662,-137.09209,263.97263,826.73962
168,1.392,-208.51295,333.51144,833.20691,-151.02049,325.80832,768.51086,-136.87941,263.99316,826.4837
169,1.4,-208.86761,333.31308,834.28125,-150.63989,326.89014,768.38171,-136.90158,264.07825,826.40271
170,1.408,-208.51295,333.51144,833.20691,-150.40843,326.86423,768.59662,-137.04704,264.14813,826.55988
171,1.417,-208.543,333.7384,834.44574,-150.63989,326.89014,768.38171,-136.90158,264.07825,826.40271
172,1.425,-208.66483,333.86865,834.35822,-150.63989,326.89014,768.38171,-137.04704,264.14813,826.55988
173,1.433,-208.543,333.7384,834.44574,-150.63989,326.89014,768.38171,-136.90158,264.07825,826.40271
174,1.442,-208.77271,333.8212,834.45221,-150.63989,326.89014,768.38171,-137.04704,264.14813,826.55988
175,1.45,-208.88472,333.95584,834.35614,-150.63989,326.89014,768.38171,-137.04704,264.14813,826.55988
176,1.458,-209.09732,333.39587,834.28772,-150.63989,326.89014,768.38171,-137.04704,264.14813,826.55988
177,1.467,-208.88376,333.68967,833.09637,-150.87288,326.57532,768.42047,-137.04704,264.14813,826.55988
178,1.475,-208.88376,333.68967,833.09637,-150.87288,326.57532,768.42047,-137.04704,264.14813,826.55988
179,1.483,-208.88472,333.95584,834.35614,-150.63989,326.89014,768.38171,-137.11052,264.0723,826.64362
180,1.492,-208.77271,333.8212,834.45221,-150.63989,326.89014,768.38171,-137.20023,264.2822,826.71021
181,1.5,-208.95398,334.2114,834.44812,-150.63989,326.89014,768.38171,-137.20023,264.2822,826.71021
182,1.508,-209.06599,334.34598,834.35205,-151.32173,326.84558,768.47278,-137.86273,264.24686,826.67651
183,1.517,-209.39061,333.92084,834.18756,-151.32173,326.84558,768.47278,-137.20023,264.2822,826.71021
184,1.525,-209.27858,333.78619,834.28369,-151.64803,327.08249,768.67517,-137.97083,264.55624,826.64716
185,1.533,-209.39061,333.92084,834.18756,-151.64803,327.08249,768.67517,-138.17584,264.11273,826.70203
186,1.542,-209.46129,333.65973,834.42761,-151.64803,327.08249,768.67517,-137.86273,264.24686,826.67651
187,1.55,-209.27858,333.78619,834.28369,-151.64803,327.08249,768.67517,-137.86273,264.24686,826.67651
188,1.558,-209.164,333.79858,833.39771,-151.64803,327.08249,768.67517,-138.28397,264.42215,826.67267
189,1.567,-209.17622,334.02383,833.26001,-151.64803,327.08249,768.67517,-137.97083,264.55624,826.64716
190,1.575,-209.57332,333.79437,834.33154,-151.64803,327.08249,768.67517,-138.28397,264.42215,826.67267
191,1.583,-209.69171,333.7207,834.45752,-151.64803,327.08249,768.67517,-138.28397,264.42215,826.67267
192,1.592,-209.94466,333.9234,834.34753,-151.64803,327.08249,768.67517,-138.28397,264.42215,826.67267
193,1.6,-209.94466,333.9234,834.34753,-151.64803,327.08249,768.67517,-138.28397,264.42215,826.67267
194,1.608,-209.88223,333.82187,834.42889,-151.64803,327.08249,768.67517,-138.28397,264.42215,826.67267
195,1.617,-209.94466,333.9234,834.34753,-151.64803,327.08249,768.67517,-138.28397,264.42215,826.67267
196,1.625,-209.88223,333.82187,834.42889,-151.85269,327.10632,768.75146,-138.28397,264.42215,826.67267
