Frame#,Time,R.Forearm.x,R.Forearm.y,R.Forearm.z,R.Ulna.x,R.Ulna.y,R.Ulna.z,R.Radius.x,R.Radius.y,R.Radius.z
1,0,-1114.3186,-318.3996,909.68481,-1134.90161,-344.10529,824.81189,-1059.55603,-335.33868,779.18005
2,0.008,-1107.14124,-317.61011,911.18799,-1126.11816,-346.01608,826.43219,-1048.88928,-336.15814,781.44818
3,0.017,-1099.03442,-318.69189,912.0813,-1116.37427,-346.6297,827.56763,-1037.56934,-336.19662,784.1944
4,0.025,-1090.61169,-319.86047,912.92841,-1106.55859,-347.28537,828.8335,-1029.11145,-337.9162,786.75189
5,0.033,-1082.06824,-318.63922,914.36847,-1096.354,-347.70889,827.34674,-1017.84924,-336.10477,788.79498
6,0.042,-1073.85974,-320.19473,914.69482,-1087.05164,-347.90408,828.90869,-1007.83313,-338.27249,790.11975
7,0.05,-1065.87524,-320.09641,915.88757,-1076.91052,-348.46774,829.48132,-997.09937,-337.55887,791.12262
8,0.058,-1058.37073,-319.97647,917.24152,-1067.9845,-350.27975,829.70544,-989.01721,-337.44586,793.22247
9,0.067,-1050.1748,-321.70938,917.69849,-1058.09741,-350.45703,830.30225,-979.42096,-337.98596,796.43115
10,0.075,-1042.21375,-322.01437,917.0614,-1048.8186,-349.49875,831.19958,-968.2937,-336.86026,796.27075
11,0.083,-1033.34583,-321.09174,918.09918,-1041.72644,-350.45737,833.09235,-962.00702,-337.95004,797.37549
12,0.092,-1026.78796,-323.15082,917.64716,-1032.60559,-352.47247,833.10638,-951.04022,-338.6044,798.35309
13,0.1,-1017.32697,-321.75589,917.65002,-1022.59149,-353.2305,831.62964,-942.1684,-337.87506,798.16278
14,0.108,-1010.13879,-322.18729,917.96729,-1013.94495,-355.38177,831.77216,-933.47229,-337.58664,798.86182
15,0.117,-1001.91486,-320.04501,916.9707,-1004.53204,-356.70889,832.10779,-925.45123,-338.54138,798.59882
16,0.125,-994.97827,-323.44534,916.24951,-997.3302,-355.70276,830.61084,-916.93896,-337.17581,798.31152
17,0.133,-987.29291,-321.88879,915.26575,-989.17957,-358.29242,830.2074,-908.57501,-337.64526,798.44531
18,0.142,-980.57666,-322.15179,914.43146,-979.10217,-356.93457,829.54059,-901.22809,-337.897,796.76123
19,0.15,-971.27148,-321.75745,913.17908,-973.31555,-359.2861,828.23895,-891.4588,-336.86926,798.24243
20,0.158,-965.15833,-322.08279,911.20673,-963.90076,-358.57462,826.97864,-886.17352,-336.63693,795.95801
21,0.167,-959.33002,-324.73163,909.5105,-958.0116,-359.72699,825.78345,-875.26666,-336.95193,796.64172
22,0.175,-951.28461,-323.15201,909.14319,-950.45227,-361.11349,824.9751,-870.08539,-337.26498,794.19336
23,0.183,-946.00006,-324.4686,908.29498,-944.05389,-360.46661,823.91302,-864.40948,-337.98831,794.4505
24,0.192,-939.04114,-322.98972,907.14648,-938.68158,-361.77325,822.87701,-856.54529,-339.263,793.37573
25,0.2,-934.28033,-324.2233,906.13422,-932.0528,-359.97528,822.23126,-851.10425,-338.77844,794.43713
26,0.208,-930.08954,-325.3327,904.86957,-926.48291,-360.50009,820.48132,-845.00586,-337.9444,793.32825
27,0.217,-924.63904,-327.60696,903.70282,-921.79852,-359.66827,819.28772,-838.99756,-338.62653,791.39563
28,0.225,-918.65466,-324.14716,902.70563,-914.45343,-358.00986,818.35107,-834.46082,-340.43738,790.74133
29,0.233,-913.47943,-325.06363,901.5094,-911.07635,-358.06964,816.60797,-828.49133,-337.63126,788.34534
30,0.242,-907.66071,-325.59412,900.677,-905.52765,-358.526,813.84576,-824.18829,-338.93176,787.26099
31,0.25,-902.41754,-325.30081,897.6084,-900.82416,-358.23517,812.55914,-819.13275,-340.37872,786.60156
32,0.258,-897.57501,-327.12729,897.23926,-896.51569,-360.14471,812.2392,-813.97559,-337.8075,784.55994
33,0.267,-892.909,-324.48819,896.1745,-890.84967,-360.18796,810.60699,-810.44885,-338.11594,781.62134
34,0.275,-887.67621,-325.55005,894.71167,-886.00598,-359.31677,809.76166,-806.95331,-339.18253,779.60614
35,0.283,-883.58209,-326.53073,893.51233,-882.07629,-361.59052,809.90076,-801.90735,-337.39664,778.87701
36,0.292,-877.35138,-325.03983,891.97485,-877.82446,-359.69186,808.29651,-797.64056,-337.84634,777.20026
37,0.3,-873.9892,-325.60638,891.50775,-874.43915,-358.02332,807.15717,-796.31854,-338.21609,775.48914
38,0.308,-870.19177,-324.45187,890.30072,-870.66168,-360.08176,807.22742,-791.16248,-335.21027,772.41302
39,0.317,-865.05505,-322.92148,889.42084,-867.70496,-360.82556,806.22687,-789.37555,-335.74915,769.76575
40,0.325,-861.67462,-324.08136,888.46075,-864.54712,-358.77225,803.77289,-787.02258,-337.75406,768.77301
41,0.333,-857.93768,-323.85797,887.28381,-860.68201,-360.00089,801.63641,-784.15155,-337.58945,767.95117
42,0.342,-852.42548,-322.11441,885.24298,-859.30457,-359.05334,800.88788,-779.48798,-335.0108,764.3078
43,0.35,-850.00195,-323.84741,882.86707,-855.29938,-359.25851,799.3642,-778.59424,-337.91852,762.88556
44,0.358,-845.80328,-326.10965,882.72144,-853.51385,-357.42123,798.69653,-775.84106,-338.83072,761.21204
45,0.367,-841.87122,-323.8822,881.87848,-850.87268,-356.73245,797.7381,-774.64331,-337.81113,758.02502
46,0.375,-837.55505,-322.19656,879.4054,-848.24921,-357.60345,796.60431,-773.51807,-337.36288,756.42145
47,0.383,-835.01953,-323.36353,878.87286,-846.71368,-358.06927,796.54089,-768.4635,-336.04062,754.33685
48,0.392,-831.06757,-322.24954,877.95117,-843.7818,-356.45251,795.75403,-767.72699,-336.24503,752.68243
49,0.4,-827.31189,-320.40646,876.76593,-841.23853,-353.83255,793.11456,-766.58527,-335.806,750.9328
50,0.408,-826.02289,-320.53351,876.79797,-839.69946,-353.31616,793.35754,-766.58966,-335.14856,750.1275
51,0.417,-821.46265,-319.66217,876.64471,-837.20898,-353.74463,794.40869,-764.73383,-332.73929,747.24951
52,0.425,-819.02252,-317.95425,876.64618,-835.19666,-350.48267,793.38599,-763.15271,-331.55002,746.46021
53,0.433,-816.88104,-317.05972,876.01807,-834.52039,-349.52771,793.85052,-764.58942,-330.30209,744.64178
54,0.442,-812.67853,-315.53586,875.49139,-833.12592,-348.99347,793.22681,-761.69281,-329.67303,744.16046
55,0.45,-811.44006,-313.80762,875.01099,-831.98132,-348.72147,793.46777,-759.9837,-326.68359,743.85309
56,0.458,-808.90723,-313.00412,875.05524,-829.65192,-346.96622,792.56689,-759.22461,-325.95139,742.65344
57,0.467,-807.53766,-313.12402,874.84094,-828.7323,-344.42294,792.40948,-759.45581,-325.59976,741.6366
58,0.475,-804.02155,-312.96368,874.42896,-827.58838,-343.30856,790.41058,-759.12274,-325.33347,740.2439
59,0.483,-802.24347,-311.59995,873.23907,-827.33978,-343.06558,791.68109,-758.45929,-324.57211,739.62103
60,0.492,-800.37378,-310.39877,873.7489,-826.21246,-341.21155,791.84979,-757.46436,-321.8425,738.12146
61,0.5,-797.73022,-309.75293,873.74902,-824.96857,-341.54916,792.35077,-757.02704,-320.07584,738.19519
62,0.508,-794.67938,-309.23132,874.12207,-823.14447,-338.73581,791.98022,-756.57416,-318.79321,738.36627
63,0.517,-793.3996,-307.84021,874.4588,-822.29614,-338.14667,792.80774,-756.3819,-318.41309,738.48547
64,0.525,-792.09686,-308.11594,874.84686,-822.11017,-337.33359,793.14105,-755.84399,-317.58957,737.59692
65,0.533,-789.50745,-306.36545,875.17871,-820.93433,-336.04172,793.97211,-754.66919,-315.91711,737.57104
66,0.542,-786.83087,-306.74469,875.70105,-819.94116,-336.34967,794.5155,-754.66919,-315.91711,737.57104
67,0.55,-784.86176,-305.13538,876.16852,-819.04028,-334.28351,795.76044,-752.02777,-315.37573,738.05371
68,0.558,-783.5611,-303.82321,876.20416,-817.43823,-333.05112,796.33777,-751.91602,-315.16357,738.11157
69,0.567,-782.71246,-304.08646,877.30383,-815.24811,-332.51297,796.81506,-751.52234,-315.45575,738.36023
70,0.575,-780.20221,-304.14923,877.66742,-816.15924,-331.54654,797.67236,-751.38336,-315.1893,738.43536
71,0.583,-777.57245,-304.18283,877.69397,-814.98608,-330.93958,798.31689,-751.15216,-314.7897,738.90594
72,0.592,-775.64893,-302.24948,878.49414,-813.46979,-329.86002,799.66095,-750.1507,-314.0658,739.46729
73,0.6,-774.1521,-300.92203,878.80518,-813.00891,-329.30005,800.51428,-750.1507,-314.0658,739.46729
74,0.608,-771.69836,-301.698,880.13245,-812.4527,-328.45834,800.99445,-749.3371,-314.27017,739.57892
75,0.617,-770.51849,-301.63071,881.10199,-810.05975,-328.41983,801.68817,-748.82318,-314.4234,739.94067
76,0.625,-769.24731,-302.69165,881.03644,-808.69318,-326.51541,802.95551,-748.82318,-314.4234,739.94067
77,0.633,-766.75995,-302.06412,881.60602,-807.9353,-326.42056,803.8985,-745.3501,-313.09476,741.80255
78,0.642,-763.89868,-301.19055,881.89697,-807.24854,-325.45276,804.13635,-745.01245,-314.20374,742.67334
79,0.65,-762.08075,-300.24655,882.29547,-804.82379,-325.34247,804.89941,-741.78748,-312.00571,743.97974
80,0.658,-758.63159,-299.91589,882.21552,-803.21716,-325.39413,806.39075,-741.51086,-311.63782,744.14099
81,0.667,-756.73804,-300.14224,883.82617,-801.28625,-324.49042,806.94513,-741.06226,-311.77979,743.90247
82,0.675,-753.84308,-300.93332,883.86566,-798.35687,-323.97235,806.98438,-737.04913,-312.46936,743.47217
83,0.683,-749.82068,-301.362,884.52911,-797.15308,-324.23853,807.98511,-736.68884,-312.05786,743.81934
84,0.692,-747.62274,-299.7868,884.55646,-792.88043,-323.58615,808.41821,-735.60309,-312.21793,743.99603
85,0.7,-744.30615,-298.62189,885.08167,-791.73175,-323.58661,808.99164,-732.35876,-312.59598,744.03357
86,0.708,-741.815,-299.26761,885.10504,-788.3067,-324.28094,808.91449,-730.48248,-312.0556,744.3421
87,0.717,-738.32715,-300.64761,884.86835,-786.74976,-322.92963,809.42273,-726.03308,-315.27628,743.51758
88,0.725,-734.49512,-300.85629,884.22894,-782.56781,-323.96097,809.73834,-723.02997,-314.48425,742.302
89,0.733,-731.89893,-300.15421,885.09259,-780.59064,-323.54474,811.12695,-722.16943,-314.05014,743.43958
90,0.742,-726.38116,-300.62888,884.77448,-777.01227,-323.77029,810.34174,-717.0741,-316.32761,743.05048
91,0.75,-723.4375,-301.45108,884.5509,-772.42627,-324.14838,811.49329,-714.57214,-316.40692,743.38385
92,0.758,-718.57257,-300.92902,884.51074,-770.15216,-322.95831,811.77081,-712.65381,-316.1387,742.89655
93,0.767,-714.38318,-301.30746,883.68158,-766.67963,-324.25989,812.02448,-707.31946,-317.89404,742.04785
94,0.775,-709.41125,-302.25177,884.3465,-761.55597,-323.58908,812.67529,-703.28973,-318.27661,742.45044
95,0.783,-705.68408,-303.35797,884.98486,-757.48859,-325.28564,811.84979,-701.64984,-317.94373,741.7785
96,0.792,-700.63818,-303.2735,884.0202,-753.6626,-325.43213,811.71088,-697.86786,-318.89288,742.49078
97,0.8,-696.55566,-302.88745,883.7478,-748.47925,-326.32739,810.82117,-692.3443,-318.98029,741.7229
98,0.808,-690.19794,-304.87808,883.28448,-744.56097,-325.6304,810.5531,-689.36749,-318.77057,740.26385
99,0.817,-685.61951,-305.67621,881.99554,-740.10883,-326.79572,810.74261,-683.64941,-321.19464,739.57373
100,0.825,-679.87561,-305.17401,881.89667,-734.77161,-327.26987,810.89038,-680.33087,-320.17224,739.70258
101,0.833,-674.55688,-305.87512,880.94952,-729.12848,-327.12854,810.58441,-674.32446,-320.89423,738.94397
102,0.842,-668.79712,-306.77579,880.90698,-722.88806,-328.03705,809.79291,-670.38165,-319.83728,739.10175
103,0.85,-663.12323,-306.59985,879.96674,-717.81921,-328.79208,808.5788,-663.20465,-322.6485,737.96436
104,0.858,-657.49982,-308.01135,878.98639,-711.37585,-329.70816,808.16071,-658.25146,-321.65112,737.65149
105,0.867,-650.57709,-308.39307,879.02795,-706.48743,-329.64099,807.31317,-652.62152,-322.08319,736.61884
106,0.875,-645.46112,-309.96042,878.13019,-699.89868,-329.74789,806.41711,-645.28455,-324.8674,735.58466
107,0.883,-637.63208,-309.33487,877.31458,-693.93475,-330.90353,806.07037,-638.71234,-324.46994,734.99976
108,0.892,-631.11945,-309.06415,875.91516,-686.45648,-331.37845,805.10785,-633.28961,-324.48389,735.26465
109,0.9,-625.02869,-310.91913,875.69617,-680.07709,-332.14993,804.25745,-625.19653,-327.1377,733.3576
110,0.908,-617.64978,-311.5047,875.5882,-673.88416,-333.34555,803.81604,-618.922,-327.66299,733.3667
111,0.917,-611.08936,-311.96423,874.20715,-666.77466,-332.37717,803.07745,-612.09875,-325.98892,731.82422
112,0.925,-603.43616,-313.76416,875.04034,-658.87976,-333.84216,801.74274,-602.98248,-328.52557,731.14954
113,0.933,-596.47168,-313.87378,874.01575,-651.17664,-332.95972,801.39484,-595.28656,-328.95911,730.87518
114,0.942,-588.93213,-314.38571,872.51355,-643.48712,-334.61493,800.84613,-589.44781,-326.9812,729.63098
115,0.95,-581.30933,-314.28882,872.06189,-635.6109,-334.7478,799.69684,-578.80914,-331.50641,729.46393
116,0.958,-573.51233,-315.97455,872.04102,-627.31708,-336.15878,798.39758,-571.98468,-331.32443,729.00714
117,0.967,-565.95288,-316.3732,870.84082,-620.25958,-336.76273,798.57239,-563.42786,-330.14142,728.01746
118,0.975,-557.74695,-317.47498,869.84869,-610.79736,-337.94943,798.17181,-553.82288,-331.67422,728.19421
119,0.983,-549.35205,-318.58868,871.22504,-602.35712,-338.90906,797.72168,-546.5741,-331.76691,728.05481
120,0.992,-540.58563,-319.78195,871.22528,-593.67346,-339.6994,798.00763,-537.73651,-332.54456,728.47797
121,1,-531.53253,-319.93289,871.37549,-584.01294,-341.11301,799.12463,-527.72083,-333.06818,728.8324
122,1.008,-523.27716,-321.19586,872.5835,-574.79517,-342.01788,799.17621,-519.39838,-331.61328,729.84479
123,1.017,-514.242,-321.66592,873.05975,-565.7738,-342.71448,800.11414,-508.27945,-334.84296,730.22437
124,1.025,-504.46518,-323.61444,873.37512,-556.72186,-343.76282,800.61127,-498.92007,-334.20523,730.99438
125,1.033,-495.8172,-322.13147,874.86316,-546.15784,-344.5459,800.9975,-489.32397,-335.77298,733.05719
126,1.042,-485.81522,-324.33801,876.84216,-535.92035,-344.81061,802.18701,-479.08304,-334.84314,734.67908
127,1.05,-476.44736,-324.70343,878.67224,-526.5022,-347.97388,803.93854,-468.93137,-336.50903,735.87598
128,1.058,-467.4155,-325.39828,879.7793,-516.07501,-347.46481,804.71002,-458.23459,-337.77509,737.89832
129,1.067,-457.62997,-326.22543,881.02887,-505.93524,-350.48489,805.76495,-447.41318,-338.36914,738.77167
130,1.075,-447.97043,-327.07007,883.44769,-494.72928,-350.83203,806.59167,-436.6954,-340.88416,741.04944
131,1.083,-438.83951,-327.62469,883.83997,-484.49155,-352.50735,806.78827,-425.85919,-340.1113,742.4386
132,1.092,-428.01477,-328.86224,884.50519,-474.64496,-354.19424,807.81952,-414.69696,-342.22754,743.09912
133,1.1,-418.85516,-329.53363,885.78552,-463.33051,-354.8093,808.04779,-404.11621,-341.44424,744.33551
134,1.108,-409.53073,-332.76602,886.44348,-452.6012,-357.3667,808.99243,-392.3923,-343.46756,745.09741
135,1.117,-398.66068,-331.88171,887.54669,-440.74271,-359.06021,809.69122,-380.79138,-345.67932,746.04132
136,1.125,-389.03741,-332.0043,888.26245,-430.26404,-361.54724,810.59082,-368.6713,-346.72818,748.32794
137,1.133,-379.7598,-334.45541,889.74768,-419.86896,-363.01172,811.53552,-357.35168,-347.43814,749.3714
138,1.142,-370.40027,-335.33878,890.0144,-408.69128,-363.6806,810.79755,-345.83069,-347.74063,750.21002
139,1.15,-359.49551,-336.06033,890.40619,-395.88324,-364.03857,811.05096,-334.62469,-350.31601,751.19061
140,1.158,-349.93686,-337.69925,891.67719,-385.99841,-366.53009,812.02539,-322.45963,-351.25027,752.37427
141,1.167,-340.42062,-337.48563,893.72906,-375.35895,-367.89978,813.64276,-310.68173,-350.4567,754.67926
142,1.175,-329.65671,-337.61505,894.56317,-363.82608,-368.72183,814.11609,-299.50439,-352.57593,756.14166
143,1.183,-320.60361,-338.56027,895.7652,-352.51819,-369.72198,815.32556,-286.36566,-352.73328,758.17889
144,1.192,-310.81613,-339.63205,896.65955,-341.98572,-371.22775,816.85986,-274.95184,-353.98938,759.61908
145,1.2,-300.91318,-339.71396,897.91785,-330.51044,-372.4328,817.82611,-263.9985,-355.71619,762.43451
146,1.208,-292.00812,-340.72699,900.73871,-319.77585,-373.05142,818.24988,-252.71245,-355.3389,764.03497
147,1.217,-282.40482,-341.19168,901.91956,-309.50604,-374.22003,819.6983,-240.19226,-356.13522,766.88782
148,1.225,-273.00247,-341.73605,903.63733,-299.03275,-374.80771,821.31226,-227.75183,-356.67157,768.97308
149,1.233,-264.24255,-342.51962,905.39795,-287.87186,-375.21194,822.64642,-217.3775,-356.14377,770.89417
150,1.242,-256.44998,-341.92267,907.25079,-277.08649,-374.95905,824.47595,-205.49939,-357.99475,775.37
151,1.25,-246.57147,-342.34543,908.04974,-267.66458,-374.70935,824.78424,-193.69344,-356.30865,776.86865
152,1.258,-238.85008,-342.68411,909.54321,-257.02866,-376.14853,826.09601,-183.85954,-358.18298,778.94678
153,1.267,-229.88864,-343.54208,911.92102,-246.17816,-376.1908,827.58533,-173.65645,-357.46301,781.70911
154,1.275,-221.6454,-342.33258,912.57465,-237.15509,-376.23718,828.57007,-162.4738,-358.05017,783.94122
155,1.283,-213.59537,-343.15045,913.78589,-227.1546,-376.38232,829.72083,-151.69925,-356.55695,786.75598
156,1.292,-205.7321,-342.61264,914.2511,-216.19656,-376.06516,830.55371,-141.06648,-357.80484,788.63483
157,1.3,-197.31662,-341.90222,915.99152,-207.93552,-376.56659,830.83295,-131.65063,-357.00208,791.37494
158,1.308,-189.95435,-342.56619,917.09021,-197.72159,-376.52414,831.32385,-121.31203,-355.90784,792.31378
159,1.317,-181.20058,-342.23477,917.80548,-189.00847,-376.24316,832.63184,-110.86194,-355.23132,794.03424
160,1.325,-174.11578,-341.75027,917.42554,-179.37451,-376.45163,833.26978,-101.07469,-354.95987,796.56305
161,1.333,-164.77116,-342.31735,918.44281,-171.29729,-377.05197,833.65143,-92.16301,-356.34494,798.38867
162,1.342,-157.8233,-341.39362,918.61084,-161.34747,-376.06332,834.68951,-82.60675,-355.03839,799.08075
163,1.35,-150.99821,-341.27441,918.13971,-153.17632,-376.2821,833.72443,-74.48082,-353.90948,800.18475
164,1.358,-142.63391,-339.3714,918.47821,-143.93396,-376.72964,833.84521,-64.10785,-354.58972,801.18335
165,1.367,-134.46454,-340.80984,918.7561,-135.10217,-376.26721,833.29492,-55.6332,-352.81088,801.34589
166,1.375,-127.31553,-340.83716,918.58417,-127.43446,-375.78439,834.60895,-46.51023,-352.2298,803.37976
167,1.383,-120.71834,-339.02936,918.38251,-119.0142,-375.32913,834.6283,-37.97747,-351.61945,803.50146
168,1.392,-113.55453,-339.62445,918.07501,-111.02387,-376.10498,834.58954,-29.77341,-352.63116,804.02032
169,1.4,-105.63428,-339.65704,917.17865,-103.37713,-374.828,833.03723,-22.33444,-351.45569,804.36865
170,1.408,-98.7781,-338.00961,916.54614,-95.16134,-374.39517,832.62848,-14.07164,-351.35397,804.38947
171,1.417,-92.02329,-337.32523,916.20581,-88.04955,-374.09491,832.18561,-6.19129,-351.21271,804.15839
172,1.425,-84.51651,-336.83313,914.86304,-81.02286,-373.3013,831.0719,1.28166,-349.82843,803.91376
173,1.433,-77.70438,-337.56256,914.41724,-73.54317,-372.88803,830.04504,8.65743,-349.99146,803.0575
174,1.442,-70.60211,-337.2356,913.51147,-66.24699,-371.8082,829.08777,15.39301,-350.10056,802.31805
175,1.45,-63.74076,-336.50601,912.00073,-59.49138,-371.3624,827.52802,23.01209,-348.93948,801.26019
176,1.458,-57.30666,-337.21127,911.20624,-52.92764,-371.32281,826.29706,29.98311,-348.08658,800.05835
177,1.467,-51.19309,-335.57578,908.82141,-46.16802,-371.64996,825.61011,36.38399,-347.19708,798.69525
178,1.475,-44.80434,-336.42795,908.10925,-38.44543,-369.96942,823.35626,41.91023,-347.595,797.03253
179,1.483,-38.45708,-333.54025,906.23859,-32.43847,-369.67645,822.90961,49.25368,-346.65054,795.29578
180,1.492,-31.64696,-334.06897,904.54401,-26.5191,-368.88873,821.31757,55.19824,-344.81308,794.2489
181,1.5,-24.83824,-333.14188,903.26636,-19.50299,-368.48737,819.98444,61.96762,-344.52859,791.94818
182,1.508,-19.35239,-332.38666,902.03979,-14.63375,-367.03668,818.33099,66.15741,-343.20306,790.16418
183,1.517,-13.30681,-331.65161,900.56506,-9.11818,-366.44904,816.11066,71.33128,-343.18036,787.93054
184,1.525,-7.4122,-329.98306,898.32367,-3.12114,-365.09052,814.66901,76.60342,-341.08551,785.30524
185,1.533,-1.17426,-329.00668,896.8988,1.15055,-363.5618,812.62396,82.0873,-340.1965,783.42108
186,1.542,3.22893,-327.85266,895.29279,6.56985,-362.74658,811.2616,86.46357,-338.79565,780.76843
187,1.55,8.5531,-327.20612,894.04462,11.29174,-362.43399,809.729,90.58242,-337.51956,778.1825
188,1.558,14.48072,-326.44455,891.99164,14.91023,-361.42191,807.85107,94.87353,-337.19519,776.85742
189,1.567,18.85051,-324.58942,890.02625,19.82287,-360.81659,806.76862,98.8076,-336.92578,774.66461
190,1.575,24.41902,-324.21924,888.79681,23.31891,-357.61316,804.52655,102.03585,-334.69675,772.36194
191,1.583,28.89279,-322.21997,887.99274,26.66996,-356.5701,803.12189,105.50735,-334.21277,770.12164
