Frame#,Time,L.Forearm.x,L.Forearm.y,L.Forearm.z,L.Ulna.x,L.Ulna.y,L.Ulna.z,L.Radius.x,L.Radius.y,L.Radius.z
1,0,-1308.37354,420.90054,1012.45703,-1370.37024,445.05753,940.75378,-1294.48352,408.05179,884.7489
2,0.008,-1304.70251,424.60571,1012.40851,-1365.79932,445.84509,941.43994,-1288.26575,408.1879,884.86597
3,0.017,-1297.69287,424.42572,1012.7301,-1361.02893,446.00714,941.36542,-1284.53088,411.90765,884.23004
4,0.025,-1295.00903,425.87299,1012.78857,-1357.4613,447.86063,941.76501,-1278.15027,410.05606,884.11749
5,0.033,-1288.35339,428.61356,1012.95941,-1351.31091,448.1246,941.8866,-1275.43799,412.86798,884.28326
6,0.042,-1285.12939,428.82813,1013.07532,-1347.43542,449.64639,941.67419,-1269.08472,411.85516,884.33856
7,0.05,-1279.29309,429.12897,1013.11212,-1341.59167,449.25168,941.83783,-1267.02893,413.16373,883.8894
8,0.058,-1275.11267,431.1221,1012.65942,-1337.80713,450.98215,941.32092,-1261.55078,410.45392,884.12195
9,0.067,-1270.13123,428.89252,1013.42072,-1332.22034,450.35214,941.68158,-1256.73425,412.72809,883.57349
10,0.075,-1265.34778,429.09628,1012.88275,-1328.21216,451.78369,941.59607,-1252.97852,411.86472,883.47931
11,0.083,-1260.82336,428.74854,1012.90619,-1323.5144,451.00217,941.80334,-1247.05237,409.58542,883.2038
12,0.092,-1256.1604,427.12677,1012.68579,-1319.29883,451.69446,942.55145,-1244.55188,412.39038,884.55444
13,0.1,-1250.25122,425.74673,1012.82996,-1314.25183,452.7103,942.45886,-1238.65417,410.89993,882.53925
14,0.108,-1246.41077,424.9035,1012.09033,-1309.79639,453.10461,942.17639,-1236.14819,411.39478,883.19189
15,0.117,-1241.90796,424.57535,1010.86377,-1304.76672,453.02853,941.07458,-1231.46997,409.29199,882.94476
16,0.125,-1236.00061,424.44421,1011.5752,-1299.31458,451.76929,941.95422,-1225.88416,408.06583,882.52191
17,0.133,-1231.52649,424.49768,1011.38873,-1294.9679,451.80777,941.46307,-1221.17285,409.53058,882.28809
18,0.142,-1226.76038,422.50574,1009.96582,-1289.73999,452.05829,940.43201,-1215.55981,408.87247,882.54437
19,0.15,-1220.65051,424.05341,1010.41852,-1284.49329,452.49127,941.42792,-1210.11646,407.72046,882.25909
20,0.158,-1216.28186,424.4111,1010.00659,-1278.98621,451.87762,940.18677,-1203.81909,409.80222,881.63971
21,0.167,-1209.71851,424.93225,1008.86877,-1273.28235,451.40939,939.21204,-1198.95239,409.66241,881.54523
22,0.175,-1203.9707,424.08423,1009.27771,-1266.49231,451.87656,939.83478,-1192.40405,412.51892,880.78601
23,0.183,-1198.85034,424.02612,1008.72565,-1262.63086,453.271,939.06128,-1186.41418,412.55984,880.42096
24,0.192,-1193.11133,426.37637,1008.49121,-1255.97632,452.68893,938.56714,-1181.23108,414.94244,879.90314
25,0.2,-1187.12793,425.56122,1007.47717,-1249.8042,452.79315,938.62653,-1174.25952,414.49423,878.70996
26,0.208,-1181.7467,427.07797,1007.65997,-1245.42102,453.93588,938.49799,-1169.22083,415.44116,878.4715
27,0.217,-1176.526,427.69073,1007.63916,-1239.66345,453.25244,937.80847,-1164.48865,415.18439,878.29401
28,0.225,-1169.87939,427.72415,1008.13647,-1233.40356,451.83719,937.57892,-1157.90527,415.60046,877.24017
29,0.233,-1165.47693,428.14789,1008.14752,-1227.31128,451.7659,937.42712,-1152.19873,414.34171,876.82513
30,0.242,-1159.3783,426.15833,1007.66724,-1223.63391,453.14581,937.1228,-1148.22888,413.76471,877.44666
31,0.25,-1153.84436,428.25323,1006.98212,-1217.72046,451.75699,937.04266,-1143.09167,415.18063,876.22235
32,0.258,-1148.36304,425.70358,1006.45605,-1212.07458,449.7392,937.32623,-1137.36609,413.09329,876.71893
33,0.267,-1143.64197,423.87592,1006.50055,-1205.47595,449.43094,936.93842,-1131.26135,412.02914,876.68256
34,0.275,-1137.15308,421.1633,1005.80676,-1201.51355,448.52051,937.79974,-1124.26819,411.28738,875.14508
35,0.283,-1131.01343,422.10013,1005.77368,-1196.83276,448.39279,936.86029,-1121.31726,411.85663,875.93079
36,0.292,-1125.52966,419.33209,1006.07098,-1190.80115,447.02426,937.12598,-1116.80786,411.14917,876.52728
37,0.3,-1119.79016,416.99356,1005.69196,-1185.37659,445.52353,937.85962,-1110.28528,410.34589,876.70813
38,0.308,-1114.45923,414.36496,1006.05988,-1179.31006,444.47299,939.42871,-1104.32056,409.03772,876.87384
39,0.317,-1107.69275,414.00134,1007.75562,-1172.97449,442.5322,940.51727,-1098.19556,406.93359,877.9046
40,0.325,-1101.44409,412.35889,1009.1051,-1166.63464,441.14737,941.31091,-1091.94482,405.99283,879.94641
41,0.333,-1095.39587,410.50092,1009.68744,-1160.89905,440.08896,943.13397,-1085.22388,406.14554,881.99579
42,0.342,-1089.4679,408.763,1012.35016,-1154.4635,438.16113,945.66571,-1078.77612,405.74228,882.57269
43,0.35,-1083.20154,407.70474,1014.50922,-1148.15027,436.8819,946.93921,-1072.4364,404.92526,884.77844
44,0.358,-1075.89612,408.54861,1016.10699,-1142.05212,435.70535,950.33789,-1064.83936,404.20831,887.71082
45,0.367,-1070.44104,406.76794,1019.55121,-1135.28503,434.94345,951.46112,-1058.85742,403.414,888.9469
46,0.375,-1063.3479,406.60779,1021.21539,-1129.0907,434.68506,954.35779,-1053.07507,402.13098,890.79712
47,0.383,-1056.89697,406.98917,1023.4906,-1122.41724,433.33536,956.14008,-1046.62598,403.43521,894.34271
48,0.392,-1049.60962,404.16852,1025.84985,-1116.08362,432.31177,958.7019,-1041.1145,402.11072,895.5415
49,0.4,-1043.10059,404.01166,1027.09534,-1110.19006,431.77817,960.84027,-1035.1239,398.89688,896.60858
50,0.408,-1037.74939,404.31625,1029.29492,-1103.51404,430.24316,962.84851,-1028.18982,400.80841,899.42004
51,0.417,-1030.8009,402.36984,1031.32947,-1097.62341,429.69168,965.07782,-1022.51617,398.72647,901.51184
52,0.425,-1024.89026,401.2764,1032.32239,-1091.10669,428.67819,966.28381,-1016.84174,397.59879,902.44165
53,0.433,-1018.61981,400.80444,1032.8877,-1084.85217,427.8775,968.04468,-1010.73785,397.22543,903.81836
54,0.442,-1012.31689,398.70422,1035.58716,-1079.1189,426.27689,969.98077,-1004.55115,395.27597,904.638
55,0.45,-1006.93457,396.05472,1035.87805,-1073.00671,425.46378,970.20087,-999.08356,393.52512,905.88861
56,0.458,-1000.35376,394.79749,1036.51599,-1066.75439,424.06412,970.95648,-992.65228,393.54993,905.80768
57,0.467,-994.04578,393.94614,1036.19861,-1060.66296,422.85065,971.12134,-986.21667,393.05563,907.76849
58,0.475,-988.7818,391.59927,1036.45813,-1055.229,421.45123,972.25372,-980.26141,391.71515,907.69318
59,0.483,-983.59723,390.46078,1037.72925,-1049.33521,420.11157,971.94995,-973.18805,390.16101,908.92822
60,0.492,-977.43842,389.72449,1038.6416,-1043.6543,418.68176,972.13855,-968.0224,389.34015,908.6886
61,0.5,-971.85425,388.70789,1039.33057,-1037.35864,416.96912,972.74011,-959.68994,387.6792,909.42828
62,0.508,-965.21759,387.73074,1039.7561,-1030.77954,416.56204,972.58899,-953.08545,385.31076,909.87524
63,0.517,-959.565,387.92776,1039.4679,-1023.77393,416.25146,972.8894,-945.5799,384.22702,910.81183
64,0.525,-952.64636,386.02618,1041.08276,-1016.78937,415.75702,972.25549,-939.16248,383.15134,910.86707
65,0.533,-946.38586,385.22488,1041.66956,-1009.94165,415.42737,973.07104,-931.2854,381.84772,912.20056
66,0.542,-939.1283,383.37604,1042.05334,-1003.26733,415.36914,972.53271,-925.14923,378.66455,913.09912
67,0.55,-933.40399,383.12512,1042.45422,-996.07788,413.98096,973.14587,-918.69067,378.40869,914.43463
68,0.558,-926.86792,383.66599,1041.71082,-989.45203,413.47516,973.55005,-911.68103,377.67078,913.71613
69,0.567,-920.36493,382.89304,1042.13049,-982.53052,412.77322,973.45996,-905.31573,376.5502,913.53369
70,0.575,-915.4259,382.10941,1042.66101,-976.22876,411.42645,973.70538,-899.46429,374.36905,913.44635
71,0.583,-909.28998,381.68552,1043.48767,-971.00146,411.21707,973.95215,-893.1972,374.46115,913.9823
72,0.592,-903.47284,381.11496,1043.52246,-964.86804,410.09998,973.96362,-888.04382,373.15057,913.94543
73,0.6,-898.44794,380.55078,1043.87183,-959.85419,410.41138,974.05249,-882.50592,372.46039,913.98529
74,0.608,-892.54028,379.73627,1043.65735,-954.44574,408.26804,974.28827,-876.57233,371.64044,914.27637
75,0.617,-886.55194,378.42426,1043.38416,-949.22046,406.65723,974.12909,-870.68628,370.1405,914.51392
76,0.625,-880.88562,376.08875,1043.05798,-943.16687,405.4678,974.70264,-866.25397,369.82684,915.16687
77,0.633,-876.03333,374.8746,1042.69348,-937.56189,403.67099,973.25763,-860.83295,368.97699,914.76172
78,0.642,-869.10773,375.38998,1042.58057,-932.27557,403.54361,973.76044,-854.03912,368.64084,914.05139
79,0.65,-864.46204,374.22794,1042.9248,-926.60248,401.79636,973.35742,-847.90308,365.19254,913.53009
80,0.658,-858.5274,370.65604,1043.26074,-920.68451,401.27829,973.23071,-842.71606,364.00552,913.7547
81,0.667,-852.16455,370.67972,1043.00562,-914.79016,399.94623,973.05481,-835.81726,364.22482,914.3161
82,0.675,-846.53802,371.0249,1042.71924,-908.70465,399.32272,972.70471,-829.34491,363.58304,914.59937
83,0.683,-840.40576,371.03143,1042.84546,-902.67065,398.44125,972.40344,-821.63208,363.57892,914.31702
84,0.692,-834.1311,371.75558,1042.26257,-896.27057,398.19687,972.18329,-815.21832,362.53546,914.51373
85,0.7,-827.86963,370.24847,1041.95898,-889.2229,398.32809,971.2149,-808.24622,363.64099,914.54138
86,0.708,-821.17859,371.06555,1041.15857,-882.65527,398.36334,970.38348,-801.59039,364.34882,913.37347
87,0.717,-814.87958,371.89255,1040.93469,-876.44122,398.69138,969.47156,-795.42877,364.82791,913.18994
88,0.725,-808.50677,371.4938,1040.9137,-870.22711,398.65417,969.20044,-789.20374,365.58426,912.69757
89,0.733,-801.8479,372.0253,1040.45288,-863.57361,398.67944,968.62158,-782.88208,365.52676,911.34564
90,0.742,-795.62646,373.79953,1040.01099,-857.59589,398.50137,968.68591,-776.59467,366.0864,910.94757
91,0.75,-788.83997,375.04788,1040.29163,-851.30835,398.2294,968.25696,-770.59473,366.22412,910.74762
92,0.758,-784.21118,374.56769,1039.30017,-845.15698,399.40857,968.1275,-764.23743,366.97229,909.91132
93,0.767,-777.24683,376.07962,1037.88733,-838.60815,399.32068,967.45044,-758.2132,366.89771,909.47864
94,0.775,-771.65485,375.25284,1037.44421,-832.81934,400.43234,966.57135,-752.29199,367.28873,908.50732
95,0.783,-764.86005,374.50082,1036.44458,-827.49377,401.01849,966.23163,-747.10168,367.82379,907.87848
96,0.792,-758.86475,374.4465,1035.63123,-821.01678,400.81415,965.26373,-741.97839,367.24658,907.28119
97,0.8,-752.10492,374.53387,1035.00903,-815.08313,400.71597,964.55634,-735.93561,367.56055,906.02319
98,0.808,-745.9267,374.62863,1033.51733,-808.23267,401.60059,963.43274,-729.58136,366.68286,905.58148
99,0.817,-738.6308,374.82047,1032.74292,-801.35162,401.80286,963.21387,-723.69513,366.237,903.94232
100,0.825,-731.75531,375.75385,1031.59729,-795.87366,403.31467,961.83679,-717.70886,365.61111,902.89148
101,0.833,-725.64508,376.32611,1030.57898,-789.02814,403.26627,960.48688,-711.50684,365.9368,901.87982
102,0.842,-718.44739,375.97287,1028.65161,-781.91895,404.42938,959.26544,-705.48785,366.34256,900.25079
103,0.85,-712.06818,376.15909,1027.27954,-775.40753,405.40747,958.25659,-696.86157,367.25214,899.15393
104,0.858,-705.83582,376.11404,1026.46338,-767.98413,405.51389,956.29901,-691.00488,368.00943,898.77991
105,0.867,-697.9281,377.94839,1024.98242,-760.93359,406.89136,954.94299,-684.74957,368.13354,896.67841
106,0.875,-690.51874,378.50967,1023.44464,-753.18146,408.22568,953.47992,-676.05261,370.79648,895.42377
107,0.883,-683.8465,380.3671,1021.74109,-745.74817,409.64362,952.04822,-668.62195,371.78891,893.47968
108,0.892,-675.85382,382.38315,1020.31506,-738.76947,411.0455,950.35217,-661.16907,373.75974,891.2818
109,0.9,-668.73956,384.12347,1018.99414,-731.69379,411.47812,948.77466,-654.68768,374.9249,889.677
110,0.908,-661.33228,385.5137,1017.20917,-724.0163,413.08499,947.7276,-647.56793,376.19604,888.77612
111,0.917,-654.31049,386.95053,1015.54199,-716.53986,413.98392,945.73206,-639.03394,378.70157,887.32837
112,0.925,-647.7301,388.72809,1015.46393,-709.91467,415.2356,944.35345,-632.83844,378.87704,886.07068
113,0.933,-640.1792,390.02359,1013.81244,-702.55188,416.5228,943.151,-626.13074,379.74628,884.46838
114,0.942,-633.28625,390.99207,1012.62341,-695.96869,417.02118,941.85742,-618.33655,382.28949,883.60834
115,0.95,-624.86957,392.32272,1011.35333,-688.68018,418.84851,941.35376,-612.02209,381.60724,882.76642
116,0.958,-618.6817,392.9646,1011.38654,-682.11438,419.73569,940.88721,-604.94086,380.63898,882.85938
117,0.967,-611.86426,393.67755,1011.19794,-674.50128,420.03162,941.27716,-598.60986,380.49094,882.53418
118,0.975,-605.65839,394.50983,1011.36511,-667.90021,420.08774,941.04333,-591.92303,380.88321,882.50177
119,0.983,-597.0282,394.11398,1012.22717,-660.9129,420.65234,941.06799,-585.92938,380.39838,882.64563
120,0.992,-590.73444,394.90253,1012.00873,-653.79987,421.66968,941.547,-578.06427,381.26312,883.28766
121,1,-583.51129,395.85861,1012.10352,-647.49023,421.7988,941.62256,-571.85089,380.70346,883.68945
122,1.008,-577.20337,395.56451,1013.25952,-640.59247,421.64801,942.59027,-564.51099,380.76752,884.17438
123,1.017,-569.70905,395.79175,1013.4671,-633.41632,422.5798,943.63843,-557.14105,379.78796,884.34485
124,1.025,-562.89532,396.5585,1014.09778,-625.31299,423.39832,943.56207,-549.63641,381.23477,885.52075
125,1.033,-556.28827,397.1748,1015.2486,-618.38177,424.50528,943.79077,-543.30231,381.14502,886.36816
126,1.042,-549.01953,397.20837,1015.30078,-611.17139,425.29297,943.82135,-535.00439,382.56003,886.89813
127,1.05,-541.74811,397.82874,1015.63165,-603.71783,425.81784,943.91742,-527.70453,384.45139,886.86639
128,1.058,-534.06549,399.35947,1014.89343,-597.12231,426.66196,943.94556,-520.55579,385.72147,887.61707
129,1.067,-527.06091,400.68597,1015.18915,-590.25299,427.30487,943.65179,-513.83197,387.81006,886.96716
130,1.075,-520.6308,402.6268,1014.52325,-584.26184,428.1817,943.54266,-507.42596,387.82224,886.81274
131,1.083,-514.7052,403.77625,1014.92834,-576.75641,429.09967,943.36871,-500.10297,388.67999,885.92267
132,1.092,-508.47583,404.14734,1015.16754,-570.31311,430.08417,943.11401,-493.64331,388.56329,887.13458
133,1.1,-501.10141,405.92133,1015.44153,-563.64044,430.46814,942.79681,-487.90253,389.59265,886.34973
134,1.108,-494.99158,405.94656,1015.58929,-557.29254,430.0675,943.77783,-481.33224,390.98294,886.69977
135,1.117,-488.81595,407.20633,1016.23816,-551.43732,431.39151,944.92194,-475.96805,391.14175,886.09503
136,1.125,-483.87738,405.52902,1016.55597,-544.98535,432.53253,945.08093,-468.8508,392.24814,887.34735
137,1.133,-476.98074,407.10959,1016.10114,-539.20648,432.33698,945.10242,-461.80316,391.0798,888.79004
138,1.142,-471.63599,406.01285,1017.21985,-533.02979,432.39572,945.75812,-455.71954,390.82813,889.10065
139,1.15,-465.33099,405.0675,1017.19421,-527.13812,431.26291,945.57971,-450.51303,391.56161,889.28204
140,1.158,-459.06671,404.44141,1018.26514,-520.76685,430.966,946.04822,-445.88062,390.34924,889.5708
141,1.167,-453.04175,405.444,1018.87537,-514.40771,431.04944,946.6662,-438.89761,390.47174,891.17438
142,1.175,-447.90594,405.86053,1019.53412,-508.43231,431.38477,946.88977,-431.58585,390.02335,892.18115
143,1.183,-442.25894,404.95825,1020.73383,-502.23599,432.42108,948.33844,-424.35934,391.75888,892.63086
144,1.192,-436.06204,405.17801,1021.46259,-496.09927,433.00412,949.00616,-419.20535,390.00439,894.56775
145,1.2,-430.89017,406.28922,1022.44238,-490.40149,432.96512,949.34015,-410.83994,391.48236,894.96283
146,1.208,-424.09045,405.54742,1023.23291,-483.88379,432.92352,949.48071,-404.56561,391.44736,895.51172
147,1.217,-417.21472,406.18521,1024.07422,-477.64114,433.0228,950.15515,-398.40125,393.69336,897.59741
148,1.225,-411.89252,407.48932,1025.45166,-471.5126,433.23392,950.69019,-391.12021,393.70966,897.60358
149,1.233,-406.11221,408.93106,1025.86157,-466.02335,432.50656,950.83612,-384.6933,393.37119,899.22058
150,1.242,-399.85428,409.69125,1026.05615,-459.90961,432.83917,951.96082,-378.50153,394.44238,898.66125
151,1.25,-394.63745,409.87451,1026.08459,-453.2117,433.22821,952.2063,-373.25018,395.02652,898.55243
152,1.258,-388.7258,411.24112,1026.08691,-447.15067,433.43143,951.758,-367.53372,394.9852,898.55988
153,1.267,-382.46503,409.75375,1026.33545,-441.21219,434.20428,952.112,-362.63095,394.24725,897.5498
154,1.275,-376.85593,409.45975,1026.42773,-435.07645,434.51331,952.9361,-357.29547,394.97055,898.33698
155,1.283,-370.37881,409.12231,1026.60938,-430.44281,434.78397,953.05646,-352.22647,395.44345,898.30188
156,1.292,-365.20767,409.84692,1026.37158,-425.26154,434.9064,953.02612,-347.58099,395.08957,898.073
157,1.3,-359.79871,409.35666,1026.14929,-420.45337,435.24426,953.15503,-343.00262,395.32501,897.26581
158,1.308,-355.59564,408.15799,1026.16382,-414.34763,435.40967,953.88141,-336.87964,395.69952,897.63635
159,1.317,-349.52835,407.74551,1025.76563,-409.2023,435.63013,953.57471,-332.76447,394.86288,897.31885
160,1.325,-343.75525,407.38562,1025.23584,-403.68008,435.83389,952.89484,-328.08786,395.06039,896.90656
161,1.333,-338.92703,407.18204,1024.76355,-400.13953,435.47217,952.7818,-322.35718,395.47836,896.12433
162,1.342,-332.72037,406.45993,1023.82196,-393.83173,436.21466,951.91003,-319.85297,392.60016,895.48029
163,1.35,-327.6459,407.00531,1022.84314,-389.28116,434.8009,951.76019,-310.27609,394.11465,895.23688
164,1.358,-322.3219,405.6402,1022.63361,-384.04343,434.6427,951.51788,-308.64111,393.69373,894.38135
165,1.367,-316.60242,405.78516,1022.52386,-379.30099,434.06738,951.64166,-301.89291,393.32251,893.25507
166,1.375,-311.73264,404.88132,1021.67773,-373.90186,433.86456,951.01355,-296.61346,393.16837,893.44305
167,1.383,-306.30984,405.51105,1021.97748,-367.59518,434.19696,950.23926,-290.81125,393.24823,893.44147
168,1.392,-300.78015,405.7674,1021.59589,-361.51617,434.4216,949.78979,-284.6434,393.73611,894.16071
169,1.4,-294.32465,406.12964,1020.97693,-355.41797,435.16205,949.94855,-276.81033,395.03534,894.41913
170,1.408,-289.57483,406.4469,1021.13348,-350.33145,435.285,949.66998,-269.8269,395.53635,893.95563
171,1.417,-282.3006,406.57114,1020.64526,-344.99448,435.30188,949.05963,-264.28308,396.81384,893.05243
172,1.425,-277.47372,407.51477,1020.20447,-337.8934,435.38403,948.69763,-258.93463,395.52463,892.25079
173,1.433,-270.83194,407.54089,1020.02777,-330.83084,433.71375,947.56921,-252.01715,396.94235,891.5238
174,1.442,-263.94254,407.40305,1018.97144,-325.02423,434.10208,947.60858,-246.51163,394.97009,890.29779
175,1.45,-258.08878,407.56885,1018.4585,-318.67206,434.08154,947.35968,-241.96007,394.32108,889.85553
176,1.458,-252.14189,407.55823,1017.62506,-311.7428,434.71423,946.59229,-236.78639,393.13354,888.78503
177,1.467,-246.31126,405.65067,1016.9881,-306.26477,434.81857,945.67059,-232.54611,391.68521,887.70129
178,1.475,-240.32527,404.91348,1015.96631,-300.11801,434.76712,945.61029,-225.89687,392.04468,887.10699
179,1.483,-234.57455,403.75006,1014.72052,-295.09482,434.50809,945.07153,-220.76964,391.0954,885.74487
180,1.492,-227.29478,402.698,1014.08087,-288.78113,432.99942,944.30829,-214.71992,391.86203,884.82971
181,1.5,-222.28491,402.15604,1013.92578,-283.61215,431.89423,943.89258,-210.0126,390.62939,883.39368
182,1.508,-215.21463,400.19736,1012.60736,-277.65186,431.31119,943.69031,-203.8842,390.36343,883.28479
183,1.517,-209.29416,399.75284,1011.65643,-272.07199,430.04785,943.23621,-198.70561,388.42526,882.63538
184,1.525,-204.23686,397.95694,1011.76379,-266.31461,427.70062,943.61371,-191.88333,389.41031,882.15094
185,1.533,-196.91498,396.57663,1011.21246,-260.80283,426.71771,943.94843,-187.22598,388.21332,882.23346
186,1.542,-190.54468,393.97394,1010.87537,-255.25645,425.66397,943.8587,-180.57104,387.87845,881.38336
187,1.55,-183.59053,392.91116,1011.87421,-249.17271,422.84854,944.69495,-174.84492,385.21753,881.854
188,1.558,-177.18694,391.41458,1013.14337,-243.19032,421.16638,945.19366,-168.26942,385.70544,882.99689
189,1.567,-169.73567,389.36664,1014.33868,-236.6646,418.76279,947.38013,-161.60564,383.88309,884.20673
190,1.575,-163.17183,387.88034,1015.3233,-229.28766,417.82608,949.01074,-153.54991,382.78711,885.77753
191,1.583,-156.19794,386.53564,1016.8233,-223.30269,416.40103,949.97577,-147.07185,381.35593,888.15405
192,1.592,-147.74588,385.57422,1018.96002,-215.386,414.62161,952.27509,-137.71075,381.57819,889.14691
