Frame#,Time,L.Forearm.x,L.Forearm.y,L.Forearm.z,L.Ulna.x,L.Ulna.y,L.Ulna.z,L.Radius.x,L.Radius.y,L.Radius.z
1,0,171.79178,360.22458,972.60089,125.59657,368.98459,905.73376,208.64104,386.05219,885.44427
2,0.008,171.65231,360.10388,972.85693,125.59657,368.98459,905.73376,208.64104,386.05219,885.44427
3,0.017,171.35532,360.26401,972.19958,125.59657,368.98459,905.73376,208.45715,386.29581,885.11322
4,0.025,171.35532,360.26401,972.19958,125.59657,368.98459,905.73376,208.45715,386.29581,885.11322
5,0.033,171.79178,360.22458,972.60089,125.59657,368.98459,905.73376,208.64104,386.05219,885.44427
6,0.042,171.79178,360.22458,972.60089,125.59657,368.98459,905.73376,208.64104,386.05219,885.44427
7,0.05,171.79178,360.22458,972.60089,125.59657,368.98459,905.73376,208.45715,386.29581,885.11322
8,0.058,171.35532,360.26401,972.19958,125.59657,368.98459,905.73376,208.45715,386.29581,885.11322
9,0.067,171.35532,360.26401,972.19958,125.59657,368.98459,905.73376,208.45715,386.29581,885.11322
10,0.075,171.35532,360.26401,972.19958,125.59657,368.98459,905.73376,208.45715,386.29581,885.11322
11,0.083,171.35532,360.26401,972.19958,125.59657,368.98459,905.73376,208.302,386.42261,885.01428
12,0.092,171.4982,360.43069,971.77014,125.59657,368.98459,905.73376,208.34625,386.47861,884.69104
13,0.1,171.37444,360.3092,971.91779,125.59657,368.98459,905.73376,208.34625,386.47861,884.69104
14,0.108,171.37444,360.3092,971.91779,125.59657,368.98459,905.73376,208.302,386.42261,885.01428
15,0.117,171.35532,360.26401,972.19958,125.59657,368.98459,905.73376,208.302,386.42261,885.01428
16,0.125,171.37444,360.3092,971.91779,125.59657,368.98459,905.73376,208.302,386.42261,885.01428
17,0.133,171.13579,360.31787,972.19836,125.59657,368.98459,905.73376,208.302,386.42261,885.01428
18,0.142,171.37444,360.3092,971.91779,125.3206,368.98691,905.46893,208.302,386.42261,885.01428
19,0.15,171.15491,360.3631,971.91656,125.59657,368.98459,905.73376,208.302,386.42261,885.01428
20,0.158,171.15491,360.3631,971.91656,125.59657,368.98459,905.73376,208.34625,386.47861,884.69104
21,0.167,171.15491,360.3631,971.91656,125.59657,368.98459,905.73376,208.34625,386.47861,884.69104
22,0.175,171.13579,360.31787,972.19836,125.59657,368.98459,905.73376,208.302,386.42261,885.01428
23,0.183,171.13579,360.31787,972.19836,125.59657,368.98459,905.73376,208.302,386.42261,885.01428
24,0.192,171.13579,360.31787,972.19836,125.59657,368.98459,905.73376,208.302,386.42261,885.01428
25,0.2,171.57224,360.2785,972.59967,125.59657,368.98459,905.73376,208.302,386.42261,885.01428
26,0.208,171.13579,360.31787,972.19836,125.59657,368.98459,905.73376,208.302,386.42261,885.01428
27,0.217,171.13579,360.31787,972.19836,125.3206,368.98691,905.46893,208.302,386.42261,885.01428
28,0.225,171.13579,360.31787,972.19836,125.59657,368.98459,905.73376,208.302,386.42261,885.01428
29,0.233,171.57224,360.2785,972.59967,125.59657,368.98459,905.73376,208.302,386.42261,885.01428
30,0.242,171.57224,360.2785,972.59967,125.59657,368.98459,905.73376,208.302,386.42261,885.01428
31,0.25,171.13579,360.31787,972.19836,125.3206,368.98691,905.46893,208.302,386.42261,885.01428
32,0.258,171.13579,360.31787,972.19836,125.3206,368.98691,905.46893,208.302,386.42261,885.01428
33,0.267,171.57224,360.2785,972.59967,125.59657,368.98459,905.73376,208.302,386.42261,885.01428
34,0.275,171.57224,360.2785,972.59967,125.59657,368.98459,905.73376,208.302,386.42261,885.01428
35,0.283,171.57224,360.2785,972.59967,125.59657,368.98459,905.73376,208.302,386.42261,885.01428
36,0.292,170.99631,360.19724,972.45435,125.3206,368.98691,905.46893,208.302,386.42261,885.01428
37,0.3,171.13579,360.31787,972.19836,125.3206,368.98691,905.46893,208.18555,386.28653,885.22888
38,0.308,171.57224,360.2785,972.59967,125.59657,368.98459,905.73376,208.302,386.42261,885.01428
39,0.317,171.01939,359.97867,972.32172,125.59657,368.98459,905.73376,208.18555,386.28653,885.22888
40,0.325,170.58223,360.01953,971.9212,125.3206,368.98691,905.46893,208.18555,386.28653,885.22888
41,0.333,170.58223,360.01953,971.9212,125.3206,368.98691,905.46893,208.18555,386.28653,885.22888
42,0.342,171.01939,359.97867,972.32172,125.06709,369.07205,905.45306,208.18555,386.28653,885.22888
43,0.35,171.01939,359.97867,972.32172,125.59657,368.98459,905.73376,208.18555,386.28653,885.22888
44,0.358,170.87996,359.85797,972.5777,125.15098,369.00415,905.85364,208.18555,386.28653,885.22888
45,0.367,171.20491,359.95932,972.8692,124.87504,369.00641,905.58875,208.18555,386.28653,885.22888
46,0.375,171.20491,359.95932,972.8692,124.5513,369.14191,905.53845,207.92323,386.38626,885.56934
47,0.383,170.65207,359.65952,972.59119,124.5513,369.14191,905.53845,208.18555,386.28653,885.22888
48,0.392,170.65207,359.65952,972.59119,124.8272,369.13968,905.80328,207.92323,386.38626,885.56934
49,0.4,170.65207,359.65952,972.59119,124.8272,369.13968,905.80328,207.92323,386.38626,885.56934
50,0.408,170.65207,359.65952,972.59119,124.5513,369.14191,905.53845,207.92323,386.38626,885.56934
51,0.417,170.65207,359.65952,972.59119,123.84229,368.92685,905.44562,207.92323,386.38626,885.56934
52,0.425,170.65207,359.65952,972.59119,123.84229,368.92685,905.44562,207.92323,386.38626,885.56934
53,0.433,170.3869,359.7511,972.73218,124.4929,369.15469,905.89337,207.78261,386.41476,885.77728
54,0.442,170.3869,359.7511,972.73218,123.09161,369.16766,905.70203,206.97369,386.28641,885.9469
55,0.45,170.3869,359.7511,972.73218,123.09161,369.16766,905.70203,206.98686,386.83615,886.11279
56,0.458,170.3869,359.7511,972.73218,122.84404,369.21402,905.7287,206.75345,386.05035,886.41266
57,0.467,170.3869,359.7511,972.73218,122.83733,369.11356,905.98151,206.75345,386.05035,886.41266
58,0.475,170.3869,359.7511,972.73218,122.83733,369.11356,905.98151,206.75345,386.05035,886.41266
59,0.483,170.3869,359.7511,972.73218,122.66003,369.34848,905.63507,205.9276,385.50235,885.33722
60,0.492,170.3869,359.7511,972.73218,122.66003,369.34848,905.63507,205.95009,385.53531,885.84631
61,0.5,170.3869,359.7511,972.73218,122.66003,369.34848,905.63507,205.95009,385.53531,885.84631
62,0.508,170.3869,359.7511,972.73218,122.83733,369.11356,905.98151,206.68631,386.03333,885.8476
63,0.517,170.30402,359.53152,972.45123,122.83733,369.11356,905.98151,205.9276,385.50235,885.33722
64,0.525,170.30402,359.53152,972.45123,122.66003,369.34848,905.63507,205.95009,385.53531,885.84631
65,0.533,170.0273,359.38223,972.31256,122.66003,369.34848,905.63507,205.95009,385.53531,885.84631
66,0.542,170.30402,359.53152,972.45123,122.66003,369.34848,905.63507,205.87698,385.45084,885.06696
67,0.55,170.2341,359.52249,972.07611,122.83733,369.11356,905.98151,205.9276,385.50235,885.33722
68,0.558,170.2341,359.52249,972.07611,122.83733,369.11356,905.98151,205.73552,385.38376,885.15515
69,0.567,169.95734,359.3732,971.93738,122.66003,369.34848,905.63507,205.87698,385.45084,885.06696
70,0.575,170.11014,359.6019,972.59357,122.66003,369.34848,905.63507,205.73552,385.38376,885.15515
71,0.583,169.98457,359.36661,972.10455,122.83733,369.11356,905.98151,205.73552,385.38376,885.15515
72,0.592,169.98457,359.36661,972.10455,122.83733,369.11356,905.98151,205.73552,385.38376,885.15515
73,0.6,169.98457,359.36661,972.10455,122.66003,369.34848,905.63507,204.90295,385.61862,885.15894
74,0.608,169.91455,359.3576,971.72943,122.66003,369.34848,905.63507,204.90295,385.61862,885.15894
75,0.617,169.91455,359.3576,971.72943,122.83733,369.11356,905.98151,205.73552,385.38376,885.15515
76,0.625,169.91455,359.3576,971.72943,123.02139,368.979,906.07507,205.87698,385.45084,885.06696
77,0.633,169.91455,359.3576,971.72943,122.83733,369.11356,905.98151,205.87698,385.45084,885.06696
78,0.642,169.91455,359.3576,971.72943,122.66003,369.34848,905.63507,206.12546,385.19653,884.90344
79,0.65,169.98457,359.36661,972.10455,122.66003,369.34848,905.63507,206.12546,385.19653,884.90344
80,0.658,169.98457,359.36661,972.10455,122.83733,369.11356,905.98151,206.12546,385.19653,884.90344
81,0.667,170.30402,359.53152,972.45123,122.83733,369.11356,905.98151,206.12546,385.19653,884.90344
82,0.675,170.0273,359.38223,972.31256,123.02139,368.979,906.07507,206.12546,385.19653,884.90344
83,0.683,170.0273,359.38223,972.31256,122.83733,369.11356,905.98151,206.12546,385.19653,884.90344
84,0.692,170.16367,359.58539,972.60089,123.02139,368.979,906.07507,206.12546,385.19653,884.90344
85,0.7,170.65207,359.65952,972.59119,122.93393,369.42493,906.22119,206.40477,383.25272,884.18091
86,0.708,170.16367,359.58539,972.60089,122.93393,369.42493,906.22119,206.55099,383.23361,883.9884
87,0.717,170.16367,359.58539,972.60089,123.02002,368.56485,906.43732,206.36269,384.64374,884.95966
88,0.725,169.74557,359.47784,972.43445,123.02002,368.56485,906.43732,206.36269,384.64374,884.95966
89,0.733,170.16367,359.58539,972.60089,123.02139,368.979,906.07507,206.36269,384.64374,884.95966
90,0.742,170.56924,359.43985,972.31024,123.02002,368.56485,906.43732,207.0737,385.09769,885.46246
91,0.75,170.16367,359.58539,972.60089,123.81393,368.1499,906.0708,208.11365,384.90396,885.28339
92,0.758,170.16367,359.58539,972.60089,123.81393,368.1499,906.0708,207.72046,384.98566,885.86841
93,0.767,170.27412,359.80078,972.94318,124.06847,368.07315,906.02887,207.97655,384.91287,885.5061
94,0.775,170.27412,359.80078,972.94318,124.06847,368.07315,906.02887,207.97655,384.91287,885.5061
95,0.783,170.27412,359.80078,972.94318,124.01974,368.69174,905.79211,208.11365,384.90396,885.28339
96,0.792,170.27412,359.80078,972.94318,124.01974,368.69174,905.79211,207.72046,384.98566,885.86841
97,0.8,170.16367,359.58539,972.60089,124.40273,367.8248,906.1087,207.72046,384.98566,885.86841
98,0.808,170.65207,359.65952,972.59119,124.06847,368.07315,906.02887,207.72046,384.98566,885.86841
99,0.817,170.27412,359.80078,972.94318,124.48447,368.85934,906.19702,207.97655,384.91287,885.5061
100,0.825,170.27412,359.80078,972.94318,124.82635,368.83035,906.07349,207.85757,384.97684,885.64575
101,0.833,170.27412,359.80078,972.94318,125.144,368.92371,905.9472,207.85757,384.97684,885.64575
102,0.842,170.27412,359.80078,972.94318,125.39684,368.93777,905.85052,207.72046,384.98566,885.86841
103,0.85,170.27412,359.80078,972.94318,125.39684,368.93777,905.85052,207.72046,384.98566,885.86841
104,0.858,170.27412,359.80078,972.94318,125.39684,368.93777,905.85052,208.03197,385.35718,885.88208
105,0.867,170.27412,359.80078,972.94318,125.41498,368.50598,906.11169,208.33887,385.21246,885.77899
106,0.875,170.61488,359.96405,972.92438,125.41498,368.50598,906.11169,208.19426,385.88589,885.99908
107,0.883,170.27412,359.80078,972.94318,125.41498,368.50598,906.11169,208.05714,385.89471,886.22168
108,0.892,170.61488,359.96405,972.92438,125.39684,368.93777,905.85052,208.30502,385.80151,886.53857
109,0.9,170.95294,359.91013,973.16693,125.39684,368.93777,905.85052,208.49194,385.19763,886.32489
110,0.908,170.95294,359.91013,973.16693,125.33582,369.00311,906.42468,208.44566,385.77307,886.33069
111,0.917,170.95294,359.91013,973.16693,125.33582,369.00311,906.42468,208.30502,385.80151,886.53857
112,0.925,170.95294,359.91013,973.16693,125.30905,368.66721,906.87347,208.30502,385.80151,886.53857
113,0.933,170.95294,359.91013,973.16693,125.30905,368.66721,906.87347,208.30502,385.80151,886.53857
114,0.942,170.95294,359.91013,973.16693,125.30905,368.66721,906.87347,208.30502,385.80151,886.53857
115,0.95,170.95294,359.91013,973.16693,125.33582,369.00311,906.42468,208.44566,385.77307,886.33069
116,0.958,171.2977,359.81741,973.16608,125.52374,369.03268,906.84296,208.30502,385.80151,886.53857
117,0.967,171.2977,359.81741,973.16608,125.52374,369.03268,906.84296,208.30502,385.80151,886.53857
118,0.975,171.55272,359.92514,973.35754,125.52374,369.03268,906.84296,208.30502,385.80151,886.53857
119,0.983,171.55272,359.92514,973.35754,125.31881,369.40939,906.69031,208.37239,384.93115,886.21948
120,0.992,171.55272,359.92514,973.35754,125.52374,369.03268,906.84296,208.26224,386.01581,885.99927
121,1,171.55272,359.92514,973.35754,125.25462,369.38712,907.34833,208.21538,385.13455,885.91876
122,1.008,171.55272,359.92514,973.35754,125.31881,369.40939,906.69031,208.21538,385.13455,885.91876
123,1.017,171.55272,359.92514,973.35754,125.31881,369.40939,906.69031,208.48569,385.08115,886.06586
124,1.025,172.15985,360.41132,973.79089,125.31881,369.40939,906.69031,208.21538,385.13455,885.91876
125,1.033,172.15985,360.41132,973.79089,125.31881,369.40939,906.69031,208.48569,385.08115,886.06586
126,1.042,172.15985,360.41132,973.79089,125.31881,369.40939,906.69031,208.48569,385.08115,886.06586
127,1.05,172.15985,360.41132,973.79089,125.31881,369.40939,906.69031,208.48569,385.08115,886.06586
128,1.058,172.15985,360.41132,973.79089,125.39498,369.69064,907.33154,208.48569,385.08115,886.06586
129,1.067,172.15985,360.41132,973.79089,125.39498,369.69064,907.33154,208.48569,385.08115,886.06586
130,1.075,172.15985,360.41132,973.79089,125.27489,369.92035,908.09564,208.61449,385.19891,885.86566
131,1.083,172.16769,360.38315,973.42432,125.31881,369.40939,906.69031,208.61449,385.19891,885.86566
132,1.092,172.15985,360.41132,973.79089,125.39498,369.69064,907.33154,208.61449,385.19891,885.86566
133,1.1,172.15985,360.41132,973.79089,125.39498,369.69064,907.33154,208.61449,385.19891,885.86566
134,1.108,172.15985,360.41132,973.79089,125.39498,369.69064,907.33154,208.61449,385.19891,885.86566
135,1.117,172.67017,360.68539,973.79395,125.27489,369.92035,908.09564,208.61449,385.19891,885.86566
136,1.125,172.67017,360.68539,973.79395,125.27489,369.92035,908.09564,208.61449,385.19891,885.86566
137,1.133,172.15985,360.41132,973.79089,125.27489,369.92035,908.09564,208.61449,385.19891,885.86566
138,1.142,172.67017,360.68539,973.79395,125.27489,369.92035,908.09564,208.76067,385.1799,885.6734
139,1.15,172.67017,360.68539,973.79395,125.27489,369.92035,908.09564,208.76067,385.1799,885.6734
140,1.158,172.67017,360.68539,973.79395,125.27489,369.92035,908.09564,208.76067,385.1799,885.6734
141,1.167,172.67017,360.68539,973.79395,125.27489,369.92035,908.09564,208.34419,385.25232,885.71851
142,1.175,172.67017,360.68539,973.79395,125.27489,369.92035,908.09564,208.49037,385.23334,885.52618
143,1.183,172.67017,360.68539,973.79395,125.27489,369.92035,908.09564,208.49037,385.23334,885.52618
144,1.192,172.67017,360.68539,973.79395,125.27489,369.92035,908.09564,208.49037,385.23334,885.52618
145,1.2,172.67017,360.68539,973.79395,125.27489,369.92035,908.09564,208.75943,385.15836,885.2113
146,1.208,172.56026,360.46957,973.45154,126.41611,369.4787,908.01123,208.49037,385.23334,885.52618
147,1.217,172.56026,360.46957,973.45154,125.27489,369.92035,908.09564,208.75943,385.15836,885.2113
148,1.225,172.56026,360.46957,973.45154,125.27489,369.92035,908.09564,208.49037,385.23334,885.52618
149,1.233,172.56026,360.46957,973.45154,125.27489,369.92035,908.09564,208.75943,385.15836,885.2113
150,1.242,172.56026,360.46957,973.45154,126.41611,369.4787,908.01123,208.75943,385.15836,885.2113
151,1.25,172.78192,360.45602,973.3858,126.41611,369.4787,908.01123,208.75943,385.15836,885.2113
152,1.258,172.57074,360.50089,973.09607,126.41611,369.4787,908.01123,208.75943,385.15836,885.2113
153,1.267,172.78192,360.45602,973.3858,126.41611,369.4787,908.01123,208.60197,385.36252,884.91089
154,1.275,172.78192,360.45602,973.3858,126.41611,369.4787,908.01123,208.75943,385.15836,885.2113
155,1.283,172.78192,360.45602,973.3858,126.41611,369.4787,908.01123,208.75943,385.15836,885.2113
156,1.292,172.78192,360.45602,973.3858,126.53644,369.24878,907.24689,209.00073,385.17004,885.16168
157,1.3,172.52342,360.67197,973.06732,126.65549,369.01917,906.4826,208.75943,385.15836,885.2113
158,1.308,172.52342,360.67197,973.06732,126.41611,369.4787,908.01123,209.00073,385.17004,885.16168
159,1.317,172.41069,360.69037,972.83374,126.41611,369.4787,908.01123,208.84326,385.37421,884.86127
160,1.325,172.78192,360.45602,973.3858,126.41611,369.4787,908.01123,209.19319,385.12863,885.17584
161,1.333,172.52342,360.67197,973.06732,126.41611,369.4787,908.01123,209.19319,385.12863,885.17584
162,1.342,172.80412,360.63342,973.01453,126.45872,369.69415,907.4151,209.2794,385.98154,885.41113
163,1.35,173.09761,360.51776,973.06592,126.65549,369.01917,906.4826,209.38586,385.10986,885.16614
164,1.358,173.01584,360.72772,972.70038,126.65549,369.01917,906.4826,209.38586,385.10986,885.16614
165,1.367,172.80412,360.63342,973.01453,126.65549,369.01917,906.4826,209.38586,385.10986,885.16614
166,1.375,173.30937,360.61206,972.75171,126.65549,369.01917,906.4826,209.22838,385.31409,884.86572
167,1.383,173.01584,360.72772,972.70038,126.65549,369.01917,906.4826,209.52477,385.2421,885.35748
168,1.392,173.30937,360.61206,972.75171,126.65549,369.01917,906.4826,209.36729,385.44632,885.05713
169,1.4,173.30937,360.61206,972.75171,126.65549,369.01917,906.4826,209.22838,385.31409,884.86572
170,1.408,173.41866,360.70792,972.5697,126.65549,369.01917,906.4826,209.46854,385.2272,884.9209
171,1.417,173.631,360.7876,972.86627,126.65549,369.01917,906.4826,209.62605,385.02295,885.22131
172,1.425,173.631,360.7876,972.86627,126.65549,369.01917,906.4826,209.76491,385.15518,885.41266
173,1.433,173.631,360.7876,972.86627,126.68405,368.91678,906.53918,210.2065,384.61099,885.52399
174,1.442,173.41866,360.70792,972.5697,126.68405,368.91678,906.53918,210.06766,384.47879,885.3327
175,1.45,173.41866,360.70792,972.5697,126.68405,368.91678,906.53918,209.79686,384.52533,885.03149
176,1.458,173.631,360.7876,972.86627,126.68405,368.91678,906.53918,209.93573,384.65756,885.22284
177,1.467,173.631,360.7876,972.86627,126.68405,368.91678,906.53918,210.40968,383.78687,885.3526
178,1.475,173.67715,360.49197,972.88824,126.68405,368.91678,906.53918,210.2065,384.61099,885.52399
179,1.483,173.98624,360.81717,972.9986,126.68405,368.91678,906.53918,210.20471,383.83496,885.26636
180,1.492,173.67715,360.49197,972.88824,126.68405,368.91678,906.53918,210.34354,383.96713,885.45764
181,1.5,173.9888,360.69733,972.8573,126.68405,368.91678,906.53918,210.40968,383.78687,885.3526
182,1.508,174.03503,360.40167,972.87933,126.68405,368.91678,906.53918,210.40968,383.78687,885.3526
183,1.517,174.17145,360.99814,972.46082,126.68405,368.91678,906.53918,210.27086,383.65472,885.16132
184,1.525,174.25764,361.05319,972.25049,126.68405,368.91678,906.53918,210.95665,383.60001,885.21692
185,1.533,174.51242,361.16089,972.44183,126.68405,368.91678,906.53918,210.88394,383.853,885.59796
186,1.542,174.25764,361.05319,972.25049,126.68405,368.91678,906.53918,211.17061,383.79971,885.20984
187,1.55,174.25764,361.05319,972.25049,126.68405,368.91678,906.53918,211.0162,383.65125,884.92114
188,1.558,174.51624,360.83719,972.56915,126.68405,368.91678,906.53918,211.0162,383.65125,884.92114
189,1.567,174.51624,360.83719,972.56915,126.68405,368.91678,906.53918,211.0162,383.65125,884.92114
190,1.575,174.51624,360.83719,972.56915,126.68405,368.91678,906.53918,211.01505,383.62943,884.45874
191,1.583,175.02538,360.65964,972.27063,127.02828,368.75964,906.12921,211.8251,383.44797,884.43817
192,1.592,175.02538,360.65964,972.27063,127.02828,368.75964,906.12921,211.55597,383.52274,884.7533
193,1.6,174.49873,361.10895,972.49438,126.68405,368.91678,906.53918,211.55597,383.52274,884.7533
194,1.608,174.25764,361.05319,972.25049,127.02828,368.75964,906.12921,211.8251,383.44797,884.43817
195,1.617,174.49873,361.10895,972.49438,127.02828,368.75964,906.12921,211.55597,383.52274,884.7533
196,1.625,174.49873,361.10895,972.49438,127.02828,368.75964,906.12921,211.8394,383.50269,884.48401
197,1.633,175.02538,360.65964,972.27063,127.02828,368.75964,906.12921,212.10854,383.42786,884.16888
198,1.642,175.16647,360.57245,972.33154,127.71473,368.53159,905.9043,212.10854,383.42786,884.16888
199,1.65,175.25415,360.98834,972.22845,127.71473,368.53159,905.9043,212.10854,383.42786,884.16888
200,1.658,175.25397,361.25562,972.16718,127.71473,368.53159,905.9043,212.10854,383.42786,884.16888
201,1.667,174.49873,361.10895,972.49438,127.71473,368.53159,905.9043,212.10854,383.42786,884.16888
202,1.675,174.72307,360.99698,972.5672,127.71473,368.53159,905.9043,212.10854,383.42786,884.16888
