Frame#,Time,R.Forearm.x,R.Forearm.y,R.Forearm.z,R.Ulna.x,R.Ulna.y,R.Ulna.z,R.Radius.x,R.Radius.y,R.Radius.z
1,0,198.48544,-300.07394,983.43164,160.46501,-330.38641,909.44177,242.57416,-332.23428,893.18494
2,0.008,198.48544,-300.07394,983.43164,160.46501,-330.38641,909.44177,242.57416,-332.23428,893.18494
3,0.017,198.48544,-300.07394,983.43164,160.46501,-330.38641,909.44177,242.5883,-332.23782,893.19635
4,0.025,198.48544,-300.07394,983.43164,160.48235,-330.13126,909.66705,242.5883,-332.23782,893.19635
5,0.033,198.62909,-299.92596,983.59229,160.48235,-330.13126,909.66705,242.5883,-332.23782,893.19635
6,0.042,198.62175,-300.18787,983.57855,160.81816,-330.60522,909.45654,242.39742,-332.41455,893.08612
7,0.05,198.28502,-300.12424,983.43884,160.46501,-330.38641,909.44177,242.47089,-332.41299,893.32312
8,0.058,198.62175,-300.18787,983.57855,160.48235,-330.13126,909.66705,242.42937,-332.2312,893.45496
9,0.067,198.33344,-300.03983,983.51099,160.48235,-330.13126,909.66705,242.47089,-332.41299,893.32312
10,0.075,198.42133,-300.23813,983.58582,160.48235,-330.13126,909.66705,242.47089,-332.41299,893.32312
11,0.083,198.42133,-300.23813,983.58582,160.48235,-330.13126,909.66705,242.5883,-332.23782,893.19635
12,0.092,198.42133,-300.23813,983.58582,160.48235,-330.13126,909.66705,242.62982,-332.12402,893.28998
13,0.1,198.46974,-300.15375,983.6579,160.48235,-330.13126,909.66705,242.47087,-332.11743,893.54858
14,0.108,198.34781,-300.45105,983.85413,160.48235,-330.13126,909.66705,242.46509,-332.41577,893.31598
15,0.117,198.54822,-300.40076,983.84686,160.48235,-330.13126,909.66705,242.46478,-332.07834,893.56537
16,0.125,198.34781,-300.45105,983.85413,160.48235,-330.13126,909.66705,242.46478,-332.07834,893.56537
17,0.133,198.54822,-300.40076,983.84686,160.48235,-330.13126,909.66705,242.46478,-332.07834,893.56537
18,0.142,198.39622,-300.36667,983.92621,160.48235,-330.13126,909.66705,242.47087,-332.11743,893.54858
19,0.15,198.61322,-300.3074,983.92328,160.8264,-330.40814,909.6886,242.46478,-332.07834,893.56537
20,0.158,198.54822,-300.40076,983.84686,160.8264,-330.40814,909.6886,242.46478,-332.07834,893.56537
21,0.167,198.39622,-300.36667,983.92621,160.48235,-330.13126,909.66705,242.46478,-332.07834,893.56537
22,0.175,198.39622,-300.36667,983.92621,160.28137,-330.48843,910.46808,242.46478,-332.07834,893.56537
23,0.183,198.39622,-300.36667,983.92621,160.28137,-330.48843,910.46808,242.46478,-332.07834,893.56537
24,0.192,198.39622,-300.36667,983.92621,160.62538,-330.76523,910.48962,242.46478,-332.07834,893.56537
25,0.2,198.39622,-300.36667,983.92621,160.68628,-330.67789,909.90161,242.46478,-332.07834,893.56537
26,0.208,198.39622,-300.36667,983.92621,160.62538,-330.76523,910.48962,242.64941,-331.90427,893.69647
27,0.217,198.34317,-300.64771,983.99359,160.62538,-330.76523,910.48962,242.64082,-331.95401,893.65948
28,0.225,198.39622,-300.36667,983.92621,160.62538,-330.76523,910.48962,242.90062,-332.14984,893.82965
29,0.233,198.34317,-300.64771,983.99359,160.62538,-330.76523,910.48962,243.11639,-331.88803,893.9408
30,0.242,198.34317,-300.64771,983.99359,160.62538,-330.76523,910.48962,243.11639,-331.88803,893.9408
31,0.25,198.71535,-300.44516,984.06519,160.62538,-330.76523,910.48962,243.11639,-331.88803,893.9408
32,0.258,198.76843,-300.16409,983.9978,160.62538,-330.76523,910.48962,243.11639,-331.88803,893.9408
33,0.267,198.71535,-300.44516,984.06519,160.62538,-330.76523,910.48962,243.11639,-331.88803,893.9408
34,0.275,198.71535,-300.44516,984.06519,160.79639,-330.9787,910.68677,243.11639,-331.88803,893.9408
35,0.283,198.49838,-300.50439,984.06812,160.79639,-330.9787,910.68677,243.17314,-331.89374,894.13745
36,0.292,198.49838,-300.50439,984.06812,160.98247,-330.77136,910.95569,243.17314,-331.89374,894.13745
37,0.3,198.71535,-300.44516,984.06519,160.79639,-330.9787,910.68677,243.17314,-331.89374,894.13745
38,0.308,198.71535,-300.44516,984.06519,160.79639,-330.9787,910.68677,243.43964,-332.60147,894.21112
39,0.317,198.71535,-300.44516,984.06519,160.79639,-330.9787,910.68677,243.30457,-332.15543,894.33051
40,0.325,198.71535,-300.44516,984.06519,160.79639,-330.9787,910.68677,243.30457,-332.15543,894.33051
41,0.333,198.49838,-300.50439,984.06812,160.79639,-330.9787,910.68677,243.43964,-332.60147,894.21112
42,0.342,198.71535,-300.44516,984.06519,160.98247,-330.77136,910.95569,243.43964,-332.60147,894.21112
43,0.35,198.71535,-300.44516,984.06519,160.98247,-330.77136,910.95569,243.43964,-332.60147,894.21112
44,0.358,198.60779,-300.60101,984.20844,160.98247,-330.77136,910.95569,243.43964,-332.60147,894.21112
45,0.367,198.60779,-300.60101,984.20844,160.98247,-330.77136,910.95569,243.43964,-332.60147,894.21112
46,0.375,198.60779,-300.60101,984.20844,160.98247,-330.77136,910.95569,243.43964,-332.60147,894.21112
47,0.383,198.60779,-300.60101,984.20844,160.98247,-330.77136,910.95569,243.58791,-333.07642,894.35974
48,0.392,198.60779,-300.60101,984.20844,160.79639,-330.9787,910.68677,243.58791,-333.07642,894.35974
49,0.4,198.60779,-300.60101,984.20844,160.79639,-330.9787,910.68677,243.77669,-333.31262,894.31927
50,0.408,198.58498,-301.12875,984.49963,160.79639,-330.9787,910.68677,243.61742,-333.55817,894.27142
51,0.417,198.58498,-301.12875,984.49963,160.79639,-330.9787,910.68677,243.61742,-333.55817,894.27142
52,0.425,198.58498,-301.12875,984.49963,160.79639,-330.9787,910.68677,243.57161,-333.68533,894.16595
53,0.433,198.42383,-301.27051,984.39789,160.79639,-330.9787,910.68677,243.61742,-333.55817,894.27142
54,0.442,198.58498,-301.12875,984.49963,160.79639,-330.9787,910.68677,243.56439,-333.78323,894.37665
55,0.45,198.42383,-301.27051,984.39789,160.79639,-330.9787,910.68677,243.5186,-333.9104,894.27124
56,0.458,198.58498,-301.12875,984.49963,160.42741,-331.21082,911.06177,243.99132,-334.19034,894.23938
57,0.467,198.42383,-301.27051,984.39789,160.79639,-330.9787,910.68677,243.99132,-334.19034,894.23938
58,0.475,198.42383,-301.27051,984.39789,160.79639,-330.9787,910.68677,244.03712,-334.06323,894.34479
59,0.483,198.42383,-301.27051,984.39789,160.42741,-331.21082,911.06177,243.99132,-334.19034,894.23938
60,0.492,198.42383,-301.27051,984.39789,160.42741,-331.21082,911.06177,243.94449,-334.51166,894.32703
61,0.5,198.46776,-301.43753,984.27234,160.42741,-331.21082,911.06177,243.94449,-334.51166,894.32703
62,0.508,198.46776,-301.43753,984.27234,160.42741,-331.21082,911.06177,243.94449,-334.51166,894.32703
63,0.517,198.46776,-301.43753,984.27234,160.42741,-331.21082,911.06177,243.94449,-334.51166,894.32703
64,0.525,198.37529,-301.44205,984.41443,160.42741,-331.21082,911.06177,243.99031,-334.38455,894.4325
65,0.533,198.46776,-301.43753,984.27234,160.42741,-331.21082,911.06177,243.94449,-334.51166,894.32703
66,0.542,198.37529,-301.44205,984.41443,160.50429,-331.67398,911.23883,243.77397,-334.66559,894.18872
67,0.55,198.60394,-301.55136,984.41919,160.87027,-331.59424,911.47485,243.81064,-334.5928,894.54736
68,0.558,198.46552,-301.65836,984.48529,160.50429,-331.67398,911.23883,243.94449,-334.51166,894.32703
69,0.567,198.37529,-301.44205,984.41443,160.50429,-331.67398,911.23883,243.94449,-334.51166,894.32703
70,0.575,198.37529,-301.44205,984.41443,160.50429,-331.67398,911.23883,243.43344,-334.93399,894.27759
71,0.583,198.62283,-301.68085,984.80621,160.98677,-331.84375,911.7113,243.64011,-334.74673,894.40906
72,0.592,198.42252,-301.73114,984.81342,160.87027,-331.59424,911.47485,243.64011,-334.74673,894.40906
73,0.6,198.2652,-301.70865,984.49249,160.50429,-331.67398,911.23883,243.64011,-334.74673,894.40906
74,0.608,198.2652,-301.70865,984.49249,160.50429,-331.67398,911.23883,243.64011,-334.74673,894.40906
75,0.617,198.42252,-301.73114,984.81342,160.75673,-332.18634,911.64624,243.64011,-334.74673,894.40906
76,0.625,198.42252,-301.73114,984.81342,160.98677,-331.84375,911.7113,243.64011,-334.74673,894.40906
77,0.633,198.62283,-301.68085,984.80621,160.87027,-331.59424,911.47485,243.43344,-334.93399,894.27759
78,0.642,198.42252,-301.73114,984.81342,160.87027,-331.59424,911.47485,243.64011,-334.74673,894.40906
79,0.65,198.56189,-301.83566,984.9007,160.35144,-332.34338,911.44714,243.64011,-334.74673,894.40906
80,0.658,198.66264,-301.76208,984.99036,160.75673,-332.18634,911.64624,243.43344,-334.93399,894.27759
81,0.667,198.42252,-301.73114,984.81342,160.75673,-332.18634,911.64624,243.64011,-334.74673,894.40906
82,0.675,198.36159,-301.88596,984.9079,160.98677,-331.84375,911.7113,243.43344,-334.93399,894.27759
83,0.683,198.42252,-301.73114,984.81342,160.62709,-331.95639,911.51044,243.43344,-334.93399,894.27759
84,0.692,198.42252,-301.73114,984.81342,160.64021,-331.93689,911.40979,243.43344,-334.93399,894.27759
85,0.7,198.36159,-301.88596,984.9079,160.75673,-332.18634,911.64624,243.60397,-334.78009,894.41595
86,0.708,198.42252,-301.73114,984.81342,160.98677,-331.84375,911.7113,243.60397,-334.78009,894.41595
87,0.717,198.42252,-301.73114,984.81342,160.62709,-331.95639,911.51044,243.81064,-334.5928,894.54736
88,0.725,198.42252,-301.73114,984.81342,160.62709,-331.95639,911.51044,243.81064,-334.5928,894.54736
89,0.733,198.40141,-301.96713,985.09198,160.75673,-332.18634,911.64624,243.60397,-334.78009,894.41595
90,0.742,198.46234,-301.81235,984.99756,160.64021,-331.93689,911.40979,243.81064,-334.5928,894.54736
91,0.75,198.42252,-301.73114,984.81342,160.98677,-331.84375,911.7113,243.81064,-334.5928,894.54736
92,0.758,198.2652,-301.70865,984.49249,160.50429,-331.67398,911.23883,243.81064,-334.5928,894.54736
93,0.767,198.36159,-301.88596,984.9079,160.62709,-331.95639,911.51044,243.81064,-334.5928,894.54736
94,0.775,198.26724,-301.60815,984.6662,160.62709,-331.95639,911.51044,243.85645,-334.4657,894.65277
95,0.783,198.26724,-301.60815,984.6662,160.98677,-331.84375,911.7113,243.81064,-334.5928,894.54736
96,0.792,198.30498,-301.78989,984.67664,160.50429,-331.67398,911.23883,243.81064,-334.5928,894.54736
97,0.8,198.2652,-301.70865,984.49249,160.50429,-331.67398,911.23883,243.81064,-334.5928,894.54736
98,0.808,198.2652,-301.70865,984.49249,160.67943,-331.51447,911.48859,243.81064,-334.5928,894.54736
99,0.817,198.46234,-301.81235,984.99756,160.80222,-331.79688,911.76013,243.81064,-334.5928,894.54736
100,0.825,198.46234,-301.81235,984.99756,160.30283,-332.1283,911.61176,243.81064,-334.5928,894.54736
101,0.833,198.42252,-301.73114,984.81342,160.30283,-332.1283,911.61176,243.60397,-334.78009,894.41595
102,0.842,198.42252,-301.73114,984.81342,160.50429,-331.67398,911.23883,243.81064,-334.5928,894.54736
103,0.85,198.26724,-301.60815,984.6662,160.67943,-331.51447,911.48859,243.60397,-334.78009,894.41595
104,0.858,198.03452,-301.87198,984.84747,160.67943,-331.51447,911.48859,243.60397,-334.78009,894.41595
105,0.867,198.09543,-301.71716,984.75305,160.67943,-331.51447,911.48859,243.60397,-334.78009,894.41595
106,0.875,198.30498,-301.78989,984.67664,160.30283,-332.1283,911.61176,243.81064,-334.5928,894.54736
107,0.883,198.40141,-301.96713,985.09198,160.30283,-332.1283,911.61176,243.85645,-334.4657,894.65277
108,0.892,198.20883,-301.57257,985.19952,160.50044,-332.47879,912.31952,243.64278,-334.67719,894.74402
109,0.9,198.19186,-301.89441,985.1684,160.50044,-332.47879,912.31952,243.40128,-335.17001,894.79828
110,0.908,198.19186,-301.89441,985.1684,160.86436,-332.26712,912.43439,243.13768,-335.30606,894.72211
111,0.917,198.19186,-301.89441,985.1684,160.37766,-332.19656,912.04803,243.13768,-335.30606,894.72211
112,0.925,198.24158,-301.88696,985.32483,160.50044,-332.47879,912.31952,242.92587,-335.48871,894.5957
113,0.933,198.19186,-301.89441,985.1684,160.50044,-332.47879,912.31952,242.82635,-335.67114,894.75946
114,0.942,198.19186,-301.89441,985.1684,160.86436,-332.26712,912.43439,242.82635,-335.67114,894.75946
115,0.95,198.19186,-301.89441,985.1684,160.50044,-332.47879,912.31952,242.82635,-335.67114,894.75946
116,0.958,198.19186,-301.89441,985.1684,160.50044,-332.47879,912.31952,242.82635,-335.67114,894.75946
117,0.967,198.19186,-301.89441,985.1684,160.86436,-332.26712,912.43439,242.82635,-335.67114,894.75946
118,0.975,198.14792,-301.72739,985.29395,160.86436,-332.26712,912.43439,242.82635,-335.67114,894.75946
119,0.983,198.19186,-301.89441,985.1684,160.86436,-332.26712,912.43439,242.82635,-335.67114,894.75946
120,0.992,198.19186,-301.89441,985.1684,160.86436,-332.26712,912.43439,242.43309,-336.20892,894.9231
121,1,198.19186,-301.89441,985.1684,160.54118,-332.23254,912.47504,242.43309,-336.20892,894.9231
122,1.008,198.19186,-301.89441,985.1684,160.54118,-332.23254,912.47504,242.18947,-336.51443,894.95111
123,1.017,197.95204,-301.86713,985.41913,160.12222,-332.7749,912.52289,242.12326,-337.25143,894.88593
124,1.025,197.95204,-301.86713,985.41913,159.90942,-332.64029,912.64142,241.651,-336.97214,894.91779
125,1.033,197.95204,-301.86713,985.41913,159.90942,-332.64029,912.64142,242.20865,-337.0979,895.00812
126,1.042,198.10538,-302.08926,985.48242,159.90942,-332.64029,912.64142,242.12326,-337.25143,894.88593
127,1.05,198.10538,-302.08926,985.48242,159.90942,-332.64029,912.64142,242.12326,-337.25143,894.88593
128,1.058,198.10538,-302.08926,985.48242,159.90942,-332.64029,912.64142,242.12326,-337.25143,894.88593
129,1.067,198.10538,-302.08926,985.48242,159.89597,-332.70081,912.8761,242.12326,-337.25143,894.88593
130,1.075,198.14934,-302.25632,985.35681,159.83394,-332.51953,912.74274,242.12326,-337.25143,894.88593
131,1.083,198.14934,-302.25632,985.35681,159.89597,-332.70081,912.8761,241.95277,-337.40549,894.74762
132,1.092,198.10538,-302.08926,985.48242,159.84181,-332.66006,912.48193,241.95277,-337.40549,894.74762
133,1.1,198.10538,-302.08926,985.48242,159.84181,-332.66006,912.48193,241.95277,-337.40549,894.74762
134,1.108,198.03334,-302.78549,985.40063,159.89597,-332.70081,912.8761,241.95277,-337.40549,894.74762
135,1.117,197.9894,-302.61841,985.52625,159.90942,-332.64029,912.64142,241.95277,-337.40549,894.74762
136,1.125,198.14934,-302.25632,985.35681,159.90942,-332.64029,912.64142,241.95277,-337.40549,894.74762
137,1.133,198.10538,-302.08926,985.48242,159.84181,-332.66006,912.48193,241.95277,-337.40549,894.74762
138,1.142,198.10538,-302.08926,985.48242,159.84181,-332.66006,912.48193,241.95277,-337.40549,894.74762
139,1.15,198.10538,-302.08926,985.48242,159.90942,-332.64029,912.64142,241.95277,-337.40549,894.74762
140,1.158,198.10538,-302.08926,985.48242,159.90942,-332.64029,912.64142,241.95277,-337.40549,894.74762
141,1.167,198.14934,-302.25632,985.35681,159.90942,-332.64029,912.64142,241.95277,-337.40549,894.74762
142,1.175,198.14934,-302.25632,985.35681,159.77979,-332.47873,912.34857,241.48053,-337.12622,894.77948
143,1.183,198.14934,-302.25632,985.35681,159.90942,-332.64029,912.64142,241.89604,-337.39984,894.55115
144,1.192,198.14934,-302.25632,985.35681,159.85526,-332.59946,912.24731,241.95277,-337.40549,894.74762
145,1.2,198.19186,-301.89441,985.1684,159.85526,-332.59946,912.24731,241.99562,-337.21735,894.38739
146,1.208,198.19186,-301.89441,985.1684,159.80173,-332.5596,911.85321,241.77463,-336.72009,894.16956
147,1.217,198.19186,-301.89441,985.1684,159.58713,-333.02338,911.98553,241.30226,-336.44064,894.20129
148,1.225,198.19186,-301.89441,985.1684,159.58713,-333.02338,911.98553,241.20273,-336.62317,894.36511
149,1.233,198.19186,-301.89441,985.1684,160.43347,-332.15176,911.68683,241.30226,-336.44064,894.20129
150,1.242,198.40141,-301.96713,985.09198,160.00206,-332.3295,911.4845,241.30226,-336.44064,894.20129
151,1.25,198.19186,-301.89441,985.1684,159.51291,-332.95615,911.54944,241.30226,-336.44064,894.20129
152,1.258,198.40141,-301.96713,985.09198,159.39006,-332.67377,911.27789,241.4519,-336.20819,894.06567
153,1.267,198.40141,-301.96713,985.09198,160.00206,-332.3295,911.4845,241.4519,-336.20819,894.06567
154,1.275,198.40141,-301.96713,985.09198,160.00206,-332.3295,911.4845,241.4519,-336.20819,894.06567
155,1.283,198.36159,-301.88596,984.9079,160.00206,-332.3295,911.4845,241.69553,-335.90262,894.03766
156,1.292,198.20427,-301.86346,984.58698,160.35144,-332.34338,911.44714,241.69553,-335.90262,894.03766
157,1.3,198.20427,-301.86346,984.58698,160.35144,-332.34338,911.44714,241.93921,-335.5972,894.0097
158,1.308,198.20427,-301.86346,984.58698,160.22862,-332.06104,911.1756,241.93921,-335.5972,894.0097
159,1.317,198.20427,-301.86346,984.58698,160.22862,-332.06104,911.1756,241.93921,-335.5972,894.0097
160,1.325,198.2652,-301.70865,984.49249,160.30283,-332.1283,911.61176,241.93921,-335.5972,894.0097
161,1.333,198.2652,-301.70865,984.49249,160.30283,-332.1283,911.61176,242.41167,-335.87686,893.97797
162,1.342,198.33862,-301.69495,984.34998,160.30283,-332.1283,911.61176,242.41167,-335.87686,893.97797
163,1.35,198.53896,-301.64468,984.34277,160.22862,-332.06104,911.1756,242.15504,-335.3714,894.10339
164,1.358,198.53896,-301.64468,984.34277,160.30283,-332.1283,911.61176,242.62753,-335.65109,894.07159
165,1.367,198.53896,-301.64468,984.34277,160.30283,-332.1283,911.61176,242.69844,-335.63672,894.2608
166,1.375,198.53896,-301.64468,984.34277,160.22862,-332.06104,911.1756,242.76141,-335.56998,893.85126
167,1.383,198.76692,-301.79553,984.14746,160.30283,-332.1283,911.61176,242.76141,-335.56998,893.85126
168,1.392,198.74112,-301.72498,984.22711,160.30283,-332.1283,911.61176,242.83234,-335.55557,894.04047
169,1.4,198.76768,-301.97,984.01801,160.30283,-332.1283,911.61176,242.83234,-335.55557,894.04047
170,1.408,198.76692,-301.79553,984.14746,160.30283,-332.1283,911.61176,243.06824,-335.2442,893.74902
171,1.417,198.76692,-301.79553,984.14746,160.67943,-331.51447,911.48859,243.35774,-335.33865,893.81805
172,1.425,198.99956,-301.55884,984.32538,160.67943,-331.51447,911.48859,243.35774,-335.33865,893.81805
173,1.433,198.76768,-301.97,984.01801,160.67943,-331.51447,911.48859,243.35774,-335.33865,893.81805
174,1.442,198.76692,-301.79553,984.14746,160.67943,-331.51447,911.48859,243.35774,-335.33865,893.81805
175,1.45,198.83916,-301.87503,984.09418,160.80222,-331.79688,911.76013,243.28683,-335.35303,893.62885
176,1.458,198.92809,-301.65381,984.24921,160.67943,-331.51447,911.48859,243.35774,-335.33865,893.81805
177,1.467,198.92883,-301.82831,984.11975,160.67943,-331.51447,911.48859,243.35774,-335.33865,893.81805
178,1.475,198.96362,-301.83023,983.89282,160.50429,-331.67398,911.23883,243.55563,-335.22153,893.69995
179,1.483,199.12086,-301.85278,984.21387,161.11206,-331.60516,911.44293,243.55563,-335.22153,893.69995
180,1.492,199.29694,-301.87546,983.99817,161.11206,-331.60516,911.44293,243.85904,-335.15222,893.70996
181,1.5,199.68842,-301.9584,984.4234,161.12872,-331.69272,911.94086,243.92992,-335.13782,893.89917
182,1.508,199.42105,-301.88651,984.18506,161.35054,-331.22537,911.13727,244.16246,-335.08295,893.72003
183,1.517,199.53117,-301.93588,984.10236,161.40742,-331.50485,910.76233,244.16246,-335.08295,893.72003
184,1.525,199.37054,-301.66248,983.72992,161.40742,-331.50485,910.76233,244.16246,-335.08295,893.72003
185,1.533,199.64462,-301.94043,983.99988,161.57962,-331.3446,910.85547,244.16246,-335.08295,893.72003
186,1.542,200.00926,-302.05563,983.89069,161.57962,-331.3446,910.85547,244.16246,-335.08295,893.72003
187,1.55,199.88902,-301.67743,983.77057,161.5009,-331.81393,911.05762,244.32179,-334.83743,893.76788
188,1.558,200.04631,-301.69995,984.09174,161.67308,-331.65372,911.15076,244.54945,-334.85559,893.71313
189,1.567,200.00926,-302.05563,983.89069,161.40742,-331.50485,910.76233,244.54945,-334.85559,893.71313
190,1.575,200.07909,-301.90402,983.88312,161.37144,-330.98007,910.57019,244.77695,-334.7337,893.78302
191,1.583,200.15952,-302.06473,983.83746,161.54369,-330.81976,910.66333,244.77695,-334.7337,893.78302
192,1.592,200.34795,-301.95285,983.66589,161.54369,-330.81976,910.66333,244.77695,-334.7337,893.78302
193,1.6,200.5909,-302.11108,983.83276,161.54369,-330.81976,910.66333,244.80046,-334.84692,893.67841
194,1.608,200.55113,-301.89362,983.66699,161.54369,-330.81976,910.66333,244.77695,-334.7337,893.78302
195,1.617,200.55113,-301.89362,983.66699,161.54369,-330.81976,910.66333,244.97319,-334.88177,893.61835
196,1.625,200.55113,-301.89362,983.66699,161.54369,-330.81976,910.66333,244.97319,-334.88177,893.61835
