Frame#,Time,R.Forearm.x,R.Forearm.y,R.Forearm.z,R.Ulna.x,R.Ulna.y,R.Ulna.z,R.Radius.x,R.Radius.y,R.Radius.z
1,0,122.63851,-238.45441,970.85577,217.39809,-269.98019,938.01031,274.42242,-183.76999,972.40259
2,0.008,122.65532,-238.38298,970.61786,217.39809,-269.98019,938.01031,274.42242,-183.76999,972.40259
3,0.017,122.53423,-238.40398,970.65503,217.3192,-270.12415,937.91846,273.89435,-183.23364,972.75665
4,0.025,122.65532,-238.38298,970.61786,217.39809,-269.98019,938.01031,274.05429,-183.13538,972.63641
5,0.033,122.47324,-238.59587,970.58374,217.39809,-269.98019,938.01031,273.89435,-183.23364,972.75665
6,0.042,122.47324,-238.59587,970.58374,217.3192,-270.12415,937.91846,273.89435,-183.23364,972.75665
7,0.05,122.45644,-238.66727,970.82159,217.39809,-269.98019,938.01031,274.05429,-183.13538,972.63641
8,0.058,122.62217,-238.64337,970.86182,217.3192,-270.12415,937.91846,273.89435,-183.23364,972.75665
9,0.067,122.44392,-238.84839,970.57892,217.3192,-270.12415,937.91846,274.14926,-183.29077,973.27454
10,0.075,122.47324,-238.59587,970.58374,217.39809,-269.98019,938.01031,274.52725,-183.87259,972.99298
11,0.083,122.47324,-238.59587,970.58374,217.3192,-270.12415,937.91846,274.52725,-183.87259,972.99298
12,0.092,122.41742,-238.95538,970.48364,217.39809,-269.98019,938.01031,274.69952,-183.91447,973.00891
13,0.1,122.47324,-238.59587,970.58374,217.39809,-269.98019,938.01031,274.52725,-183.87259,972.99298
14,0.108,122.47324,-238.59587,970.58374,217.39809,-269.98019,938.01031,274.52725,-183.87259,972.99298
15,0.117,122.46066,-238.77722,970.34113,217.39809,-269.98019,938.01031,274.52725,-183.87259,972.99298
16,0.125,122.46347,-238.63167,970.25061,217.3192,-270.12415,937.91846,274.55859,-184.01064,973.11768
17,0.133,122.47324,-238.59587,970.58374,217.39809,-269.98019,938.01031,274.52725,-183.87259,972.99298
18,0.142,122.48997,-238.52467,970.34583,217.39809,-269.98019,938.01031,274.52725,-183.87259,972.99298
19,0.15,122.47324,-238.59587,970.58374,217.39809,-269.98019,938.01031,274.52725,-183.87259,972.99298
20,0.158,122.51788,-238.59294,970.66107,217.39809,-269.98019,938.01031,274.52725,-183.87259,972.99298
21,0.167,122.53423,-238.40398,970.65503,217.39809,-269.98019,938.01031,274.55859,-184.01064,973.11768
22,0.175,122.47324,-238.59587,970.58374,217.39809,-269.98019,938.01031,274.55859,-184.01064,973.11768
23,0.183,122.45644,-238.66727,970.82159,217.39809,-269.98019,938.01031,274.52725,-183.87259,972.99298
24,0.192,122.53423,-238.40398,970.65503,217.39809,-269.98019,938.01031,274.52725,-183.87259,972.99298
25,0.2,122.51743,-238.47539,970.89288,217.39809,-269.98019,938.01031,274.52725,-183.87259,972.99298
26,0.208,122.53423,-238.40398,970.65503,217.39809,-269.98019,938.01031,274.52725,-183.87259,972.99298
27,0.217,122.47324,-238.59587,970.58374,217.39809,-269.98019,938.01031,274.52725,-183.87259,972.99298
28,0.225,122.53423,-238.40398,970.65503,217.39809,-269.98019,938.01031,274.52725,-183.87259,972.99298
29,0.233,122.51743,-238.47539,970.89288,217.39809,-269.98019,938.01031,274.52725,-183.87259,972.99298
30,0.242,122.45644,-238.66727,970.82159,217.39809,-269.98019,938.01031,274.52725,-183.87259,972.99298
31,0.25,122.51743,-238.47539,970.89288,217.39809,-269.98019,938.01031,274.55859,-184.01064,973.11768
32,0.258,122.47324,-238.59587,970.58374,217.39809,-269.98019,938.01031,274.52725,-183.87259,972.99298
33,0.267,122.51962,-238.14932,970.41406,217.39809,-269.98019,938.01031,274.22882,-183.77214,973.25452
34,0.275,122.47324,-238.59587,970.58374,217.39809,-269.98019,938.01031,274.22882,-183.77214,973.25452
35,0.283,122.53423,-238.40398,970.65503,217.39809,-269.98019,938.01031,274.22882,-183.77214,973.25452
36,0.292,122.47324,-238.59587,970.58374,217.39809,-269.98019,938.01031,274.22882,-183.77214,973.25452
37,0.3,122.51743,-238.47539,970.89288,217.39809,-269.98019,938.01031,274.22882,-183.77214,973.25452
38,0.308,122.47324,-238.59587,970.58374,217.39809,-269.98019,938.01031,274.22882,-183.77214,973.25452
39,0.317,122.4418,-238.41272,970.58069,217.39809,-269.98019,938.01031,274.22882,-183.77214,973.25452
40,0.325,122.45644,-238.66727,970.82159,217.20157,-270.12643,937.80322,274.22882,-183.77214,973.25452
41,0.333,122.45644,-238.66727,970.82159,217.28046,-269.98248,937.89508,274.22882,-183.77214,973.25452
42,0.342,122.45644,-238.66727,970.82159,217.20157,-270.12643,937.80322,274.22882,-183.77214,973.25452
43,0.35,122.47324,-238.59587,970.58374,217.20157,-270.12643,937.80322,274.22882,-183.77214,973.25452
44,0.358,122.45644,-238.66727,970.82159,217.28046,-269.98248,937.89508,274.22882,-183.77214,973.25452
45,0.367,122.53423,-238.40398,970.65503,217.3192,-270.12415,937.91846,274.52725,-183.87259,972.99298
46,0.375,122.45644,-238.66727,970.82159,217.39809,-269.98019,938.01031,274.22882,-183.77214,973.25452
47,0.383,122.45644,-238.66727,970.82159,217.39809,-269.98019,938.01031,274.52725,-183.87259,972.99298
48,0.392,122.45644,-238.66727,970.82159,217.3192,-270.12415,937.91846,274.52725,-183.87259,972.99298
49,0.4,122.45644,-238.66727,970.82159,217.3192,-270.12415,937.91846,274.52725,-183.87259,972.99298
50,0.408,122.42713,-238.91977,970.81677,217.37387,-270.21329,938.10327,274.52725,-183.87259,972.99298
51,0.417,122.45644,-238.66727,970.82159,217.37387,-270.21329,938.10327,274.52725,-183.87259,972.99298
52,0.425,122.51743,-238.47539,970.89288,217.37387,-270.21329,938.10327,274.52725,-183.87259,972.99298
53,0.433,122.51743,-238.47539,970.89288,217.38658,-270.12317,938.39691,274.52725,-183.87259,972.99298
54,0.442,122.45644,-238.66727,970.82159,217.38658,-270.12317,938.39691,274.52725,-183.87259,972.99298
55,0.45,122.45644,-238.66727,970.82159,217.33269,-270.02441,938.18634,274.52725,-183.87259,972.99298
56,0.458,122.45644,-238.66727,970.82159,217.3192,-270.12415,937.91846,274.52725,-183.87259,972.99298
57,0.467,122.51743,-238.47539,970.89288,217.28046,-269.98248,937.89508,274.52725,-183.87259,972.99298
58,0.475,122.45644,-238.66727,970.82159,217.3192,-270.12415,937.91846,274.52725,-183.87259,972.99298
59,0.483,122.47324,-238.59587,970.58374,217.39809,-269.98019,938.01031,274.52725,-183.87259,972.99298
60,0.492,122.45644,-238.66727,970.82159,217.28793,-270.2103,938.14026,274.52725,-183.87259,972.99298
61,0.5,122.45644,-238.66727,970.82159,217.33511,-270.07166,938.07983,274.52725,-183.87259,972.99298
62,0.508,122.42992,-238.77429,970.72632,217.16225,-270.26544,937.86029,274.52725,-183.87259,972.99298
63,0.517,122.47324,-238.59587,970.58374,217.3192,-270.12415,937.91846,274.52725,-183.87259,972.99298
64,0.525,122.53423,-238.40398,970.65503,217.3192,-270.12415,937.91846,274.52725,-183.87259,972.99298
65,0.533,122.45644,-238.66727,970.82159,217.28046,-269.98248,937.89508,274.52725,-183.87259,972.99298
66,0.542,122.53423,-238.40398,970.65503,217.39809,-269.98019,938.01031,274.52725,-183.87259,972.99298
67,0.55,122.45644,-238.66727,970.82159,217.3192,-270.12415,937.91846,274.52725,-183.87259,972.99298
68,0.558,122.51743,-238.47539,970.89288,217.39809,-269.98019,938.01031,274.52725,-183.87259,972.99298
69,0.567,122.55096,-238.33279,970.41711,217.39809,-269.98019,938.01031,274.52725,-183.87259,972.99298
70,0.575,122.55096,-238.33279,970.41711,217.39809,-269.98019,938.01031,274.52725,-183.87259,972.99298
71,0.583,122.45644,-238.66727,970.82159,217.39809,-269.98019,938.01031,274.52725,-183.87259,972.99298
72,0.592,122.45644,-238.66727,970.82159,217.39809,-269.98019,938.01031,274.55859,-184.01064,973.11768
73,0.6,122.51743,-238.47539,970.89288,217.11925,-269.95667,938.14252,274.22882,-183.77214,973.25452
74,0.608,122.51743,-238.47539,970.89288,217.39809,-269.98019,938.01031,274.22882,-183.77214,973.25452
75,0.617,122.53423,-238.40398,970.65503,217.39809,-269.98019,938.01031,274.22882,-183.77214,973.25452
76,0.625,122.51743,-238.47539,970.89288,217.39809,-269.98019,938.01031,274.22882,-183.77214,973.25452
77,0.633,122.53423,-238.40398,970.65503,217.39809,-269.98019,938.01031,274.22882,-183.77214,973.25452
78,0.642,122.53423,-238.40398,970.65503,217.39809,-269.98019,938.01031,274.22882,-183.77214,973.25452
79,0.65,122.53423,-238.40398,970.65503,217.39809,-269.98019,938.01031,274.26016,-183.91019,973.37921
80,0.658,122.53423,-238.40398,970.65503,217.39809,-269.98019,938.01031,274.22882,-183.77214,973.25452
81,0.667,122.53423,-238.40398,970.65503,217.39809,-269.98019,938.01031,274.26016,-183.91019,973.37921
82,0.675,122.53423,-238.40398,970.65503,217.22519,-270.17023,937.91669,274.22882,-183.77214,973.25452
83,0.683,122.53423,-238.40398,970.65503,217.39809,-269.98019,938.01031,274.22882,-183.77214,973.25452
84,0.692,122.53423,-238.40398,970.65503,217.39809,-269.98019,938.01031,274.22882,-183.77214,973.25452
85,0.7,122.51743,-238.47539,970.89288,217.39809,-269.98019,938.01031,274.22882,-183.77214,973.25452
86,0.708,122.51743,-238.47539,970.89288,217.39809,-269.98019,938.01031,274.22882,-183.77214,973.25452
87,0.717,122.53423,-238.40398,970.65503,217.32835,-270.15317,938.15021,274.26016,-183.91019,973.37921
88,0.725,122.51743,-238.47539,970.89288,217.39809,-269.98019,938.01031,274.26016,-183.91019,973.37921
89,0.733,122.53423,-238.40398,970.65503,217.33269,-270.02441,938.18634,274.26016,-183.91019,973.37921
90,0.742,122.51743,-238.47539,970.89288,217.12354,-270.18549,938.39227,274.26016,-183.91019,973.37921
91,0.75,122.51743,-238.47539,970.89288,217.12354,-270.18549,938.39227,274.24274,-183.72139,973.52759
92,0.758,122.51743,-238.47539,970.89288,217.31683,-270.29605,938.5368,274.26016,-183.91019,973.37921
93,0.767,122.51743,-238.47539,970.89288,217.03804,-270.2724,938.66895,274.24274,-183.72139,973.52759
94,0.775,122.31847,-238.472,971.0661,217.03804,-270.2724,938.66895,274.24274,-183.72139,973.52759
95,0.783,122.49801,-238.65553,971.08606,217.03804,-270.2724,938.66895,274.24274,-183.72139,973.52759
96,0.792,122.20588,-238.61165,971.33618,217.03804,-270.2724,938.66895,274.24274,-183.72139,973.52759
97,0.8,122.20588,-238.61165,971.33618,217.03804,-270.2724,938.66895,274.24274,-183.72139,973.52759
98,0.808,122.20588,-238.61165,971.33618,216.85327,-270.26218,938.81042,274.14828,-183.63817,973.64172
99,0.817,122.15724,-238.53264,971.42578,217.03804,-270.2724,938.66895,273.89835,-183.72069,973.72137
100,0.825,122.25488,-238.5692,971.35016,216.85327,-270.26218,938.81042,274.14828,-183.63817,973.64172
101,0.833,122.29907,-238.65211,971.25928,216.85327,-270.26218,938.81042,274.14828,-183.63817,973.64172
102,0.842,122.15724,-238.53264,971.42578,216.81821,-270.22049,938.93323,274.14828,-183.63817,973.64172
103,0.85,122.15724,-238.53264,971.42578,216.99434,-270.33804,939.08167,274.24896,-183.42311,973.74341
104,0.858,122.15724,-238.53264,971.42578,216.99434,-270.33804,939.08167,274.24896,-183.42311,973.74341
105,0.867,122.15724,-238.53264,971.42578,216.99434,-270.33804,939.08167,274.3793,-183.53079,973.86462
106,0.875,122.15724,-238.53264,971.42578,216.93192,-270.52585,939.24744,274.3793,-183.53079,973.86462
107,0.883,122.15724,-238.53264,971.42578,216.93192,-270.52585,939.24744,273.73495,-182.98341,974.30267
108,0.892,122.15724,-238.53264,971.42578,216.93192,-270.52585,939.24744,274.16443,-183.58351,973.94647
109,0.9,122.15724,-238.53264,971.42578,216.93192,-270.52585,939.24744,273.73495,-182.98341,974.30267
110,0.908,122.22417,-238.51202,971.53894,216.93192,-270.52585,939.24744,273.73495,-182.98341,974.30267
111,0.917,122.15724,-238.53264,971.42578,216.93192,-270.52585,939.24744,273.95856,-182.93706,974.21014
112,0.925,122.15724,-238.53264,971.42578,217.01076,-270.38202,939.33936,273.73495,-182.98341,974.30267
113,0.933,122.15724,-238.53264,971.42578,216.96756,-270.14825,939.62054,273.73495,-182.98341,974.30267
114,0.942,122.22417,-238.51202,971.53894,217.01076,-270.38202,939.33936,273.73495,-182.98341,974.30267
115,0.95,122.22417,-238.51202,971.53894,217.01076,-270.38202,939.33936,273.73495,-182.98341,974.30267
116,0.958,122.22417,-238.51202,971.53894,216.96756,-270.14825,939.62054,273.86441,-182.72276,974.40759
117,0.967,122.22417,-238.51202,971.53894,217.01076,-270.38202,939.33936,273.92624,-182.77522,974.60602
118,0.975,122.22417,-238.51202,971.53894,217.01076,-270.38202,939.33936,273.92624,-182.77522,974.60602
119,0.983,122.4007,-238.61093,971.68286,216.96756,-270.14825,939.62054,273.92624,-182.77522,974.60602
120,0.992,122.22417,-238.51202,971.53894,216.96756,-270.14825,939.62054,273.92624,-182.77522,974.60602
121,1,122.22417,-238.51202,971.53894,216.96756,-270.14825,939.62054,273.92624,-182.77522,974.60602
122,1.008,122.22417,-238.51202,971.53894,216.96756,-270.14825,939.62054,273.92624,-182.77522,974.60602
123,1.017,122.22417,-238.51202,971.53894,216.96756,-270.14825,939.62054,274.2034,-183.27325,974.17181
124,1.025,122.22417,-238.51202,971.53894,216.96756,-270.14825,939.62054,273.92624,-182.77522,974.60602
125,1.033,122.22417,-238.51202,971.53894,216.96756,-270.14825,939.62054,273.92624,-182.77522,974.60602
126,1.042,122.4007,-238.61093,971.68286,216.96756,-270.14825,939.62054,273.86441,-182.72276,974.40759
127,1.05,122.2577,-238.37862,971.63763,216.96756,-270.14825,939.62054,274.26706,-183.30656,974.35577
128,1.058,122.22417,-238.51202,971.53894,216.96756,-270.14825,939.62054,274.15558,-182.63091,974.57684
129,1.067,122.22417,-238.51202,971.53894,216.96756,-270.14825,939.62054,273.92624,-182.77522,974.60602
130,1.075,122.22417,-238.51202,971.53894,216.96756,-270.14825,939.62054,273.92624,-182.77522,974.60602
131,1.083,122.2577,-238.37862,971.63763,216.96756,-270.14825,939.62054,273.92624,-182.77522,974.60602
132,1.092,122.2577,-238.37862,971.63763,217.12453,-270.00711,939.67883,273.92624,-182.77522,974.60602
133,1.1,122.2577,-238.37862,971.63763,217.16772,-270.24091,939.39758,274.15558,-182.63091,974.57684
134,1.108,122.2577,-238.37862,971.63763,217.12453,-270.00711,939.67883,273.92624,-182.77522,974.60602
135,1.117,122.2577,-238.37862,971.63763,217.12453,-270.00711,939.67883,274.15558,-182.63091,974.57684
136,1.125,122.2577,-238.37862,971.63763,217.18695,-269.81931,939.51306,274.15558,-182.63091,974.57684
137,1.133,122.2577,-238.37862,971.63763,217.12453,-270.00711,939.67883,274.15558,-182.63091,974.57684
138,1.142,122.32477,-238.24434,971.73041,217.12453,-270.00711,939.67883,274.15558,-182.63091,974.57684
139,1.15,122.32477,-238.24434,971.73041,217.27797,-269.84149,939.83246,274.0441,-182.26921,974.65503
140,1.158,122.2577,-238.37862,971.63763,217.34099,-269.8215,939.99817,274.0441,-182.26921,974.65503
141,1.167,122.32477,-238.24434,971.73041,217.36192,-269.84906,940.12598,274.0441,-182.26921,974.65503
142,1.175,122.32477,-238.24434,971.73041,217.34099,-269.8215,939.99817,274.0441,-182.26921,974.65503
143,1.183,122.32477,-238.24434,971.73041,217.39139,-269.57635,940.04645,274.39728,-182.84766,974.41217
144,1.192,122.32477,-238.24434,971.73041,217.2482,-269.54379,939.81177,274.44122,-182.62251,974.55341
145,1.2,122.32477,-238.24434,971.73041,217.15276,-269.64673,940.06378,274.44122,-182.62251,974.55341
146,1.208,122.32477,-238.24434,971.73041,217.15276,-269.64673,940.06378,274.44122,-182.62251,974.55341
147,1.217,122.32477,-238.24434,971.73041,217.21519,-269.45889,939.89801,274.39728,-182.84766,974.41217
148,1.225,122.32477,-238.24434,971.73041,217.39139,-269.57635,940.04645,274.44122,-182.62251,974.55341
149,1.233,122.28758,-238.0195,971.85211,217.57056,-269.2937,940.03394,274.44122,-182.62251,974.55341
150,1.242,122.28758,-238.0195,971.85211,217.57056,-269.2937,940.03394,274.44122,-182.62251,974.55341
151,1.25,122.32477,-238.24434,971.73041,217.60355,-269.3786,939.94769,274.39728,-182.84766,974.41217
152,1.258,122.32477,-238.24434,971.73041,217.60762,-269.31918,939.83429,273.98227,-182.21675,974.4566
153,1.267,122.32477,-238.24434,971.73041,217.47462,-269.43558,939.40454,274.771,-183.21196,974.1239
154,1.275,122.32477,-238.24434,971.73041,217.47462,-269.43558,939.40454,274.17331,-182.20734,974.35724
155,1.283,122.32477,-238.24434,971.73041,217.36169,-269.41135,939.69659,274.17331,-182.20734,974.35724
156,1.292,122.5558,-237.88356,971.78198,217.64774,-269.73535,939.18195,274.70734,-183.17863,973.93988
157,1.3,122.32477,-238.24434,971.73041,217.40915,-269.67749,939.22314,274.17331,-182.20734,974.35724
158,1.308,122.5558,-237.88356,971.78198,217.37338,-269.3624,939.57111,274.70734,-183.17863,973.93988
159,1.317,122.5752,-237.70345,971.58887,217.10023,-269.63007,939.23468,274.17331,-182.20734,974.35724
160,1.325,122.25629,-237.95476,971.29523,217.58641,-269.69766,938.74121,274.70734,-183.17863,973.93988
161,1.333,122.25629,-237.95476,971.29523,217.7114,-269.92612,938.73962,274.70734,-183.17863,973.93988
162,1.342,122.25629,-237.95476,971.29523,217.7114,-269.92612,938.73962,274.17331,-182.20734,974.35724
163,1.35,122.5558,-237.88356,971.78198,217.7114,-269.92612,938.73962,274.70734,-183.17863,973.93988
164,1.358,122.51862,-237.65866,971.90369,217.77493,-269.51758,939.22473,274.70734,-183.17863,973.93988
165,1.367,122.66801,-237.90932,971.7088,217.55058,-269.38272,939.08911,274.70734,-183.17863,973.93988
166,1.375,122.25629,-237.95476,971.29523,217.7114,-269.92612,938.73962,274.70734,-183.17863,973.93988
167,1.383,122.25629,-237.95476,971.29523,217.44754,-269.83704,938.58179,274.70734,-183.17863,973.93988
168,1.392,122.25629,-237.95476,971.29523,217.7114,-269.92612,938.73962,274.17331,-182.20734,974.35724
169,1.4,122.5558,-237.88356,971.78198,217.7114,-269.92612,938.73962,274.70734,-183.17863,973.93988
170,1.408,122.85398,-237.63118,972.08337,217.94583,-269.40903,939.15277,275.21298,-183.28598,974.06451
171,1.417,122.89113,-237.85609,971.96161,217.67561,-269.61121,939.08759,275.21298,-183.28598,974.06451
172,1.425,122.73237,-237.9825,971.92596,217.94583,-269.40903,939.15277,275.21298,-183.28598,974.06451
173,1.433,122.77795,-237.98056,971.9068,217.67561,-269.61121,939.08759,275.21298,-183.28598,974.06451
174,1.442,122.5558,-237.88356,971.78198,217.98904,-269.64276,938.87146,275.21298,-183.28598,974.06451
175,1.45,122.39046,-238.08975,971.0506,217.98904,-269.64276,938.87146,275.21298,-183.28598,974.06451
176,1.458,122.867,-237.91278,971.53558,217.98904,-269.64276,938.87146,275.0939,-183.17178,974.19403
177,1.467,123.16674,-237.60162,971.32678,217.98904,-269.64276,938.87146,275.0939,-183.17178,974.19403
178,1.475,123.16674,-237.60162,971.32678,217.98904,-269.64276,938.87146,275.0939,-183.17178,974.19403
179,1.483,123.03135,-237.73009,971.27863,217.98904,-269.64276,938.87146,275.15759,-183.20517,974.37799
180,1.492,123.16674,-237.60162,971.32678,217.98904,-269.64276,938.87146,275.03876,-183.19952,974.57233
181,1.5,122.81747,-237.91896,971.55286,217.98904,-269.64276,938.87146,275.03876,-183.19952,974.57233
182,1.508,123.18568,-238.02104,971.65546,217.98904,-269.64276,938.87146,275.03876,-183.19952,974.57233
183,1.517,122.71455,-237.75719,971.81763,217.94583,-269.40903,939.15277,275.14197,-183.21707,974.71576
184,1.525,122.73237,-237.9825,971.92596,217.67561,-269.61121,939.08759,275.14197,-183.21707,974.71576
185,1.533,122.73237,-237.9825,971.92596,217.89853,-269.69806,939.26929,275.0351,-183.13562,974.84534
186,1.542,122.82097,-237.99121,971.99927,217.89853,-269.69806,939.26929,275.0351,-183.13562,974.84534
187,1.55,122.97974,-237.86481,972.03491,217.83539,-269.24103,939.53333,275.0351,-183.13562,974.84534
188,1.558,122.94259,-237.63989,972.15668,217.5452,-269.50699,940,275.20947,-182.9498,974.77991
189,1.567,123.00934,-237.63547,972.27277,217.68831,-269.53964,940.23474,274.91766,-182.66743,974.9422
190,1.575,123.00934,-237.63547,972.27277,217.68831,-269.53964,940.23474,274.91766,-182.66743,974.9422
191,1.583,123.00934,-237.63547,972.27277,217.65332,-269.49789,940.35754,275.32819,-181.98126,975.34546
192,1.592,123.00934,-237.63547,972.27277,217.64923,-269.55728,940.47089,274.74158,-181.79034,975.24597
193,1.6,123.1728,-237.82758,972.53265,217.64923,-269.55728,940.47089,275.04584,-182.37123,975.27649
194,1.608,122.99626,-237.72861,972.38867,217.64923,-269.55728,940.47089,274.70697,-182.27063,975.05652
195,1.617,123.00934,-237.63547,972.27277,217.64923,-269.55728,940.47089,275.24826,-182.72304,975.14911
