Frame#,Time,R.Forearm.x,R.Forearm.y,R.Forearm.z,R.Ulna.x,R.Ulna.y,R.Ulna.z,R.Radius.x,R.Radius.y,R.Radius.z
1,0,-134.71941,-207.72786,572.84497,-151.72023,-245.00029,477.79852,-89.08006,-219.10452,434.76205
2,0.008,-134.94862,-207.93573,572.73785,-152.32593,-244.95912,477.83725,-88.83363,-219.40613,434.80182
3,0.017,-135.12372,-207.94749,572.59601,-152.1476,-245.07176,477.91849,-88.83363,-219.40613,434.80182
4,0.025,-135.90419,-207.3905,572.50586,-152.30318,-245.30998,477.79272,-88.83363,-219.40613,434.80182
5,0.033,-135.86243,-207.53564,572.4281,-152.48151,-245.19734,477.71146,-89.08006,-219.10452,434.76205
6,0.042,-135.86243,-207.53564,572.4281,-152.58702,-245.48558,477.71613,-89.08006,-219.10452,434.76205
7,0.05,-135.09776,-207.87921,572.66724,-152.58702,-245.48558,477.71613,-89.08006,-219.10452,434.76205
8,0.058,-136.02551,-207.36,572.43671,-152.70619,-245.30394,477.76514,-89.07743,-219.33615,434.58109
9,0.067,-136.17615,-207.50214,572.21539,-152.58702,-245.48558,477.71613,-89.08006,-219.10452,434.76205
10,0.075,-136.17615,-207.50214,572.21539,-153.17953,-245.38945,478.07806,-89.07743,-219.33615,434.58109
11,0.083,-136.17615,-207.50214,572.21539,-152.91328,-245.1548,477.97021,-89.08006,-219.10452,434.76205
12,0.092,-136.17615,-207.50214,572.21539,-153.10265,-244.96765,477.94977,-89.08006,-219.10452,434.76205
13,0.1,-136.22478,-207.29112,572.33746,-154.0701,-245.07164,477.86472,-89.1823,-219.437,435.10803
14,0.108,-136.52998,-207.48566,572.27429,-154.25943,-244.88441,477.84421,-89.26839,-219.23637,434.32587
15,0.117,-136.63812,-207.58034,572.67316,-154.25943,-244.88441,477.84421,-89.1823,-219.437,435.10803
16,0.125,-136.76695,-207.05305,572.96234,-153.71046,-245.34476,478.19901,-89.1823,-219.437,435.10803
17,0.133,-136.63812,-207.58034,572.67316,-154.25943,-244.88441,477.84421,-89.1823,-219.437,435.10803
18,0.142,-136.76695,-207.05305,572.96234,-154.2597,-244.40678,477.96613,-89.46858,-220.05818,435.42676
19,0.15,-136.76695,-207.05305,572.96234,-154.39534,-244.69711,478.29236,-89.46858,-220.05818,435.42676
20,0.158,-136.63321,-206.80147,573.23541,-154.71292,-244.65619,478.457,-89.57548,-219.683,435.43991
21,0.167,-136.63321,-206.80147,573.23541,-154.71292,-244.65619,478.457,-89.1823,-219.437,435.10803
22,0.175,-136.63321,-206.80147,573.23541,-154.98238,-243.97591,478.961,-89.46858,-220.05818,435.42676
23,0.183,-136.63321,-206.80147,573.23541,-154.98238,-243.97591,478.961,-89.83956,-220.25357,435.38602
24,0.192,-136.63321,-206.80147,573.23541,-154.19148,-244.90921,478.98907,-89.83956,-220.25357,435.38602
25,0.2,-136.53819,-206.76369,573.35577,-154.19148,-244.90921,478.98907,-89.46858,-220.05818,435.42676
26,0.208,-136.53819,-206.76369,573.35577,-154.98238,-243.97591,478.961,-89.57548,-219.683,435.43991
27,0.217,-136.53819,-206.76369,573.35577,-154.11295,-244.28032,479.09799,-89.29329,-218.93349,435.04877
28,0.225,-136.53819,-206.76369,573.35577,-154.11295,-244.28032,479.09799,-89.1823,-219.437,435.10803
29,0.233,-136.53819,-206.76369,573.35577,-153.81595,-244.91667,478.8269,-89.1823,-219.437,435.10803
30,0.242,-136.31781,-206.5206,573.47479,-153.57713,-244.06712,479.07437,-89.1823,-219.437,435.10803
31,0.25,-136.31781,-206.5206,573.47479,-153.57713,-244.06712,479.07437,-89.29329,-218.93349,435.04877
32,0.258,-136.31781,-206.5206,573.47479,-153.57713,-244.06712,479.07437,-89.29329,-218.93349,435.04877
33,0.267,-136.31781,-206.5206,573.47479,-153.42604,-243.84372,478.81363,-89.30768,-218.66684,435.23529
34,0.275,-136.15329,-206.55037,573.27002,-153.42604,-243.84372,478.81363,-89.30768,-218.66684,435.23529
35,0.283,-135.95335,-206.66234,573.38458,-153.42604,-243.84372,478.81363,-89.30768,-218.66684,435.23529
36,0.292,-135.95335,-206.66234,573.38458,-153.23334,-244.00395,478.8161,-89.20307,-218.25856,434.83521
37,0.3,-135.1624,-207.26756,573.6203,-153.23334,-244.00395,478.8161,-89.08261,-218.87312,434.94315
38,0.308,-135.1624,-207.26756,573.6203,-153.05449,-244.09935,478.8685,-89.08261,-218.87312,434.94315
39,0.317,-135.1624,-207.26756,573.6203,-152.29866,-243.70268,478.66223,-89.08261,-218.87312,434.94315
40,0.325,-135.1624,-207.26756,573.6203,-151.87334,-243.062,478.86932,-89.08261,-218.87312,434.94315
41,0.333,-134.95222,-207.47113,573.67841,-151.87334,-243.062,478.86932,-89.20307,-218.25856,434.83521
42,0.342,-134.9043,-207.3326,573.82599,-151.87334,-243.062,478.86932,-89.20307,-218.25856,434.83521
43,0.35,-134.53426,-207.20653,573.7821,-150.91002,-242.34094,478.59738,-89.08261,-218.87312,434.94315
44,0.358,-134.53426,-207.20653,573.7821,-151.19252,-242.64171,478.77655,-89.08261,-218.87312,434.94315
45,0.367,-134.58218,-207.34508,573.63452,-150.91002,-242.34094,478.59738,-89.20307,-218.25856,434.83521
46,0.375,-134.53426,-207.20653,573.7821,-150.84023,-242.28915,478.70117,-88.52258,-218.53824,435.55939
47,0.383,-134.53426,-207.20653,573.7821,-150.84023,-242.28915,478.70117,-88.52258,-218.53824,435.55939
48,0.392,-134.9043,-207.3326,573.82599,-150.84023,-242.28915,478.70117,-88.52258,-218.53824,435.55939
49,0.4,-134.53426,-207.20653,573.7821,-150.62741,-242.23413,478.94107,-88.39691,-219.08765,435.6131
50,0.408,-134.53426,-207.20653,573.7821,-150.84023,-242.28915,478.70117,-88.52258,-218.53824,435.55939
51,0.417,-134.80804,-206.10376,574.11591,-150.33528,-242.60431,478.97571,-88.52258,-218.53824,435.55939
52,0.425,-134.80804,-206.10376,574.11591,-150.12233,-242.54926,479.21564,-88.11667,-219.10365,436.03412
53,0.433,-134.86806,-205.85103,574.3717,-149.97926,-242.40475,479.35754,-88.2508,-218.57364,436.013
54,0.442,-134.86806,-205.85103,574.3717,-150.12233,-242.54926,479.21564,-88.2508,-218.57364,436.013
55,0.45,-134.86806,-205.85103,574.3717,-150.33528,-242.60431,478.97571,-88.2508,-218.57364,436.013
56,0.458,-134.86806,-205.85103,574.3717,-150.12233,-242.54926,479.21564,-88.2508,-218.57364,436.013
57,0.467,-134.86806,-205.85103,574.3717,-149.97926,-242.40475,479.35754,-88.11667,-219.10365,436.03412
58,0.475,-134.86806,-205.85103,574.3717,-150.12233,-242.54926,479.21564,-88.11667,-219.10365,436.03412
59,0.483,-134.86806,-205.85103,574.3717,-150.40486,-242.84995,479.39471,-88.11667,-219.10365,436.03412
60,0.492,-134.86806,-205.85103,574.3717,-150.40486,-242.84995,479.39471,-87.88019,-218.78281,436.6882
61,0.5,-134.86806,-205.85103,574.3717,-150.26183,-242.70544,479.53662,-87.53262,-219.42671,436.71161
62,0.508,-134.86806,-205.85103,574.3717,-149.9894,-243.46814,479.70374,-87.53262,-219.42671,436.71161
63,0.517,-134.86806,-205.85103,574.3717,-150.12233,-242.54926,479.21564,-87.53262,-219.42671,436.71161
64,0.525,-134.86806,-205.85103,574.3717,-149.98982,-242.69466,479.1846,-87.53262,-219.42671,436.71161
65,0.533,-134.86806,-205.85103,574.3717,-150.26183,-242.70544,479.53662,-87.53262,-219.42671,436.71161
66,0.542,-134.86806,-205.85103,574.3717,-149.44394,-244.21974,479.51877,-87.53262,-219.42671,436.71161
67,0.55,-134.86806,-205.85103,574.3717,-149.71744,-243.45732,479.35172,-87.53262,-219.42671,436.71161
68,0.558,-134.86806,-205.85103,574.3717,-149.57439,-243.31277,479.49362,-87.53262,-219.42671,436.71161
69,0.567,-134.86806,-205.85103,574.3717,-149.57439,-243.31277,479.49362,-87.53262,-219.42671,436.71161
70,0.575,-134.86806,-205.85103,574.3717,-149.30089,-244.07515,479.66068,-87.53262,-219.42671,436.71161
71,0.583,-134.97105,-206.08379,574.28979,-149.87688,-243.03766,478.90225,-87.22582,-219.41899,437.2926
72,0.592,-134.86806,-205.85103,574.3717,-149.57439,-243.31277,479.49362,-87.53262,-219.42671,436.71161
73,0.6,-134.97105,-206.08379,574.28979,-149.30089,-244.07515,479.66068,-87.22582,-219.41899,437.2926
74,0.608,-134.97105,-206.08379,574.28979,-149.84677,-242.55016,479.32651,-87.22582,-219.41899,437.2926
75,0.617,-134.97105,-206.08379,574.28979,-149.93039,-243.51241,479.11179,-87.22582,-219.41899,437.2926
76,0.625,-134.97105,-206.08379,574.28979,-149.84677,-242.55016,479.32651,-86.24599,-220.07942,438.00284
77,0.633,-134.97105,-206.08379,574.28979,-149.84677,-242.55016,479.32651,-87.22582,-219.41899,437.2926
78,0.642,-134.97105,-206.08379,574.28979,-149.59384,-243.06842,479.0386,-87.22582,-219.41899,437.2926
79,0.65,-134.97105,-206.08379,574.28979,-149.72577,-243.23192,478.87521,-87.22582,-219.41899,437.2926
80,0.658,-134.97105,-206.08379,574.28979,-149.59384,-243.06842,479.0386,-87.22582,-219.41899,437.2926
81,0.667,-134.97105,-206.08379,574.28979,-149.97926,-242.40475,479.35754,-86.24599,-220.07942,438.00284
82,0.675,-135.34293,-206.20421,574.32483,-149.72577,-243.23192,478.87521,-86.24599,-220.07942,438.00284
83,0.683,-135.34293,-206.20421,574.32483,-149.72577,-243.23192,478.87521,-87.22582,-219.41899,437.2926
84,0.692,-135.34293,-206.20421,574.32483,-149.84677,-242.55016,479.32651,-87.22582,-219.41899,437.2926
85,0.7,-135.34293,-206.20421,574.32483,-149.59384,-243.06842,479.0386,-87.22582,-219.41899,437.2926
86,0.708,-135.34293,-206.20421,574.32483,-149.59384,-243.06842,479.0386,-87.22582,-219.41899,437.2926
87,0.717,-135.34293,-206.20421,574.32483,-149.93773,-243.26901,478.58755,-87.22582,-219.41899,437.2926
88,0.725,-135.34293,-206.20421,574.32483,-149.59384,-243.06842,479.0386,-87.22582,-219.41899,437.2926
89,0.733,-135.34293,-206.20421,574.32483,-149.59384,-243.06842,479.0386,-87.22582,-219.41899,437.2926
90,0.742,-135.34293,-206.20421,574.32483,-149.72577,-243.23192,478.87521,-86.24599,-220.07942,438.00284
91,0.75,-135.34293,-206.20421,574.32483,-149.93773,-243.26901,478.58755,-86.24599,-220.07942,438.00284
92,0.758,-135.34293,-206.20421,574.32483,-149.98982,-242.69466,479.1846,-86.24599,-220.07942,438.00284
93,0.767,-135.34293,-206.20421,574.32483,-149.59384,-243.06842,479.0386,-86.24599,-220.07942,438.00284
94,0.775,-135.06883,-207.30284,574.03076,-149.72577,-243.23192,478.87521,-86.24599,-220.07942,438.00284
95,0.783,-135.06883,-207.30284,574.03076,-149.93773,-243.26901,478.58755,-86.24599,-220.07942,438.00284
96,0.792,-135.06883,-207.30284,574.03076,-149.72577,-243.23192,478.87521,-85.28084,-220.45529,438.22821
97,0.8,-135.06883,-207.30284,574.03076,-149.59384,-243.06842,479.0386,-85.28084,-220.45529,438.22821
98,0.808,-135.06883,-207.30284,574.03076,-149.65182,-243.42375,478.41394,-85.92097,-220.28699,437.4588
99,0.817,-135.06883,-207.30284,574.03076,-149.65182,-243.42375,478.41394,-85.28084,-220.45529,438.22821
100,0.825,-135.11676,-207.44136,573.88318,-149.43983,-243.38667,478.70163,-85.28084,-220.45529,438.22821
101,0.833,-134.95222,-207.47113,573.67841,-149.30376,-243.09682,478.37573,-85.28084,-220.45529,438.22821
102,0.842,-134.95222,-207.47113,573.67841,-149.48828,-243.34114,477.91055,-85.92097,-220.28699,437.4588
103,0.85,-134.95222,-207.47113,573.67841,-149.48828,-243.34114,477.91055,-84.82588,-221.16183,437.56049
104,0.858,-134.95222,-207.47113,573.67841,-149.27631,-243.30411,478.1983,-85.29092,-220.81741,436.75702
105,0.867,-134.95222,-207.47113,573.67841,-149.27631,-243.30411,478.1983,-86.3004,-219.97116,436.35623
106,0.875,-134.95222,-207.47113,573.67841,-149.4604,-243.47307,477.81238,-85.62238,-220.46805,436.42325
107,0.883,-134.95222,-207.47113,573.67841,-149.4604,-243.47307,477.81238,-86.3004,-219.97116,436.35623
108,0.892,-134.95222,-207.47113,573.67841,-149.4604,-243.47307,477.81238,-86.3004,-219.97116,436.35623
109,0.9,-134.95222,-207.47113,573.67841,-149.24844,-243.43605,478.10013,-85.10256,-220.98906,436.56607
110,0.908,-134.51718,-207.64253,573.20703,-149.48828,-243.34114,477.91055,-85.26228,-220.60045,436.40054
111,0.917,-134.51718,-207.64253,573.20703,-149.4604,-243.47307,477.81238,-85.07393,-220.77208,436.20959
112,0.925,-134.58218,-207.34508,573.63452,-149.4604,-243.47307,477.81238,-86.07015,-219.90289,435.61639
113,0.933,-134.58218,-207.34508,573.63452,-149.24844,-243.43605,478.10013,-85.07393,-220.77208,436.20959
114,0.942,-134.58218,-207.34508,573.63452,-149.4604,-243.47307,477.81238,-84.85699,-220.87099,436.37302
115,0.95,-134.51718,-207.64253,573.20703,-149.43282,-243.68051,477.63498,-85.07393,-220.77208,436.20959
116,0.958,-134.58218,-207.34508,573.63452,-149.43282,-243.68051,477.63498,-84.85699,-220.87099,436.37302
117,0.967,-134.51718,-207.64253,573.20703,-149.22087,-243.64351,477.92276,-85.07393,-220.77208,436.20959
118,0.975,-134.58218,-207.34508,573.63452,-149.22087,-243.64351,477.92276,-84.82654,-220.35234,435.97903
119,0.983,-134.58218,-207.34508,573.63452,-149.43282,-243.68051,477.63498,-84.85699,-220.87099,436.37302
120,0.992,-134.51718,-207.64253,573.20703,-149.43282,-243.68051,477.63498,-84.85699,-220.87099,436.37302
121,1,-134.51718,-207.64253,573.20703,-149.22087,-243.64351,477.92276,-84.85699,-220.87099,436.37302
122,1.008,-134.51718,-207.64253,573.20703,-149.22087,-243.64351,477.92276,-84.85699,-220.87099,436.37302
123,1.017,-134.51718,-207.64253,573.20703,-149.43282,-243.68051,477.63498,-84.85699,-220.87099,436.37302
124,1.025,-134.51718,-207.64253,573.20703,-149.43282,-243.68051,477.63498,-85.07393,-220.77208,436.20959
125,1.033,-134.51718,-207.64253,573.20703,-149.22087,-243.64351,477.92276,-84.85699,-220.87099,436.37302
126,1.042,-134.45129,-207.80241,573.13635,-149.22087,-243.64351,477.92276,-84.85699,-220.87099,436.37302
127,1.05,-134.45129,-207.80241,573.13635,-149.43282,-243.68051,477.63498,-84.85699,-220.87099,436.37302
128,1.058,-134.45129,-207.80241,573.13635,-149.43282,-243.68051,477.63498,-84.85699,-220.87099,436.37302
129,1.067,-134.51718,-207.64253,573.20703,-149.43282,-243.68051,477.63498,-84.85699,-220.87099,436.37302
130,1.075,-134.45129,-207.80241,573.13635,-149.43282,-243.68051,477.63498,-84.85699,-220.87099,436.37302
131,1.083,-134.45129,-207.80241,573.13635,-149.43282,-243.68051,477.63498,-84.85699,-220.87099,436.37302
132,1.092,-134.34767,-207.6073,572.81,-149.51375,-243.70695,477.52295,-85.03971,-221.23781,436.14133
133,1.1,-134.34767,-207.6073,572.81,-149.51375,-243.70695,477.52295,-85.03971,-221.23781,436.14133
134,1.108,-134.34767,-207.6073,572.81,-149.51375,-243.70695,477.52295,-85.03971,-221.23781,436.14133
135,1.117,-134.45129,-207.80241,573.13635,-149.51375,-243.70695,477.52295,-85.03971,-221.23781,436.14133
136,1.125,-134.71941,-207.72786,572.84497,-149.51375,-243.70695,477.52295,-85.03971,-221.23781,436.14133
137,1.133,-134.34767,-207.6073,572.81,-149.51375,-243.70695,477.52295,-85.03971,-221.23781,436.14133
138,1.142,-134.71941,-207.72786,572.84497,-149.51375,-243.70695,477.52295,-85.25665,-221.13889,435.97791
139,1.15,-134.94862,-207.93573,572.73785,-149.51375,-243.70695,477.52295,-85.25665,-221.13889,435.97791
140,1.158,-134.21072,-208.34845,572.9057,-149.78419,-243.45087,477.22827,-85.25665,-221.13889,435.97791
141,1.167,-134.94862,-207.93573,572.73785,-149.78419,-243.45087,477.22827,-85.25665,-221.13889,435.97791
142,1.175,-134.94862,-207.93573,572.73785,-149.9677,-243.70615,477.09695,-85.44933,-221.26755,435.58856
143,1.183,-134.38589,-208.36029,572.76385,-149.9677,-243.70615,477.09695,-85.25665,-221.13889,435.97791
144,1.192,-134.94862,-207.93573,572.73785,-149.9677,-243.70615,477.09695,-85.44933,-221.26755,435.58856
145,1.2,-135.20711,-208.0457,572.45886,-149.9677,-243.70615,477.09695,-86.57378,-220.24966,434.7034
146,1.208,-134.46935,-208.45848,572.62671,-149.9677,-243.70615,477.09695,-85.44933,-221.26755,435.58856
147,1.217,-135.20711,-208.0457,572.45886,-149.9677,-243.70615,477.09695,-86.57378,-220.24966,434.7034
148,1.225,-135.20711,-208.0457,572.45886,-150.00563,-244.34747,476.76974,-86.57378,-220.24966,434.7034
149,1.233,-135.16412,-208.02191,572.10413,-149.72012,-244.98534,476.58112,-86.57378,-220.24966,434.7034
150,1.242,-135.5354,-208.17744,572.00995,-150.00563,-244.34747,476.76974,-86.57378,-220.24966,434.7034
151,1.25,-135.5354,-208.17744,572.00995,-150.00563,-244.34747,476.76974,-86.57378,-220.24966,434.7034
152,1.258,-135.5354,-208.17744,572.00995,-150.00563,-244.34747,476.76974,-86.57378,-220.24966,434.7034
153,1.267,-135.87169,-207.98441,571.89276,-150.2117,-244.55862,476.68634,-86.56332,-220.40761,434.5361
154,1.275,-136.53491,-207.52127,571.01544,-149.93832,-245.16861,476.50418,-86.57378,-220.24966,434.7034
155,1.283,-136.53491,-207.52127,571.01544,-150.38881,-245.26529,476.40256,-87.15646,-220.23122,434.15991
156,1.292,-136.84781,-207.60081,570.40173,-150.59538,-245.60619,476.42978,-87.9043,-220.12364,434.21976
157,1.3,-136.84781,-207.60081,570.40173,-150.63181,-245.60324,476.14532,-88.11268,-220.33948,434.35724
158,1.308,-137.06494,-207.54701,570.27759,-150.8802,-245.03322,476.27423,-87.96359,-220.39021,434.02997
159,1.317,-136.99179,-207.31221,569.849,-151.96263,-244.66821,475.92633,-87.96359,-220.39021,434.02997
160,1.325,-136.99179,-207.31221,569.849,-151.99013,-244.37947,475.8356,-87.96359,-220.39021,434.02997
161,1.333,-137.06494,-207.54701,570.27759,-152.22945,-244.78894,475.98184,-87.96359,-220.39021,434.02997
162,1.342,-136.99179,-207.31221,569.849,-152.10982,-244.65445,475.4523,-87.96359,-220.39021,434.02997
163,1.35,-136.99179,-207.31221,569.849,-152.44057,-245.19202,475.53287,-87.96359,-220.39021,434.02997
164,1.358,-137.0209,-207.49361,569.68634,-152.44057,-245.19202,475.53287,-88.3783,-220.35741,434.0354
165,1.367,-137.0209,-207.49361,569.68634,-152.44057,-245.19202,475.53287,-88.19553,-220.35762,433.22296
166,1.375,-137.31496,-207.74979,569.35858,-152.89841,-244.7043,475.1235,-88.55344,-220.07957,433.0061
167,1.383,-137.31496,-207.74979,569.35858,-154.28706,-243.84891,474.76065,-88.55344,-220.07957,433.0061
168,1.392,-137.62038,-207.94449,569.29559,-154.28706,-243.84891,474.76065,-88.55344,-220.07957,433.0061
169,1.4,-137.84966,-208.15282,569.18872,-154.28706,-243.84891,474.76065,-88.76132,-220.01363,432.22141
170,1.408,-137.84966,-208.15282,569.18872,-154.32248,-243.95454,474.62064,-88.76132,-220.01363,432.22141
171,1.417,-137.84966,-208.15282,569.18872,-154.7112,-244.05016,474.70575,-88.99207,-220.2419,432.11313
172,1.425,-138.22157,-208.27377,569.22406,-154.86186,-243.60664,474.56223,-88.99207,-220.2419,432.11313
173,1.433,-138.4388,-208.21996,569.09985,-154.86186,-243.60664,474.56223,-89.28312,-220.00488,431.74387
174,1.442,-138.77245,-208.32108,568.94226,-155.29872,-243.6526,474.42792,-89.50206,-220.22136,431.98221
175,1.45,-138.77245,-208.32108,568.94226,-155.44208,-243.79675,474.28601,-89.54526,-219.76816,431.75375
176,1.458,-138.77245,-208.32108,568.94226,-155.64148,-244.01648,474.16714,-89.93578,-220.62086,431.88754
177,1.467,-138.77245,-208.32108,568.94226,-156.17659,-243.98354,473.70737,-90.16779,-221.07361,431.96719
178,1.475,-139.19498,-208.81732,568.85388,-156.17659,-243.98354,473.70737,-90.16531,-221.0488,431.98093
179,1.483,-139.32877,-208.52362,568.70819,-156.38998,-244.03818,473.46744,-90.10468,-220.62024,431.68115
180,1.492,-139.32877,-208.52362,568.70819,-156.38998,-244.03818,473.46744,-90.5699,-221.09738,431.42181
181,1.5,-139.70082,-208.64459,568.74353,-156.38998,-244.03818,473.46744,-90.5546,-219.47415,429.62506
182,1.508,-139.70082,-208.64459,568.74353,-156.38998,-244.03818,473.46744,-90.77056,-221.55777,431.92151
183,1.517,-139.70082,-208.64459,568.74353,-156.59785,-243.96562,473.37079,-90.57289,-221.06465,431.44824
184,1.525,-140.21878,-209.59547,568.86957,-156.59785,-243.96562,473.37079,-91.42181,-222.32495,432.06491
185,1.533,-140.40712,-209.59511,568.72723,-156.77852,-243.92056,473.2702,-91.48669,-222.0621,431.74097
186,1.542,-140.40712,-209.59511,568.72723,-156.77852,-243.92056,473.2702,-91.42181,-222.32495,432.06491
187,1.55,-140.63643,-209.80336,568.62036,-157.284,-243.6067,472.99533,-91.85728,-222.02486,431.63657
188,1.558,-140.70676,-209.91368,568.48395,-157.58701,-243.94701,473.17389,-91.85728,-222.02486,431.63657
189,1.567,-140.9455,-210.16469,568.34515,-157.27475,-243.77719,472.8392,-91.85728,-222.02486,431.63657
190,1.575,-141.25107,-210.35954,568.28235,-157.57776,-244.11746,473.01776,-92.11927,-221.77051,431.50177
191,1.583,-141.25107,-210.35954,568.28235,-157.66609,-244.16092,472.90756,-92.26286,-220.32201,429.20322
192,1.592,-141.18523,-210.5192,568.21185,-157.66609,-244.16092,472.90756,-92.18409,-220.2388,429.33618
193,1.6,-141.18523,-210.5192,568.21185,-157.64407,-244.25534,472.83704,-92.26286,-220.32201,429.20322
