Frame#,Time,R.Forearm.x,R.Forearm.y,R.Forearm.z,R.Ulna.x,R.Ulna.y,R.Ulna.z,R.Radius.x,R.Radius.y,R.Radius.z
1,0,126.32004,-172.36574,1114.90515,229.82404,-210.46689,1103.36255,289.06458,-120.67391,1105.55957
2,0.008,126.75771,-172.13437,1114.92749,230.15741,-210.65843,1103.06445,289.27164,-120.84755,1105.66907
3,0.017,127.0006,-172.02641,1115.0022,230.17371,-210.56465,1103.34875,289.22504,-120.20569,1105.55298
4,0.025,127.32838,-172.34862,1114.7583,230.65561,-210.50665,1103.19482,289.01804,-120.03216,1105.44348
5,0.033,127.38448,-172.38354,1114.61389,230.5116,-210.22723,1103.10876,289.22504,-120.20569,1105.55298
6,0.042,127.37981,-172.13574,1114.60632,230.65561,-210.50665,1103.19482,289.22504,-120.20569,1105.55298
7,0.05,127.42452,-172.0486,1114.45081,231.0249,-210.44565,1102.93982,289.22504,-120.20569,1105.55298
8,0.058,127.49072,-171.96268,1114.48364,230.69536,-210.22383,1102.84192,289.22504,-120.20569,1105.55298
9,0.067,127.42452,-172.0486,1114.45081,230.91096,-210.14656,1102.82397,289.22504,-120.20569,1105.55298
10,0.075,127.03451,-171.50841,1114.06104,231.05933,-210.24269,1102.95654,289.22504,-120.20569,1105.55298
11,0.083,126.90835,-171.28264,1114.21887,231.24612,-210.1913,1102.94165,289.22504,-120.20569,1105.55298
12,0.092,126.90835,-171.28264,1114.21887,231.24612,-210.1913,1102.94165,289.75394,-120.22042,1105.83728
13,0.1,127.2131,-172.08725,1114.15369,231.24612,-210.1913,1102.94165,289.75394,-120.22042,1105.83728
14,0.108,127.20173,-171.96521,1114.1427,231.24612,-210.1913,1102.94165,289.22504,-120.20569,1105.55298
15,0.117,127.20173,-171.96521,1114.1427,231.1188,-210.09894,1103.03479,289.22504,-120.20569,1105.55298
16,0.125,127.33195,-171.31203,1114.58459,231.04559,-209.72816,1102.95923,289.75394,-120.22042,1105.83728
17,0.133,127.01901,-171.29613,1114.81604,231.04559,-209.72816,1102.95923,289.68323,-119.87209,1106.42163
18,0.142,127.27586,-171.27707,1114.729,231.05908,-209.92331,1103.15198,289.68323,-119.87209,1106.42163
19,0.15,127.27586,-171.27707,1114.729,231.05908,-209.92331,1103.15198,289.68323,-119.87209,1106.42163
20,0.158,127.90211,-172.08032,1114.59216,231.1188,-210.09894,1103.03479,289.68323,-119.87209,1106.42163
21,0.167,127.58537,-171.66042,1114.53259,231.1864,-210.01567,1103.05896,289.68323,-119.87209,1106.42163
22,0.175,127.53604,-171.75046,1114.50269,231.1864,-210.01567,1103.05896,289.68323,-119.87209,1106.42163
23,0.183,127.68148,-172.0296,1114.36377,230.98199,-210.02629,1103.22461,289.68323,-119.87209,1106.42163
24,0.192,127.55148,-172.24541,1114.3468,230.83281,-209.735,1103.13354,289.98907,-120.67458,1106.6167
25,0.2,127.60381,-172.37788,1114.55713,230.64191,-209.7831,1103.15112,289.72995,-120.51398,1106.53796
26,0.208,127.60381,-172.37788,1114.55713,230.83281,-209.735,1103.13354,289.72995,-120.51398,1106.53796
27,0.217,127.61428,-172.52855,1114.46167,230.63393,-209.99498,1103.21252,289.98907,-120.67458,1106.6167
28,0.225,127.35464,-172.41206,1113.44434,230.44302,-210.04306,1103.2301,289.72995,-120.51398,1106.53796
29,0.233,126.77592,-172.58252,1113.42651,230.5116,-210.22723,1103.10876,289.98907,-120.67458,1106.6167
30,0.242,126.95245,-172.4178,1112.93164,230.5116,-210.22723,1103.10876,289.98907,-120.67458,1106.6167
31,0.25,127.08798,-172.82988,1113.18298,230.29984,-210.67838,1103.00903,289.72995,-120.51398,1106.53796
32,0.258,126.88643,-172.88356,1112.88281,230.29984,-210.67838,1103.00903,289.72995,-120.51398,1106.53796
33,0.267,127.23431,-172.97324,1112.46204,230.29984,-210.67838,1103.00903,289.72995,-120.51398,1106.53796
34,0.275,127.17719,-173.04022,1112.1947,230.31998,-210.92543,1102.78833,289.72995,-120.51398,1106.53796
35,0.283,127.17719,-173.04022,1112.1947,230.54671,-211.105,1102.58069,289.72995,-120.51398,1106.53796
36,0.292,127.17719,-173.04022,1112.1947,230.34697,-210.97008,1102.27295,289.72995,-120.51398,1106.53796
37,0.3,127.26809,-173.39801,1112.05701,230.52826,-211.26904,1101.92651,289.72995,-120.51398,1106.53796
38,0.308,127.32059,-173.54886,1111.94067,230.57106,-211.27219,1101.80627,289.80069,-120.86242,1105.95337
39,0.317,127.44058,-173.97401,1111.96973,230.87482,-211.26115,1101.38513,289.22894,-121.50577,1105.47742
40,0.325,127.32594,-174.08348,1111.46045,230.99416,-211.12376,1101.02625,289.22894,-121.50577,1105.47742
41,0.333,127.34481,-174.28613,1110.896,230.99565,-211.59143,1100.82996,289.16772,-121.98159,1105.23499
42,0.342,127.34481,-174.28613,1110.896,230.82971,-211.31451,1100.71082,289.16772,-121.98159,1105.23499
43,0.35,127.34481,-174.28613,1110.896,230.77193,-211.41383,1100.81165,288.77545,-122.26735,1105.31445
44,0.358,127.34481,-174.28613,1110.896,230.51428,-211.24344,1100.36499,288.77545,-122.26735,1105.31445
45,0.367,127.22471,-174.78766,1110.72217,229.9379,-211.70183,1100.62756,288.37466,-122.89781,1105.89893
46,0.375,125.88796,-175.82135,1111.1842,229.89938,-211.33208,1100.69678,288.37466,-122.89781,1105.89893
47,0.383,125.58998,-176.01816,1111.18823,229.9379,-211.70183,1100.62756,287.8287,-122.63702,1106.47058
48,0.392,125.58998,-176.01816,1111.18823,229.87479,-211.94238,1100.78076,287.34854,-122.92014,1106.26477
49,0.4,125.2709,-176.06679,1111.21106,229.87479,-211.94238,1100.78076,287.34854,-122.92014,1106.26477
50,0.408,125.58998,-176.01816,1111.18823,229.87479,-211.94238,1100.78076,287.34854,-122.92014,1106.26477
51,0.417,125.2709,-176.06679,1111.21106,229.73857,-212.10353,1100.71399,287.36337,-123.82803,1106.255
52,0.425,125.39236,-175.51068,1110.9762,229.71097,-212.12227,1100.90637,287.47122,-123.65648,1106.0426
53,0.433,125.39236,-175.51068,1110.9762,229.43143,-212.27869,1100.98169,287.27008,-123.96275,1105.37354
54,0.442,125.39236,-175.51068,1110.9762,229.05328,-212.1132,1101.19604,287.19601,-124.36675,1105.09241
55,0.45,125.15344,-175.65283,1110.88293,229.13434,-212.20494,1101.08008,286.99832,-124.94462,1105.27625
56,0.458,125.03918,-175.81177,1110.75024,229.05328,-212.1132,1101.19604,287.19601,-124.36675,1105.09241
57,0.467,125.03918,-175.81177,1110.75024,229.08463,-211.87701,1101.17932,287.19601,-124.36675,1105.09241
58,0.475,125.03918,-175.81177,1110.75024,229.05035,-211.73462,1101.11389,286.99832,-124.94462,1105.27625
59,0.483,125.23702,-175.83234,1110.63037,229.37578,-212.13211,1100.80029,286.99832,-124.94462,1105.27625
60,0.492,125.23702,-175.83234,1110.63037,229.09743,-212.60126,1100.60864,286.99832,-124.94462,1105.27625
61,0.5,125.18861,-175.9671,1110.48669,228.83864,-212.79686,1100.63196,286.99832,-124.94462,1105.27625
62,0.508,125.18861,-175.9671,1110.48669,228.40211,-213.51891,1100.58521,286.99832,-124.94462,1105.27625
63,0.517,125.18861,-175.9671,1110.48669,228.55927,-213.74002,1100.28345,286.99832,-124.94462,1105.27625
64,0.525,125.51987,-176.34625,1110.4115,228.57899,-213.88568,1100.24561,286.99832,-124.94462,1105.27625
65,0.533,125.28529,-176.59637,1110.4696,228.60999,-214.06157,1100.11414,287.26117,-125.71525,1105.07361
66,0.542,125.10023,-176.97295,1110.87305,228.73152,-214.51945,1100.04004,287.26117,-125.71525,1105.07361
67,0.55,125.05827,-177.05183,1111.2981,228.69418,-213.99608,1100.09521,287.26117,-125.71525,1105.07361
68,0.558,125.10023,-176.97295,1110.87305,228.94049,-214.04333,1099.96216,287.26117,-125.71525,1105.07361
69,0.567,125.10023,-176.97295,1110.87305,229.28462,-214.19012,1099.96277,287.26117,-125.71525,1105.07361
70,0.575,125.32593,-177.06834,1110.97961,229.28462,-214.19012,1099.96277,287.26117,-125.71525,1105.07361
71,0.583,125.32593,-177.06834,1110.97961,229.39073,-214.91437,1099.7865,287.26117,-125.71525,1105.07361
72,0.592,125.3875,-177.27202,1111.07312,229.38086,-215.14578,1099.78223,287.26117,-125.71525,1105.07361
73,0.6,125.62829,-177.24898,1110.98291,229.38086,-215.14578,1099.78223,288.14807,-126.19222,1104.73938
74,0.608,125.60163,-177.37119,1110.83179,229.27815,-215.34166,1099.62378,288.14807,-126.19222,1104.73938
75,0.617,125.60163,-177.37119,1110.83179,229.71428,-215.53455,1099.7439,288.14807,-126.19222,1104.73938
76,0.625,125.68704,-177.38155,1110.67078,229.56947,-215.75203,1099.61169,288.14807,-126.19222,1104.73938
77,0.633,125.68704,-177.38155,1110.67078,229.56947,-215.75203,1099.61169,288.40765,-126.35301,1104.81824
78,0.642,125.68704,-177.38155,1110.67078,229.59489,-215.79689,1099.44019,288.69214,-126.27694,1104.9071
79,0.65,125.68704,-177.38155,1110.67078,229.60745,-215.64989,1099.39941,288.14807,-126.19222,1104.73938
80,0.658,126.05946,-177.39346,1110.55518,229.29254,-216.3653,1099.16541,288.40765,-126.35301,1104.81824
81,0.667,125.8146,-177.45662,1110.53931,229.44708,-216.34833,1099.12817,289.61679,-127.25572,1104.87341
82,0.675,126.02306,-177.47218,1110.42224,229.44708,-216.34833,1099.12817,289.58755,-127.54386,1104.33765
83,0.683,126.31512,-178.26825,1110.7074,229.40611,-216.34024,1098.96265,289.4624,-127.56703,1103.90674
84,0.692,126.31512,-178.26825,1110.7074,229.44501,-216.40791,1098.74243,289.52713,-128.20679,1104.08398
85,0.7,126.54064,-178.86586,1110.56177,229.52176,-216.29333,1098.53455,289.52713,-128.20679,1104.08398
86,0.708,126.76451,-179.13316,1110.60913,229.65501,-216.35257,1098.60059,289.52713,-128.20679,1104.08398
87,0.717,126.99966,-179.21564,1110.69678,229.63052,-216.42545,1098.50732,289.8743,-128.27092,1104.03406
88,0.725,126.4121,-179.27272,1110.52307,229.51537,-216.38829,1098.43677,289.8743,-128.27092,1104.03406
89,0.733,127.20312,-179.3504,1110.61365,229.78293,-216.43629,1098.2085,289.8743,-128.27092,1104.03406
90,0.742,127.26735,-179.50032,1110.50476,230.37903,-216.2265,1097.7749,290.47284,-129.14966,1103.78076
91,0.75,127.3983,-179.66391,1110.41638,230.60339,-216.3172,1097.51367,290.47284,-129.14966,1103.78076
92,0.758,127.62823,-179.86156,1110.1698,230.67072,-216.53772,1097.64746,290.47284,-129.14966,1103.78076
93,0.767,127.83521,-179.8911,1110.07629,230.61823,-216.44682,1097.46045,290.47284,-129.14966,1103.78076
94,0.775,128.32722,-179.79892,1109.96326,230.51166,-216.61504,1097.4259,290.47284,-129.14966,1103.78076
95,0.783,128.79704,-180.22742,1109.7146,230.61708,-216.57315,1097.2738,290.47284,-129.14966,1103.78076
96,0.792,128.65268,-180.31439,1109.49731,230.69611,-216.71065,1097.21997,290.47284,-129.14966,1103.78076
97,0.8,129.05869,-180.49933,1109.44043,230.69611,-216.71065,1097.21997,290.8165,-129.54128,1103.2782
98,0.808,129.05869,-180.49933,1109.44043,230.68123,-217.02193,1097.00391,290.8165,-129.54128,1103.2782
99,0.817,129.05869,-180.49933,1109.44043,230.66347,-217.12607,1096.89734,290.8165,-129.54128,1103.2782
100,0.825,129.09596,-180.56516,1109.28711,231.29761,-217.05649,1096.64233,290.8165,-129.54128,1103.2782
101,0.833,129.08554,-180.84489,1109.39368,231.48892,-217.5331,1096.49194,290.8165,-129.54128,1103.2782
102,0.842,128.94714,-180.85236,1109.24731,231.73267,-217.69667,1096.17749,290.8165,-129.54128,1103.2782
103,0.85,128.94714,-180.85236,1109.24731,231.91353,-217.86128,1095.97754,290.8165,-129.54128,1103.2782
104,0.858,128.94714,-180.85236,1109.24731,231.95694,-217.85095,1095.88171,291.36081,-129.02693,1103.04431
105,0.867,128.94714,-180.85236,1109.24731,232.19785,-217.89078,1095.67651,291.36081,-129.02693,1103.04431
106,0.875,129.01163,-181.22748,1109.07471,232.33929,-217.87283,1095.6394,290.86307,-129.2975,1102.15552
107,0.883,129.14163,-181.15608,1108.94934,232.32056,-217.47713,1095.07593,291.23544,-129.82784,1101.41821
108,0.892,129.19487,-181.33269,1108.78564,232.3109,-217.72272,1095.08105,291.23544,-129.82784,1101.41821
109,0.9,129.18921,-181.44698,1108.6394,232.3109,-217.72272,1095.08105,291.54385,-129.77184,1101.2572
110,0.908,129.18921,-181.44698,1108.6394,232.3109,-217.72272,1095.08105,291.53348,-129.57214,1101.05481
111,0.917,129.19502,-181.64056,1108.26086,232.23518,-217.91029,1094.51746,291.50558,-129.57863,1100.42175
112,0.925,129.19502,-181.64056,1108.26086,232.23518,-217.91029,1094.51746,291.41849,-129.72609,1100.11206
113,0.933,129.19502,-181.64056,1108.26086,232.03989,-217.61319,1094.33801,291.61523,-129.14687,1099.92883
114,0.942,129.02513,-181.76089,1108.15088,232.017,-217.97578,1094.18665,291.73041,-128.99841,1099.73755
115,0.95,129.37959,-181.89926,1107.75452,232.33492,-217.71454,1093.49365,291.69705,-130.1795,1099.53833
116,0.958,129.2616,-181.96616,1107.05933,232.84885,-217.6972,1093.08521,291.69705,-130.1795,1099.53833
117,0.967,129.42711,-181.86676,1106.2876,233.01654,-218.06926,1092.91565,291.69705,-130.1795,1099.53833
118,0.975,129.48233,-181.78757,1105.78088,233.07922,-218.31992,1092.77039,292.06982,-130.71085,1098.80017
119,0.983,129.48233,-181.78757,1105.78088,233.25249,-218.70605,1092.78076,292.06982,-130.71085,1098.80017
120,0.992,129.49715,-181.90363,1105.62732,233.34613,-218.49347,1092.37231,291.84662,-130.35826,1098.51208
121,1,129.49715,-181.90363,1105.62732,233.40427,-218.3632,1092.21619,292.33389,-130.80556,1097.99194
122,1.008,129.49715,-181.90363,1105.62732,233.98802,-218.55128,1092.06787,292.21936,-130.43637,1097.62708
123,1.017,129.76793,-181.81734,1105.26501,233.73952,-218.36224,1091.5144,292.57526,-130.19072,1097.25574
124,1.025,130.97168,-181.78784,1104.77295,233.54005,-218.99118,1091.23096,292.57526,-130.19072,1097.25574
125,1.033,130.96223,-181.59695,1104.50574,233.79889,-219.01273,1091.10193,293.55084,-131.16176,1096.14783
126,1.042,130.83821,-181.46054,1104.09656,234.22281,-218.8942,1090.84851,293.41476,-131.3347,1095.45068
127,1.05,130.95306,-181.40544,1103.9801,234.20859,-219.3376,1090.4939,293.41476,-131.3347,1095.45068
128,1.058,131.19785,-181.43163,1103.88135,234.31374,-219.28181,1090.2926,293.41476,-131.3347,1095.45068
129,1.067,131.55992,-181.30861,1103.69751,234.25139,-218.95374,1089.70813,293.68338,-131.10226,1094.68042
130,1.075,131.80089,-181.28497,1103.6073,234.17059,-218.42516,1089.11438,293.68338,-131.10226,1094.68042
131,1.083,131.8157,-181.40123,1103.45361,234.27574,-218.36949,1088.91309,293.68338,-131.10226,1094.68042
132,1.092,131.8157,-181.40123,1103.45361,234.15843,-218.51851,1088.67517,293.68338,-131.10226,1094.68042
133,1.1,131.8157,-181.40123,1103.45361,233.90677,-218.01361,1088.47498,294.21338,-131.11865,1094.96545
134,1.108,131.8157,-181.40123,1103.45361,234.15843,-218.51851,1088.67517,294.21338,-131.11865,1094.96545
135,1.117,131.8157,-181.40123,1103.45361,234.15843,-218.51851,1088.67517,294.21338,-131.11865,1094.96545
136,1.125,131.8157,-181.40123,1103.45361,234.03455,-218.37315,1088.52893,294.21338,-131.11865,1094.96545
137,1.133,131.8157,-181.40123,1103.45361,234.35443,-218.43175,1088.42151,295.1665,-131.13417,1094.87256
138,1.142,132.05099,-181.48369,1103.5415,234.15843,-218.51851,1088.67517,295.04431,-131.31549,1095.09949
139,1.15,132.05099,-181.48369,1103.5415,234.29634,-218.14351,1088.72571,295.04431,-131.31549,1095.09949
140,1.158,132.05099,-181.48369,1103.5415,234.43159,-218.97743,1088.79285,295.1665,-131.13417,1094.87256
141,1.167,132.05099,-181.48369,1103.5415,234.60843,-218.85587,1089.23401,295.1665,-131.13417,1094.87256
142,1.175,132.05099,-181.48369,1103.5415,234.4895,-219.1328,1089.54333,295.67645,-131.52782,1095.10425
143,1.183,132.22002,-181.38242,1103.6272,234.20859,-218.55089,1089.50244,295.3399,-131.34344,1095.02844
144,1.192,132.22002,-181.38242,1103.6272,234.82031,-218.90596,1090.39185,295.75552,-131.28258,1094.82642
145,1.2,132.22002,-181.38242,1103.6272,235.42984,-218.90536,1090.58154,295.44479,-131.14114,1094.78601
146,1.208,132.22002,-181.38242,1103.6272,235.38335,-219.32587,1090.47803,295.44479,-131.14114,1094.78601
147,1.217,132.22002,-181.38242,1103.6272,235.50156,-218.99911,1090.62219,295.67645,-131.52782,1095.10425
148,1.225,132.22002,-181.38242,1103.6272,235.61392,-219.11703,1090.54749,295.67645,-131.52782,1095.10425
149,1.233,132.22002,-181.38242,1103.6272,235.67538,-218.96782,1090.59668,295.75552,-131.28258,1094.82642
150,1.242,132.52292,-181.31111,1103.78308,235.67538,-218.96782,1090.59668,295.75552,-131.28258,1094.82642
151,1.25,132.51732,-181.42564,1103.63696,235.60495,-218.87216,1090.55286,295.67645,-131.52782,1095.10425
152,1.258,132.51732,-181.42564,1103.63696,235.95126,-219.44017,1091.00757,295.75552,-131.28258,1094.82642
153,1.267,132.52292,-181.31111,1103.78308,235.94113,-218.80034,1090.67432,295.75552,-131.28258,1094.82642
154,1.275,132.52292,-181.31111,1103.78308,236.06952,-219.45081,1090.95679,295.91351,-131.47849,1094.97424
155,1.283,133.35292,-181.19724,1103.51685,236.46942,-219.52928,1090.29871,295.91351,-131.47849,1094.97424
156,1.292,133.35852,-181.08266,1103.66296,236.61124,-219.75038,1090.41724,295.91351,-131.47849,1094.97424
157,1.3,133.35852,-181.08266,1103.66296,236.77901,-219.23445,1090.10864,295.91351,-131.47849,1094.97424
158,1.308,133.54091,-181.12625,1103.55847,236.93701,-219.23894,1090.04541,295.91351,-131.47849,1094.97424
159,1.317,133.54091,-181.12625,1103.55847,236.97069,-219.93001,1090.3606,296.48761,-131.3354,1094.63599
160,1.325,134.1322,-181.11514,1103.53198,237.32367,-219.4939,1089.78662,296.48761,-131.3354,1094.63599
161,1.333,134.1322,-181.11514,1103.53198,237.49989,-219.61958,1089.57617,296.63651,-131.18118,1094.42883
162,1.342,134.52815,-181.07123,1103.35974,237.54739,-219.25203,1089.48059,297.23532,-131.80943,1093.7157
163,1.35,134.52815,-181.07123,1103.35974,237.61279,-219.70467,1089.50024,297.23532,-131.80943,1093.7157
164,1.358,134.96074,-180.93256,1103.32239,238.00255,-219.52002,1089.10718,297.66354,-130.88756,1093.66858
165,1.367,134.96074,-180.93256,1103.32239,238.14987,-219.07188,1088.69836,297.66354,-130.88756,1093.66858
166,1.375,135.20541,-180.95897,1103.22363,238.09032,-219.23749,1088.61047,298.11517,-131.09607,1092.82959
167,1.383,135.51479,-180.92047,1103.19165,238.32309,-219.98131,1088.68018,298.07861,-130.85791,1092.51147
168,1.392,135.69006,-181.00212,1103.29102,238.5721,-220.1171,1088.50452,298.42871,-129.55807,1092.22961
169,1.4,136.0191,-180.38789,1103.13379,238.65764,-219.83029,1088.37366,299.10181,-129.6604,1091.97681
170,1.408,136.31934,-180.53934,1102.97876,238.99132,-219.7803,1088.20923,299.10181,-129.6604,1091.97681
171,1.417,136.82634,-180.89865,1103.03796,239.13643,-219.39397,1087.68359,299.24423,-129.98192,1091.38184
172,1.425,136.99522,-180.79744,1103.12378,239.16655,-218.37935,1087.26477,300.37616,-130.5316,1089.99097
173,1.433,137.16231,-180.74289,1102.83667,239.37181,-219.30908,1087.47571,300.37616,-130.5316,1089.99097
174,1.442,137.32684,-180.63231,1102.70593,239.31578,-219.43283,1087.37012,300.37616,-130.5316,1089.99097
175,1.45,137.45198,-180.8584,1102.54736,239.81929,-219.13354,1086.99377,301.26511,-131.00604,1089.65417
176,1.458,137.85159,-180.83023,1102.50476,239.73175,-218.60054,1086.41772,301.26511,-131.00604,1089.65417
177,1.467,137.85159,-180.83023,1102.50476,239.78056,-218.43146,1086.30713,301.26511,-131.00604,1089.65417
178,1.475,137.85159,-180.83023,1102.50476,240.18317,-218.56328,1086.01672,301.46024,-130.42519,1089.47217
179,1.483,138.21965,-180.88193,1102.28369,240.23238,-218.2515,1085.91699,301.46024,-130.42519,1089.47217
180,1.492,138.60756,-180.98497,1101.93787,240.38278,-218.1714,1085.93225,301.46024,-130.42519,1089.47217
181,1.5,138.76726,-181.36415,1101.95398,240.64359,-217.78183,1086.00122,301.46024,-130.42519,1089.47217
182,1.508,138.60756,-180.98497,1101.93787,241.10132,-217.47942,1085.95532,301.46024,-130.42519,1089.47217
183,1.517,138.71211,-180.95911,1101.73914,241.23175,-217.36041,1086.02563,301.4902,-129.2382,1089.67505
184,1.525,138.9566,-180.89661,1101.75513,241.23924,-217.12155,1086.02649,301.83783,-129.30313,1089.62524
185,1.533,138.95229,-180.64847,1101.74731,241.77208,-217.18661,1085.80273,301.83783,-129.30313,1089.62524
186,1.542,139.65797,-180.11261,1101.64172,241.6855,-217.26167,1086.03699,301.83783,-129.30313,1089.62524
187,1.55,139.65797,-180.11261,1101.64172,241.70181,-217.21924,1085.98657,301.92508,-129.15353,1089.93652
188,1.558,139.65797,-180.11261,1101.64172,241.80443,-217.10973,1085.72021,301.92508,-129.15353,1089.93652
189,1.567,139.56767,-180.03909,1101.97522,241.8607,-216.99846,1085.84534,301.92508,-129.15353,1089.93652
190,1.575,139.57843,-179.7596,1101.86877,241.90207,-216.7868,1086.35876,301.92508,-129.15353,1089.93652
