Frame#,Time,L.Forearm.x,L.Forearm.y,L.Forearm.z,L.Ulna.x,L.Ulna.y,L.Ulna.z,L.Radius.x,L.Radius.y,L.Radius.z
1,0,351.88657,229.67851,1033.44897,380.70764,259.45273,947.31659,403.39716,184.45728,906.45483
2,0.008,351.88657,229.67851,1033.44897,380.70764,259.45273,947.31659,403.39716,184.45728,906.45483
3,0.017,351.88657,229.67851,1033.44897,380.63358,259.23047,947.17316,403.39716,184.45728,906.45483
4,0.025,351.77798,229.89241,1033.01245,380.63358,259.23047,947.17316,401.82397,185.43515,905.64142
5,0.033,351.88657,229.67851,1033.44897,380.81287,259.13901,947.08838,401.82397,185.43515,905.64142
6,0.042,351.64969,229.37524,1033.27002,380.63358,259.23047,947.17316,401.32431,185.03096,905.58759
7,0.05,351.85452,229.76067,1032.95422,380.81287,259.13901,947.08838,401.32431,185.03096,905.58759
8,0.058,351.93213,229.34908,1033.09631,380.78943,258.96255,947.0144,401.32431,185.03096,905.58759
9,0.067,351.64969,229.37524,1033.27002,380.78943,258.96255,947.0144,401.32431,185.03096,905.58759
10,0.075,351.85452,229.76067,1032.95422,380.8887,258.74701,947.08008,401.32431,185.03096,905.58759
11,0.083,351.828,229.3045,1033.15552,380.78943,258.96255,947.0144,401.32431,185.03096,905.58759
12,0.092,351.828,229.3045,1033.15552,380.78943,258.96255,947.0144,403.02136,184.04689,906.3866
13,0.1,351.828,229.3045,1033.15552,380.78943,258.96255,947.0144,403.02136,184.04689,906.3866
14,0.108,351.828,229.3045,1033.15552,380.8887,258.74701,947.08008,403.02136,184.04689,906.3866
15,0.117,351.96072,229.5632,1033.3938,380.91211,258.92346,947.15405,403.02136,184.04689,906.3866
16,0.125,351.828,229.3045,1033.15552,381.00845,258.69067,947.27197,403.39716,184.45728,906.45483
17,0.133,351.828,229.3045,1033.15552,380.91211,258.92346,947.15405,403.39716,184.45728,906.45483
18,0.142,351.96072,229.5632,1033.3938,381.00845,258.69067,947.27197,403.39716,184.45728,906.45483
19,0.15,351.96072,229.5632,1033.3938,381.00845,258.69067,947.27197,403.39716,184.45728,906.45483
20,0.158,351.96072,229.5632,1033.3938,381.00845,258.69067,947.27197,403.39716,184.45728,906.45483
21,0.167,351.96072,229.5632,1033.3938,381.27493,258.58374,947.28436,403.39716,184.45728,906.45483
22,0.175,351.96072,229.5632,1033.3938,381.27493,258.58374,947.28436,403.39716,184.45728,906.45483
23,0.183,351.96072,229.5632,1033.3938,381.27493,258.58374,947.28436,403.39716,184.45728,906.45483
24,0.192,352.09888,229.3235,1033.36902,381.34894,258.80612,947.42786,403.39716,184.45728,906.45483
25,0.2,352.38748,229.38028,1033.3894,381.55109,258.54037,947.27545,403.39716,184.45728,906.45483
26,0.208,352.38748,229.38028,1033.3894,381.55109,258.54037,947.27545,403.39716,184.45728,906.45483
27,0.217,352.38748,229.38028,1033.3894,381.55109,258.54037,947.27545,403.39716,184.45728,906.45483
28,0.225,352.38748,229.38028,1033.3894,381.76132,258.68674,947.44086,403.39716,184.45728,906.45483
29,0.233,352.38748,229.38028,1033.3894,381.76132,258.68674,947.44086,403.7045,184.32745,906.32446
30,0.242,352.38748,229.38028,1033.3894,381.76132,258.68674,947.44086,403.99448,184.59982,906.47498
31,0.25,352.49161,229.42484,1033.33008,381.76132,258.68674,947.44086,403.99448,184.59982,906.47498
32,0.258,352.49161,229.42484,1033.33008,381.76132,258.68674,947.44086,403.99448,184.59982,906.47498
33,0.267,352.38748,229.38028,1033.3894,381.76132,258.68674,947.44086,403.99448,184.59982,906.47498
34,0.275,352.49161,229.42484,1033.33008,381.76132,258.68674,947.44086,403.99448,184.59982,906.47498
35,0.283,352.49161,229.42484,1033.33008,381.76132,258.68674,947.44086,404.21246,184.42001,906.28937
36,0.292,352.49161,229.42484,1033.33008,381.76132,258.68674,947.44086,403.99448,184.59982,906.47498
37,0.3,352.62976,229.1853,1033.3053,381.76132,258.68674,947.44086,403.99448,184.59982,906.47498
38,0.308,352.82025,229.1398,1033.31738,381.76132,258.68674,947.44086,404.2356,184.25925,906.4635
39,0.317,352.81436,228.81392,1033.53259,381.76132,258.68674,947.44086,404.45352,184.07945,906.27789
40,0.325,352.90488,228.86183,1033.47241,381.76132,258.68674,947.44086,404.8515,184.07544,906.28406
41,0.333,353.10648,228.78522,1033.37219,381.76132,258.68674,947.44086,404.98599,183.75818,906.49231
42,0.342,353.10648,228.78522,1033.37219,381.76132,258.68674,947.44086,405.38394,183.75407,906.49854
43,0.35,353.2113,228.72726,1033.57715,381.73776,258.47006,947.52075,405.38394,183.75407,906.49854
44,0.358,353.30182,228.77518,1033.51697,381.73776,258.47006,947.52075,405.38394,183.75407,906.49854
45,0.367,353.12076,228.67943,1033.63733,381.73776,258.47006,947.52075,405.41718,183.56747,906.93359
46,0.375,353.12076,228.67943,1033.63733,381.84787,258.36969,947.57605,405.80322,183.51897,906.89246
47,0.383,353.2113,228.72726,1033.57715,381.73776,258.47006,947.52075,405.80322,183.51897,906.89246
48,0.392,353.12076,228.67943,1033.63733,381.84787,258.36969,947.57605,405.80322,183.51897,906.89246
49,0.4,353.12076,228.67943,1033.63733,381.84787,258.36969,947.57605,405.80322,183.51897,906.89246
50,0.408,353.2113,228.72726,1033.57715,382.03931,258.19244,947.4361,405.80322,183.51897,906.89246
51,0.417,353.12076,228.67943,1033.63733,382.05161,258.08038,947.5448,405.80322,183.51897,906.89246
52,0.425,353.2113,228.72726,1033.57715,382.15079,257.97711,947.60712,405.80322,183.51897,906.89246
53,0.433,353.2113,228.72726,1033.57715,382.05161,258.08038,947.5448,406.03848,183.68764,907.07843
54,0.442,353.30182,228.77518,1033.51697,382.20074,257.83606,947.33948,405.80322,183.51897,906.89246
55,0.45,353.2113,228.72726,1033.57715,382.05161,258.08038,947.5448,405.80322,183.51897,906.89246
56,0.458,353.44348,228.7588,1033.50952,382.20074,257.83606,947.33948,405.80322,183.51897,906.89246
57,0.467,353.36841,228.71292,1033.56506,382.05161,258.08038,947.5448,405.80322,183.51897,906.89246
58,0.475,353.44348,228.7588,1033.50952,382.18848,257.94809,947.23077,405.80322,183.51897,906.89246
59,0.483,353.44348,228.7588,1033.50952,382.28766,257.84482,947.29309,405.80322,183.51897,906.89246
60,0.492,353.44348,228.7588,1033.50952,382.29996,257.73276,947.40179,405.80322,183.51897,906.89246
61,0.5,353.44348,228.7588,1033.50952,382.18848,257.94809,947.23077,405.80322,183.51897,906.89246
62,0.508,353.44348,228.7588,1033.50952,382.20074,257.83606,947.33948,405.80322,183.51897,906.89246
63,0.517,353.44348,228.7588,1033.50952,382.28766,257.84482,947.29309,405.80322,183.51897,906.89246
64,0.525,353.44348,228.7588,1033.50952,382.29996,257.73276,947.40179,405.80322,183.51897,906.89246
65,0.533,353.44348,228.7588,1033.50952,382.36252,257.87378,947.237,405.80322,183.51897,906.89246
66,0.542,353.44348,228.7588,1033.50952,382.13849,258.08914,947.49841,405.80322,183.51897,906.89246
67,0.55,353.44348,228.7588,1033.50952,382.27713,257.85678,947.29083,405.80322,183.51897,906.89246
68,0.558,353.44348,228.7588,1033.50952,382.11569,258.21317,947.38745,405.80322,183.51897,906.89246
69,0.567,353.44348,228.7588,1033.50952,382.18848,257.94809,947.23077,405.80322,183.51897,906.89246
70,0.575,353.44348,228.7588,1033.50952,382.26486,257.96881,947.18213,405.80322,183.51897,906.89246
71,0.583,353.44348,228.7588,1033.50952,382.18848,257.94809,947.23077,405.80322,183.51897,906.89246
72,0.592,353.44348,228.7588,1033.50952,382.18848,257.94809,947.23077,405.51352,183.24643,906.74213
73,0.6,353.43671,228.5831,1033.3374,382.26486,257.96881,947.18213,405.51352,183.24643,906.74213
74,0.608,353.43671,228.5831,1033.3374,382.26501,258.00912,947.02826,405.51352,183.24643,906.74213
75,0.617,353.43671,228.5831,1033.3374,382.09329,257.88174,946.8299,405.09415,183.48163,906.34814
76,0.625,353.43671,228.5831,1033.3374,382.09329,257.88174,946.8299,405.09415,183.48163,906.34814
77,0.633,353.43671,228.5831,1033.3374,382.09329,257.88174,946.8299,404.95969,183.79884,906.13989
78,0.642,353.35458,228.71344,1033.0741,382.09329,257.88174,946.8299,404.95969,183.79884,906.13989
79,0.65,353.09967,228.60948,1033.20007,382.09329,257.88174,946.8299,405.16565,183.73761,905.6413
80,0.658,353.11227,228.83331,1033,382.09329,257.88174,946.8299,405.16565,183.73761,905.6413
81,0.667,353.02765,229.11124,1032.84485,382.09329,257.88174,946.8299,404.59537,183.4664,905.79956
82,0.675,353.02765,229.11124,1032.84485,382.13168,257.77847,946.7135,405.16565,183.73761,905.6413
83,0.683,353.02765,229.11124,1032.84485,382.13168,257.77847,946.7135,404.76761,183.74176,905.63495
84,0.692,353.02765,229.11124,1032.84485,382.13168,257.77847,946.7135,404.68732,183.48502,905.60535
85,0.7,353.20593,229.04053,1032.73047,382.13168,257.77847,946.7135,404.59537,183.4664,905.79956
86,0.708,353.02765,229.11124,1032.84485,382.0354,258.01117,946.59558,404.76761,183.74176,905.63495
87,0.717,353.20593,229.04053,1032.73047,382.0354,258.01117,946.59558,404.76761,183.74176,905.63495
88,0.725,353.20593,229.04053,1032.73047,382.0354,258.01117,946.59558,404.6398,184.04959,905.47827
89,0.733,353.06735,229.54538,1032.60889,382.0354,258.01117,946.59558,404.85953,183.76038,905.44073
90,0.742,353.24911,229.46556,1032.48584,382.0354,258.01117,946.59558,404.2417,184.05362,905.47198
91,0.75,353.24911,229.46556,1032.48584,382.0354,258.01117,946.59558,404.6398,184.04959,905.47827
92,0.758,353.24911,229.46556,1032.48584,382.0354,258.01117,946.59558,404.2417,184.05362,905.47198
93,0.767,353.40799,229.43814,1032.48083,382.0354,258.01117,946.59558,404.2417,184.05362,905.47198
94,0.775,353.40799,229.43814,1032.48083,382.03842,257.97513,946.42798,404.6398,184.04959,905.47827
95,0.783,353.40799,229.43814,1032.48083,382.11328,258.00415,946.37189,404.6398,184.04959,905.47827
96,0.792,353.48495,229.41522,1032.35156,382.01102,258.25577,946.47382,404.6398,184.04959,905.47827
97,0.8,353.48495,229.41522,1032.35156,382.20285,258.1499,946.47577,404.57321,184.47661,905.01508
98,0.808,353.48495,229.41522,1032.35156,382.10361,258.36545,946.4101,404.57321,184.47661,905.01508
99,0.817,353.48495,229.41522,1032.35156,382.10663,258.32938,946.24249,404.57321,184.47661,905.01508
100,0.825,353.48495,229.41522,1032.35156,382.10663,258.32938,946.24249,404.97137,184.47244,905.02142
101,0.833,353.48495,229.41522,1032.35156,382.10663,258.32938,946.24249,404.97137,184.47244,905.02142
102,0.842,353.48495,229.41522,1032.35156,382.23477,258.62286,946.22571,405.0379,184.04543,905.48462
103,0.85,353.48495,229.41522,1032.35156,382.23477,258.62286,946.22571,405.39413,185.03777,904.74957
104,0.858,354.1633,229.19197,1032.42615,382.23175,258.65891,946.39325,405.39413,185.03777,904.74957
105,0.867,354.1633,229.19197,1032.42615,382.23477,258.62286,946.22571,405.39413,185.03777,904.74957
106,0.875,354.1633,229.19197,1032.42615,382.28131,258.83658,946.43115,404.5856,185.64857,904.21191
107,0.883,354.1633,229.19197,1032.42615,382.28433,258.80057,946.26361,405.39413,185.03777,904.74957
108,0.892,354.1633,229.19197,1032.42615,382.33371,258.98962,946.2851,405.32748,185.46574,904.2868
109,0.9,354.29153,229.45615,1032.37634,382.33371,258.98962,946.2851,404.48599,186.34422,903.7735
110,0.908,354.29153,229.45615,1032.37634,382.33371,258.98962,946.2851,404.5856,185.64857,904.21191
111,0.917,354.29153,229.45615,1032.37634,382.40775,259.21191,946.42859,405.06265,185.58707,904.26654
112,0.925,354.29153,229.45615,1032.37634,382.40775,259.21191,946.42859,405.06265,185.58707,904.26654
113,0.933,354.29153,229.45615,1032.37634,382.40775,259.21191,946.42859,405.56259,185.99081,904.32031
114,0.942,354.29153,229.45615,1032.37634,382.40775,259.21191,946.42859,405.56259,185.99081,904.32031
115,0.95,354.48596,229.35027,1032.43347,382.40775,259.21191,946.42859,405.56259,185.99081,904.32031
116,0.958,354.40332,229.46812,1032.34546,382.57483,259.65094,946.49823,405.97647,186.07993,904.4931
117,0.967,354.73245,229.28618,1032.3396,382.57483,259.65094,946.49823,406.4838,185.12834,905.46136
118,0.975,354.73245,229.28618,1032.3396,382.75449,260.0864,946.4231,405.97647,186.07993,904.4931
119,0.983,354.73245,229.28618,1032.3396,383.02081,259.97958,946.43549,405.97647,186.07993,904.4931
120,0.992,355.18393,229.14008,1032.39868,383.02081,259.97958,946.43549,405.97647,186.07993,904.4931
121,1,355.18393,229.14008,1032.39868,383.34296,259.83759,946.34607,406.4838,185.12834,905.46136
122,1.008,355.55606,229.27809,1032.46802,383.50571,259.93457,946.45239,405.97647,186.07993,904.4931
123,1.017,355.66525,229.31375,1032.41699,383.68793,260.0835,946.22699,405.97647,186.07993,904.4931
124,1.025,355.55606,229.27809,1032.46802,383.87012,260.2836,946.30554,405.97647,186.07993,904.4931
125,1.033,355.90073,229.22133,1032.29773,383.87012,260.2836,946.30554,405.97647,186.07993,904.4931
126,1.042,356.09448,229.21028,1032.44751,384.00168,260.31381,946.41638,405.97647,186.07993,904.4931
127,1.05,356.11655,229.97441,1032.18213,384.13,260.495,946.34625,405.97647,186.07993,904.4931
128,1.058,356.44437,230.41925,1032.14673,384.35321,260.3902,946.28217,406.29108,185.93607,904.3493
129,1.067,356.44437,230.41925,1032.14673,384.45044,260.19351,946.32971,406.02771,186.36331,903.8479
130,1.075,356.66476,229.63414,1032.25769,384.45044,260.19351,946.32971,406.02771,186.36331,903.8479
131,1.083,356.66476,229.63414,1032.25769,384.45044,260.19351,946.32971,406.29108,185.93607,904.3493
132,1.092,356.66476,229.63414,1032.25769,384.55905,260.09,946.24609,406.29108,185.93607,904.3493
133,1.1,356.8251,229.57594,1032.27966,384.95544,259.96625,946.43213,406.02771,186.36331,903.8479
134,1.108,357.0376,229.43225,1031.98096,385.31326,259.97083,946.4765,406.34045,186.03374,903.83936
135,1.117,357.77097,230.87447,1031.94519,385.31326,259.97083,946.4765,406.34241,186.21927,903.70416
136,1.125,357.42242,230.65935,1032.20483,385.31326,259.97083,946.4765,406.65509,185.88974,903.69562
137,1.133,357.64642,229.93683,1032.35034,385.57959,259.86453,946.48889,406.91827,185.46255,904.19696
138,1.142,357.80655,230.31116,1031.98169,385.6637,259.77081,946.54755,407.33209,185.55156,904.36975
139,1.15,357.80655,230.31116,1031.98169,385.88126,259.67786,946.55536,407.33209,185.55156,904.36975
140,1.158,357.80655,230.31116,1031.98169,385.97495,259.681,946.51715,407.33209,185.55156,904.36975
141,1.167,357.98465,230.24074,1031.86731,385.97495,259.681,946.51715,407.33209,185.55156,904.36975
142,1.175,357.98465,230.24074,1031.86731,385.97495,259.681,946.51715,407.33209,185.55156,904.36975
143,1.183,357.98465,230.24074,1031.86731,385.97495,259.681,946.51715,407.33209,185.55156,904.36975
144,1.192,357.87943,229.968,1032.04126,385.97797,259.64505,946.34967,407.33209,185.55156,904.36975
145,1.2,357.98465,230.24074,1031.86731,386.21854,259.49634,946.24176,407.06906,185.97867,903.86859
146,1.208,357.98465,230.24074,1031.86731,386.34232,259.40048,946.28778,407.06906,185.97867,903.86859
147,1.217,357.98465,230.24074,1031.86731,386.34232,259.40048,946.28778,407.33209,185.55156,904.36975
148,1.225,358.02075,229.67741,1031.90393,386.40323,259.43228,946.23431,407.06906,185.97867,903.86859
149,1.233,357.98465,230.24074,1031.86731,386.40323,259.43228,946.23431,407.06906,185.97867,903.86859
150,1.242,358.2966,230.17758,1031.90686,386.74802,259.30353,946.15668,407.21738,185.96388,903.67487
151,1.25,358.2966,230.17758,1031.90686,386.74802,259.30353,946.15668,407.21738,185.96388,903.67487
152,1.258,358.29337,230.32199,1031.76855,386.89798,259.22058,946.05188,407.21738,185.96388,903.67487
153,1.267,358.32956,229.75868,1031.80518,386.89798,259.22058,946.05188,407.99045,186.12143,903.56561
154,1.275,358.32956,229.75868,1031.80518,386.89798,259.22058,946.05188,407.99045,186.12143,903.56561
155,1.283,358.41742,229.3364,1032.09839,386.89798,259.22058,946.05188,407.99045,186.12143,903.56561
156,1.292,358.52911,229.84384,1031.7489,386.89798,259.22058,946.05188,407.99045,186.12143,903.56561
157,1.3,358.44437,230.12169,1031.59387,387.04498,259.14786,946.06696,407.99045,186.12143,903.56561
158,1.308,358.53891,229.87549,1032.05933,387.04498,259.14786,946.06696,407.99045,186.12143,903.56561
159,1.317,358.48056,229.55844,1031.63049,387.2085,259.44284,945.95673,407.99045,186.12143,903.56561
160,1.325,358.53571,230.01991,1031.92102,387.2085,259.44284,945.95673,407.99045,186.12143,903.56561
161,1.333,358.56525,229.28059,1031.78552,387.2085,259.44284,945.95673,407.99045,186.12143,903.56561
162,1.342,358.64417,230.52101,1031.44519,387.2085,259.44284,945.95673,407.99045,186.12143,903.56561
163,1.35,358.78555,229.81778,1031.88416,387.2085,259.44284,945.95673,408.5369,186.07986,903.58771
164,1.358,358.52911,229.84384,1031.7489,387.04498,259.14786,946.06696,408.5369,186.07986,903.58771
165,1.367,358.90714,230.67105,1031.75269,387.2085,259.44284,945.95673,408.5369,186.07986,903.58771
166,1.375,358.90714,230.67105,1031.75269,387.2085,259.44284,945.95673,409.72604,185.6586,903.85211
167,1.383,358.98529,230.21706,1031.73547,387.2085,259.44284,945.95673,409.72604,185.6586,903.85211
168,1.392,358.90714,230.67105,1031.75269,387.2085,259.44284,945.95673,409.72604,185.6586,903.85211
169,1.4,358.99188,230.39316,1031.90759,387.2085,259.44284,945.95673,409.72604,185.6586,903.85211
170,1.408,358.99188,230.39316,1031.90759,387.2085,259.44284,945.95673,408.5369,186.07986,903.58771
171,1.417,358.99188,230.39316,1031.90759,387.2085,259.44284,945.95673,408.5369,186.07986,903.58771
172,1.425,359.23517,230.33534,1031.82214,387.36292,259.21762,945.92969,408.5369,186.07986,903.58771
173,1.433,359.70166,230.4639,1031.58289,387.41159,259.73038,945.96759,408.5369,186.07986,903.58771
174,1.442,359.84589,230.80264,1031.61511,387.41159,259.73038,945.96759,409.72604,185.6586,903.85211
175,1.45,359.84589,230.80264,1031.61511,387.56598,259.50516,945.94055,409.72604,185.6586,903.85211
176,1.458,359.84589,230.80264,1031.61511,387.41159,259.73038,945.96759,408.5369,186.07986,903.58771
177,1.467,359.84589,230.80264,1031.61511,387.56598,259.50516,945.94055,408.76184,185.944,903.44611
178,1.475,359.95657,230.81268,1031.58777,387.73572,259.30997,946.08887,408.5369,186.07986,903.58771
179,1.483,359.96683,230.97719,1031.53455,388.13708,259.11707,945.9494,408.76184,185.944,903.44611
180,1.492,360.16229,230.70935,1031.66199,388.01288,259.20172,946.11334,408.5369,186.07986,903.58771
181,1.5,360.07751,230.98721,1031.50708,387.98953,259.56512,946.23657,409.8905,185.52534,903.71783
182,1.508,360.07751,230.98721,1031.50708,388.14392,259.33997,946.20959,409.8905,185.52534,903.71783
183,1.517,360.16229,230.70935,1031.66199,388.14392,259.33997,946.20959,410.17245,185.93721,903.53394
184,1.525,360.07751,230.98721,1031.50708,388.14392,259.33997,946.20959,409.47693,186.66458,903.28156
185,1.533,360.07751,230.98721,1031.50708,388.14392,259.33997,946.20959,409.47693,186.66458,903.28156
186,1.542,360.07751,230.98721,1031.50708,388.14392,259.33997,946.20959,410.43881,186.20976,903.62134
187,1.55,360.07751,230.98721,1031.50708,388.14392,259.33997,946.20959,409.47693,186.66458,903.28156
188,1.558,360.29282,230.41821,1031.70349,388.14392,259.33997,946.20959,409.89087,186.75339,903.45477
189,1.567,360.34363,230.50172,1031.61633,388.14392,259.33997,946.20959,410.7399,186.33958,903.76831
190,1.575,360.58572,230.9113,1031.64746,388.14392,259.33997,946.20959,409.47693,186.66458,903.28156
191,1.583,360.66537,230.5367,1031.77612,388.14392,259.33997,946.20959,409.89087,186.75339,903.45477
192,1.592,360.71622,230.62021,1031.68884,388.36716,259.2355,946.14539,410.7399,186.33958,903.76831
193,1.6,361.10321,230.34312,1031.7345,388.36716,259.2355,946.14539,410.94135,186.7175,903.83258
194,1.608,361.24576,230.36276,1031.69299,388.52985,259.33209,946.25183,410.94135,186.7175,903.83258
195,1.617,361.37573,230.28542,1031.74524,388.52985,259.33209,946.25183,410.9697,186.2034,903.63013
196,1.625,361.37573,230.28542,1031.74524,388.52985,259.33209,946.25183,410.46701,186.99431,903.3573
197,1.633,361.37573,230.28542,1031.74524,388.52985,259.33209,946.25183,410.20529,186.60921,903.3111
198,1.642,361.43307,230.18765,1031.82837,388.67273,259.28137,946.24719,410.46701,186.99431,903.3573
199,1.65,361.43307,230.18765,1031.82837,388.52985,259.33209,946.25183,410.46701,186.99431,903.3573
200,1.658,361.43307,230.18765,1031.82837,388.67273,259.28137,946.24719,410.46701,186.99431,903.3573
201,1.667,361.43307,230.18765,1031.82837,388.89319,259.20898,946.33191,410.46701,186.99431,903.3573
