Frame#,Time,R.Forearm.x,R.Forearm.y,R.Forearm.z,R.Ulna.x,R.Ulna.y,R.Ulna.z,R.Radius.x,R.Radius.y,R.Radius.z
1,0,144.25688,-96.53778,1049.7688,266.31744,-127.96594,1061.10913,308.01917,-18.58663,1068.53625
2,0.008,145.17203,-94.61963,1050.24414,267.45627,-128.28632,1061.18811,309.19278,-18.83964,1068.02124
3,0.017,145.73102,-94.15124,1051.28284,268.29303,-127.64526,1061.93359,310.11734,-18.58009,1067.90466
4,0.025,146.31982,-93.58355,1051.17651,269.06308,-127.23665,1062.13232,310.54819,-18.71674,1067.8645
5,0.033,146.81369,-93.31736,1051.33948,269.3963,-126.74245,1062.43311,312.36325,-17.99853,1067.29858
6,0.042,147.72635,-91.91707,1052.31213,270.77069,-126.46262,1061.41113,314.25293,-17.79093,1066.78552
7,0.05,147.98529,-90.96829,1053.41113,271.29379,-126.36964,1061.22327,315.36523,-18.10704,1066.64673
8,0.058,148.23224,-89.43099,1053.42468,271.88623,-125.10976,1061.19385,316.21008,-18.30037,1065.84326
9,0.067,148.9677,-87.38758,1053.09167,272.00623,-125.00391,1061.32886,316.69424,-18.42673,1065.98376
10,0.075,149.56274,-86.90446,1052.87683,272.07166,-124.87196,1061.53052,317.91675,-18.49123,1065.2843
11,0.083,150.23763,-86.12752,1052.81226,272.27853,-124.6256,1061.00745,318.69455,-17.98674,1064.88257
12,0.092,150.59013,-85.3543,1052.68018,272.95129,-123.95129,1061.08838,319.82947,-17.61726,1064.90063
13,0.1,150.94878,-85.24873,1052.54321,273.14279,-123.71245,1061.06799,320.09143,-17.73435,1064.86169
14,0.108,151.24341,-84.52048,1052.53235,273.25665,-123.50246,1060.4436,320.48349,-18.37481,1064.16174
15,0.117,151.62813,-84.11397,1052.53955,273.47586,-123.50682,1060.06091,320.48349,-18.37481,1064.16174
16,0.125,151.8853,-84.35002,1052.99097,273.86823,-123.31791,1059.34485,320.71735,-17.59467,1064.33276
17,0.133,152.18164,-84.52691,1053.09326,273.8399,-123.65736,1058.96924,320.51941,-17.29795,1064.01648
18,0.142,152.15979,-84.7224,1052.92749,274.95758,-123.11528,1057.91174,320.9379,-17.27908,1063.73132
19,0.15,152.85376,-84.41496,1052.7019,274.95758,-123.11528,1057.91174,321.41833,-17.63154,1063.02954
20,0.158,152.96724,-84.9155,1052.50659,275.08548,-123.28573,1057.86072,321.31628,-17.47776,1062.92773
21,0.167,152.96724,-84.9155,1052.50659,275.08548,-123.28573,1057.86072,320.73917,-17.97577,1062.53711
22,0.175,152.7894,-85.51517,1052.3269,275.08548,-123.28573,1057.86072,320.79703,-17.49442,1061.77075
23,0.183,152.64378,-85.61503,1051.73621,275.22351,-123.08365,1057.74377,321.44028,-17.14014,1061.06897
24,0.192,152.62202,-85.81048,1051.57043,275.22351,-123.08365,1057.74377,321.19937,-17.41214,1060.65332
25,0.2,152.62202,-85.81048,1051.57043,275.0535,-122.97891,1057.63879,321.36908,-17.5853,1060.00415
26,0.208,152.78214,-85.75527,1050.93689,275.22351,-123.08365,1057.74377,321.36908,-17.5853,1060.00415
27,0.217,152.65346,-85.62959,1050.48022,274.77466,-123.37119,1057.52954,321.36908,-17.5853,1060.00415
28,0.225,152.81503,-85.67797,1050.21472,274.77466,-123.37119,1057.52954,321.36908,-17.5853,1060.00415
29,0.233,152.78078,-85.30664,1050.04333,274.64682,-123.57236,1057.68518,321.10504,-18.12598,1060.02173
30,0.242,152.64679,-85.20642,1049.96082,274.61044,-123.97424,1057.57727,321.10504,-18.12598,1060.02173
31,0.25,152.71745,-85.96622,1049.64209,274.08121,-124.58318,1057.24536,321.10504,-18.12598,1060.02173
32,0.258,152.50662,-86.5647,1049.32776,273.87225,-124.88909,1057.2168,320.87497,-18.11669,1059.85925
33,0.267,152.36917,-86.89821,1049.35754,273.74197,-125.49732,1056.99292,320.87497,-18.11669,1059.85925
34,0.275,152.50322,-86.99844,1049.44019,273.80322,-125.71623,1057.10461,320.87497,-18.11669,1059.85925
35,0.283,152.50322,-86.99844,1049.44019,273.95078,-126.2534,1057.03711,320.61072,-18.65711,1059.87671
36,0.292,152.31053,-86.99877,1049.56531,273.97745,-126.39989,1056.72314,320.43091,-18.83221,1060.16052
37,0.3,152.35437,-87.36346,1049.88342,273.88458,-126.95749,1056.11719,320.47299,-19.12385,1060.50293
38,0.308,152.1617,-87.36377,1050.00854,273.47369,-127.33609,1056.09875,320.13217,-19.65716,1060.65417
39,0.317,151.99013,-88.13964,1050.23401,273.47369,-127.33609,1056.09875,320.13217,-19.65716,1060.65417
40,0.325,151.7225,-90.05482,1050.83972,273.33148,-127.43787,1056.03357,320.53397,-21.26747,1061.2511
41,0.333,151.44777,-90.84356,1050.63721,273.05176,-127.71568,1055.67847,320.46945,-21.29747,1061.98169
42,0.342,150.98392,-91.43396,1050.5127,273.0181,-128.07329,1055.31604,319.5817,-20.48512,1062.30359
43,0.35,150.33107,-91.96149,1050.08423,272.73654,-128.56767,1055.59167,319.08392,-21.10131,1062.22302
44,0.358,149.85535,-92.25349,1049.57471,272.52383,-128.51941,1055.15002,318.18771,-22.70416,1062.1709
45,0.367,149.89787,-92.44884,1049.31616,272.21848,-128.90755,1054.77686,317.24609,-23.79056,1062.52527
46,0.375,149.56677,-92.64797,1048.83801,272.29034,-129.79253,1054.64087,316.23135,-23.26412,1062.8396
47,0.383,149.42282,-93.22393,1048.46716,271.6358,-130.43391,1054.0177,315.78271,-23.34794,1063.19971
48,0.392,149.20845,-94.51892,1047.80396,271.18808,-131.11995,1053.55627,315.2699,-23.46015,1063.24707
49,0.4,148.73228,-96.62708,1047.28479,270.21994,-132.14989,1053.25574,314.94003,-24.50485,1062.81763
50,0.408,147.62944,-97.60199,1047.25647,269.96756,-132.37114,1053.06592,314.16428,-24.1832,1063.34973
51,0.417,147.24506,-97.49389,1046.92053,269.67957,-132.43671,1053.09961,312.59277,-25.15993,1063.5415
52,0.425,146.70593,-98.40359,1046.90735,269.39151,-132.784,1052.91919,311.43747,-25.09039,1063.63135
53,0.433,145.8911,-99.08123,1045.40869,269.56897,-132.05751,1051.65332,310.48767,-25.76971,1062.80042
54,0.442,145.77299,-99.74899,1044.17224,268.70465,-132.69077,1051.03101,309.58511,-25.91389,1063.25171
55,0.45,145.86189,-99.63525,1043.52209,268.16235,-133.59218,1050.7074,309.35327,-26.64005,1063.38623
56,0.458,145.08984,-100.19093,1042.76343,268.20551,-133.62665,1049.83826,306.3429,-26.50324,1064.23401
57,0.467,144.21321,-103.61431,1042.53125,267.96704,-134.76233,1049.04297,305.76611,-27.12047,1064.68701
58,0.475,143.15961,-103.80541,1042.30847,266.85992,-135.052,1048.85608,303.78125,-26.61093,1065.75513
59,0.483,142.14253,-104.94707,1041.9209,265.43887,-136.0726,1048.35779,302.82349,-26.7373,1065.62793
60,0.492,141.69255,-107.67625,1040.44775,264.94595,-136.56815,1047.82129,299.96036,-26.59086,1065.93713
61,0.5,140.93596,-108.50216,1039.61914,264.34799,-137.45866,1046.33154,298.67917,-27.18835,1066.27209
62,0.508,140.0963,-111.19923,1039.08777,264.11661,-137.70248,1046.36914,296.11261,-27.97368,1066.87744
63,0.517,138.96652,-112.472,1038.3147,263.31061,-138.27615,1045.8064,295.2688,-27.55955,1066.56995
64,0.525,138.19308,-112.66167,1037.47742,260.77527,-137.75308,1043.90674,293.5444,-28.03548,1066.87866
65,0.533,136.99159,-114.83957,1036.31506,260.20389,-138.30121,1042.96851,290.08145,-29.56282,1066.82166
66,0.542,136.02119,-116.44838,1034.29443,258.93564,-138.89233,1042.13562,288.7774,-29.70351,1066.91223
67,0.55,134.63606,-117.51424,1033.42212,258.17081,-139.77275,1040.66833,286.59863,-29.56737,1066.74951
68,0.558,133.83804,-118.2582,1031.82153,257.05215,-140.62558,1039.91187,284.30179,-31.15118,1066.72021
69,0.567,133.71921,-119.48619,1030.75354,256.10892,-140.85985,1038.9032,282.27979,-33.19748,1066.50391
70,0.575,131.28195,-121.74671,1029.49023,255.65294,-141.05969,1038.40674,279.87851,-32.38897,1066.297
71,0.583,130.36394,-123.35079,1028.28003,253.84012,-142.04276,1037.17798,277.70441,-33.70464,1066.61511
72,0.592,129.32388,-125.02328,1026.39978,251.8652,-143.78568,1035.54407,274.20383,-34.18509,1066.34058
73,0.6,128.37326,-125.7735,1024.89331,251.75856,-143.80104,1033.92346,273.48508,-34.32822,1066.12207
74,0.608,127.0014,-128.40631,1023.95587,250.26889,-144.09885,1033.42151,269.6557,-36.95241,1066.50562
75,0.617,125.3522,-129.11264,1022.36145,248.24069,-145.0334,1031.13928,267.99261,-36.04799,1065.79785
76,0.625,123.57521,-130.82498,1020.66565,246.84154,-145.91971,1030.43738,264.71628,-38.38976,1067.91492
77,0.633,121.98531,-133.44534,1019.80499,245.95984,-146.4164,1029.18188,262.65994,-40.93132,1067.22729
78,0.642,120.45569,-133.72713,1017.92291,244.80263,-146.72589,1027.24976,258.50244,-40.65648,1066.05957
79,0.65,119.62518,-135.54607,1015.51428,243.02934,-146.58002,1025.68994,256.70096,-41.99533,1065.80322
80,0.658,117.59844,-137.90938,1014.88391,241.73944,-148.66701,1023.66327,253.17429,-41.61271,1065.78845
81,0.667,116.36884,-139.9606,1013.28149,240.49521,-148.22037,1022.74384,250.54343,-42.44572,1065.12378
82,0.675,115.05399,-140.26903,1010.3949,238.08948,-148.82048,1021.55945,247.79791,-43.8299,1065.09668
83,0.683,113.69989,-141.25772,1009.12842,236.59193,-150.0643,1018.44678,245.19302,-45.89016,1064.29126
84,0.692,111.94077,-144.61433,1007.76843,235.35313,-149.65491,1017.63806,241.67192,-46.11435,1064.03589
85,0.7,110.66517,-145.77145,1005.99762,233.39075,-150.44142,1016.75122,238.5416,-47.41389,1063.99536
86,0.708,109.41209,-146.63203,1004.42523,232.20163,-151.73169,1014.71271,236.72105,-48.41328,1063.22278
87,0.717,108.37746,-147.67204,1002.23981,230.24245,-150.56879,1013.35962,232.93756,-50.42655,1063.23657
88,0.725,106.31413,-150.40573,1001.12836,227.62262,-152.28592,1010.41754,230.47888,-50.16769,1062.54663
89,0.733,104.72004,-152.2511,998.99274,226.26973,-152.56895,1009.04126,226.89656,-51.91594,1062.08728
90,0.742,103.5973,-152.31696,997.12024,224.93222,-153.2525,1007.43457,224.17264,-53.28088,1060.94568
91,0.75,101.4872,-154.65262,995.42487,223.05656,-153.08586,1005.46613,220.77219,-55.42445,1061.07776
92,0.758,99.62115,-156.40395,993.76929,221.539,-152.94119,1003.86749,217.70848,-54.51839,1060.5072
93,0.767,98.42737,-158.14426,991.83032,218.55618,-154.06953,1002.06934,214.84819,-57.55067,1060.00854
94,0.775,96.37319,-159.6375,990.57983,217.62411,-154.31425,1000.63861,212.25581,-57.68689,1059.68201
95,0.783,94.3736,-160.80704,987.41998,216.36031,-154.07539,997.70111,208.47607,-60.67119,1059.53564
96,0.792,92.7523,-162.9417,986.45831,212.70407,-154.46616,996.60443,205.73778,-60.55239,1057.76587
97,0.8,91.16825,-164.03169,983.81281,211.49916,-155.16104,994.32849,202.20825,-63.41005,1057.37427
98,0.808,89.31818,-165.75932,982.17072,208.77644,-155.62933,993.38593,198.67368,-64.43636,1056.77136
99,0.817,87.70144,-166.87985,981.32574,208.44403,-155.82494,990.45831,195.0979,-64.41801,1056.05444
100,0.825,85.7253,-167.57809,978.01758,204.73637,-155.14066,987.97919,193.54346,-66.58331,1054.86853
101,0.833,83.93959,-169.33733,976.90283,202.78445,-155.04915,987.22589,189.92873,-68.26121,1053.81238
102,0.842,81.71576,-172.2681,975.35175,201.22653,-156.05983,984.72577,187.24644,-70.15848,1053.61572
103,0.85,81.01487,-172.08423,971.78497,198.04231,-155.32568,981.40527,183.63091,-70.70853,1052.16589
104,0.858,78.77962,-173.79176,970.42017,196.96902,-155.5977,980.54279,180.77731,-73.42476,1051.65564
105,0.867,77.04133,-173.88258,967.79987,194.77827,-156.47073,978.57666,178.57121,-74.43259,1050.20654
106,0.875,74.8783,-176.66624,966.83936,191.85797,-156.01146,975.8291,175.05566,-73.97215,1048.32153
107,0.883,72.78297,-177.89371,963.85999,189.68602,-155.86037,973.68738,171.9269,-75.39566,1046.74597
108,0.892,71.61646,-178.04951,962.69336,188.29541,-156.44057,972.74078,168.37773,-76.39965,1045.39807
109,0.9,69.22168,-179.24409,959.862,187.17622,-156.85123,970.49048,166.38191,-77.44798,1044.21472
110,0.908,68.16369,-179.63177,957.6109,183.58603,-156.20659,967.94269,163.37286,-78.14131,1043.03357
111,0.917,65.91371,-181.33633,955.71338,181.57756,-155.48148,965.71082,160.23241,-79.64233,1041.92004
112,0.925,64.206,-181.72015,954.9129,179.87282,-156.91003,964.45514,157.52449,-80.13087,1040.29883
113,0.933,62.38547,-183.27657,953.0271,177.18805,-155.99115,962.25323,154.98903,-81.58252,1039.27771
114,0.942,60.67023,-183.8199,950.49255,175.33507,-156.25752,959.94946,152.28104,-82.68142,1037.81238
115,0.95,58.82144,-185.77257,948.435,173.69502,-157.86302,958.43152,148.7027,-83.49604,1036.0498
116,0.958,57.99003,-186.20641,947.52301,171.58856,-156.88086,955.78503,146.90292,-83.50456,1034.89172
117,0.967,55.45205,-187.18169,944.90314,168.65266,-156.58421,953.50397,144.20549,-85.43031,1033.92371
118,0.975,53.44594,-186.854,942.68024,167.36026,-156.7784,952.48718,140.99013,-86.59795,1031.36621
119,0.983,52.42538,-187.94807,940.98395,166.30055,-157.59647,951.27002,139.16991,-85.9415,1029.88123
120,0.992,50.16416,-189.83105,939.67816,162.35863,-156.8174,949.19617,136.2338,-87.26638,1029.36877
121,1,49.15021,-190.49269,937.48248,160.74625,-156.7327,946.99066,133.07449,-88.86108,1027.40466
122,1.008,47.39481,-190.99887,936.52887,159.37212,-157.14455,946.04034,131.75949,-88.04824,1027.12927
123,1.017,44.97713,-190.69687,934.79449,157.3685,-155.8441,943.659,129.11356,-89.45235,1025.04163
124,1.025,43.74979,-191.5592,933.22095,156.23665,-155.11992,942.02588,126.63624,-90.24792,1023.97174
125,1.033,42.9957,-192.35179,931.80627,154.01054,-156.34842,940.15704,124.83032,-90.41468,1022.95245
126,1.042,41.1939,-193.28429,930.60754,152.1125,-156.38193,938.13647,121.85446,-92.26702,1021.47742
127,1.05,39.36321,-193.98825,929.30878,150.22339,-155.22665,936.57343,119.83862,-92.12733,1019.62872
128,1.058,38.82302,-194.76083,927.56183,147.12064,-154.93117,934.58826,117.74742,-91.86591,1019.53186
129,1.067,37.54793,-194.29836,925.4859,146.19148,-155.97955,932.91193,116.70465,-92.95474,1016.51624
130,1.075,35.04128,-196.60149,924.7301,145.29832,-156.26286,931.94348,113.55128,-93.88406,1016.18054
131,1.083,33.38157,-196.51505,922.55475,141.45389,-155.21542,930.03046,111.55076,-94.46829,1014.95074
132,1.092,32.64803,-197.07573,921.90729,140.85156,-155.03316,928.539,109.86095,-94.68356,1013.21088
133,1.1,31.59406,-198.17137,920.56433,139.3531,-155.19006,926.80011,107.59848,-95.20145,1011.87976
134,1.108,29.71287,-196.87561,918.8244,136.37825,-154.31325,925.55115,105.54632,-95.87016,1011.01862
135,1.117,27.42317,-197.08194,916.45764,135.11906,-154.92867,924.06055,102.51307,-96.29455,1010.31287
136,1.125,26.57857,-198.33923,915.98907,134.05176,-154.58044,923.46667,101.01003,-96.18935,1008.89825
137,1.133,25.10531,-198.78328,915.35846,131.18265,-154.68839,922.34509,98.50716,-97.2933,1007.74457
138,1.142,23.9311,-199.85725,914.47302,129.34877,-154.39513,921.2973,96.64086,-97.35277,1007.1181
139,1.15,23.00543,-199.96332,913.39929,128.1599,-153.59865,920.11047,93.85121,-98.00802,1006.66644
140,1.158,21.84752,-200.76575,912.5918,126.69257,-153.42921,918.17108,92.63685,-98.13734,1005.47766
141,1.167,20.38478,-199.49826,911.8855,125.44738,-153.64351,917.76349,90.75185,-98.65113,1004.29858
142,1.175,18.6783,-200.23482,909.80341,123.74132,-153.50998,916.53265,88.4977,-98.81147,1002.88361
143,1.183,17.55741,-199.68399,908.61108,121.36478,-153.1411,915.80878,86.9101,-98.73891,1002.88605
144,1.192,16.7146,-200.13895,907.0365,119.87156,-153.16388,914.91034,84.35547,-98.63293,1001.75714
145,1.2,16.27937,-201.51312,907.34772,119.09151,-152.88763,914.45923,83.86369,-99.29501,1001.25159
146,1.208,15.70377,-200.84894,907.0885,116.89967,-152.97057,913.64276,81.09288,-99.52783,999.99982
147,1.217,13.94711,-203.07918,906.73737,115.60912,-152.44249,912.31134,79.08093,-99.34652,1000.12469
148,1.225,12.30725,-201.88805,905.61432,113.77142,-152.588,911.33752,79.57983,-100.31388,998.95331
149,1.233,10.7103,-201.55286,905.77698,112.41238,-152.54059,910.31488,77.10879,-101.18658,998.87396
150,1.242,9.78526,-202.01845,905.03259,111.29028,-151.17795,909.77057,75.40698,-101.37355,998.46887
151,1.25,9.56195,-202.52966,904.48572,109.99305,-151.0274,909.62317,73.89983,-100.57445,997.73773
152,1.258,8.7698,-202.28008,904.09363,108.47151,-151.01974,909.20068,72.47065,-100.79855,996.4751
153,1.267,7.43587,-202.37207,902.92407,107.50572,-150.81219,909.26996,70.11121,-101.24412,996.04456
154,1.275,6.70848,-202.10951,902.52637,105.91194,-150.39455,908.56323,69.20885,-100.78027,995.32916
155,1.283,5.70163,-202.40244,902.30347,104.16123,-150.74065,907.92395,66.40269,-100.82294,995.18103
156,1.292,4.20194,-202.08195,901.16144,103.68735,-150.45026,907.99811,64.76885,-101.13448,995.32758
157,1.3,3.35293,-201.8624,901.34882,102.88586,-150.15195,907.69379,63.15707,-100.50298,994.31342
158,1.308,3.35293,-201.8624,901.34882,100.22601,-150.09102,907.15631,61.90033,-101.0459,994.18896
159,1.317,2.87575,-201.46553,900.58759,99.19547,-149.3302,906.9942,61.15455,-101.98636,994.18311
160,1.325,2.06394,-202.996,901.12726,98.3056,-148.89932,906.0506,58.9823,-101.0936,994.00519
161,1.333,1.04337,-203.80565,900.50543,97.52277,-148.09087,905.61182,56.28439,-101.61722,994.50317
162,1.342,0.60952,-204.23302,900.19513,96.11748,-148.64508,905.88745,55.23777,-101.30031,993.92566
163,1.35,-0.50981,-203.4109,899.22516,95.03198,-148.92221,906.04395,54.94056,-101.52698,993.92804
164,1.358,-0.75789,-203.85466,899.69012,93.86217,-148.35054,906.02698,52.42922,-102.5904,993.22601
165,1.367,-1.35824,-203.74182,899.34039,92.30447,-147.7583,905.93701,50.98502,-102.09496,992.79144
166,1.375,-2.71774,-203.47388,898.69409,91.75065,-147.96976,905.99951,49.31313,-102.0827,992.53638
167,1.383,-3.39297,-203.6144,898.73425,90.72365,-147.20224,904.93988,47.17244,-102.59013,992.60608
168,1.392,-3.59745,-203.98814,898.53827,89.44973,-146.54765,904.8147,46.35477,-102.2402,992.36914
169,1.4,-3.83627,-203.73872,898.36786,88.99111,-146.95203,904.79474,46.18058,-102.53104,992.1452
170,1.408,-4.23007,-204.00121,898.59039,88.53461,-147.01831,904.96326,44.32535,-102.43097,992.18701
171,1.417,-4.90319,-204.26775,898.65015,87.01767,-146.59244,904.16553,42.7788,-102.06398,991.87903
172,1.425,-5.61453,-204.36115,898.79419,86.11699,-146.33617,904.46692,41.94211,-101.89142,991.70654
173,1.433,-5.92169,-204.09453,898.63593,86.02912,-145.97047,904.40356,41.15739,-101.26999,991.54016
174,1.442,-5.92169,-204.09453,898.63593,85.00004,-145.46497,904.67108,40.1325,-101.72485,991.20197
175,1.45,-6.60142,-203.40105,897.56848,84.54652,-145.47166,904.60901,39.2878,-101.94234,991.08417
176,1.458,-6.66859,-204.91351,898.26385,83.45004,-144.69783,904.01965,38.33238,-102.45563,991.23279
177,1.467,-7.21077,-205.01019,898.40546,83.08369,-144.82254,903.79388,36.82236,-102.84439,991.40662
178,1.475,-8.87122,-204.54588,897.78821,81.87691,-144.20428,903.36914,36.32139,-103.17547,991.34772
179,1.483,-9.21434,-203.61882,897.36749,80.63078,-144.20551,903.57782,35.19707,-102.60015,991.4848
180,1.492,-9.11967,-204.77748,897.67108,80.44868,-144.1573,903.76294,33.9132,-101.80694,991.13751
181,1.5,-9.11967,-204.77748,897.67108,79.91116,-143.69235,903.9411,32.72361,-101.84083,990.01599
182,1.508,-9.45246,-203.79236,897.27612,79.72126,-144.05788,903.9975,32.38389,-101.96616,989.7796
183,1.517,-11.17438,-203.34557,897.30792,79.03018,-144.01411,903.84277,32.25444,-101.78603,989.83325
184,1.525,-11.17438,-203.34557,897.30792,78.3052,-144.20323,903.67603,31.73587,-102.76302,990.09186
185,1.533,-11.39088,-204.39587,897.53998,78.17815,-144.47931,903.69421,30.53198,-102.20015,989.89862
186,1.542,-11.63926,-204.41563,897.67499,77.83847,-144.36734,903.68842,29.04107,-102.49791,990.14215
187,1.55,-11.97715,-204.48708,897.69543,77.08851,-144.88809,903.4873,28.52704,-102.31753,990.11591
188,1.558,-12.68101,-204.38565,897.68939,76.47487,-144.93231,903.38635,28.30783,-102.70888,989.68225
189,1.567,-12.68101,-204.38565,897.68939,76.15176,-144.87515,903.29498,27.55396,-102.89902,989.49506
190,1.575,-12.68101,-204.38565,897.68939,75.96259,-145.17044,903.21149,27.18711,-103.20434,989.70404
191,1.583,-12.68101,-204.38565,897.68939,75.96259,-145.17044,903.21149,26.44313,-102.46191,989.36737
192,1.592,-12.73487,-205.03983,897.79614,74.83131,-145.23819,903.2121,26.46185,-102.63837,989.16589
193,1.6,-13.17408,-205.54306,897.52094,74.74507,-145.30009,903.34668,25.66792,-102.98888,989.0257
194,1.608,-13.3402,-205.64745,897.86847,74.38549,-144.90482,903.23248,25.66792,-102.98888,989.0257
195,1.617,-13.17408,-205.54306,897.52094,73.98519,-144.99173,903.14337,25.46707,-103.07852,988.94092
196,1.625,-13.60195,-205.64528,897.98566,73.87515,-144.72079,903.09698,25.46707,-103.07852,988.94092
197,1.633,-14.46373,-205.04712,897.25317,73.98519,-144.99173,903.14337,24.82574,-103.31218,988.93036
