Frame#,Time,L.Forearm.x,L.Forearm.y,L.Forearm.z,L.Ulna.x,L.Ulna.y,L.Ulna.z,L.Radius.x,L.Radius.y,L.Radius.z
1,0,393.38297,466.98401,1291.98035,465.40601,449.3107,1245.68481,435.73605,407.61096,1308.82117
2,0.008,392.6044,467.89343,1292.03162,465.50735,449.10339,1246.59888,435.36453,408.03076,1308.97095
3,0.017,391.90781,466.50079,1291.7738,465.59741,449.10907,1247.55383,435.0087,407.89053,1309.08606
4,0.025,391.19998,465.95306,1292.1803,465.01599,448.4556,1248.38513,434.06039,408.12939,1309.0835
5,0.033,390.74887,465.6073,1292.57422,464.4556,447.45349,1249.6134,432.13043,403.57236,1309.95764
6,0.042,390.2728,462.93509,1293.77295,463.84268,446.91113,1251.00024,430.52289,403.22906,1308.83716
7,0.05,389.19385,460.32858,1293.85657,463.14319,446.46219,1252.21704,427.98807,398.18964,1308.81409
8,0.058,387.92151,459.68729,1294.38281,462.93283,446.20239,1253.20496,427.84488,395.19861,1305.67261
9,0.067,386.04257,456.98373,1293.61792,462.95969,445.52875,1253.96558,425.65445,391.97784,1302.3208
10,0.075,386.62906,451.91266,1292.53735,462.82254,445.16241,1254.17786,426.02328,390.23611,1301.25049
11,0.083,386.57111,451.9852,1291.41626,462.82254,445.16241,1254.17786,425.36472,386.1853,1298.75708
12,0.092,385.52432,449.91928,1289.23938,463.75244,445.32126,1254.05615,426.33093,382.55518,1291.65955
13,0.1,386.59982,449.26715,1286.81274,464.67426,445.90286,1253.27429,427.77325,381.7475,1290.34595
14,0.108,386.7977,447.08652,1285.28088,466.13727,444.76376,1250.68274,431.49493,379.90439,1286.99939
15,0.117,388.3183,448.30835,1284.50781,466.31006,444.93362,1248.96619,431.84961,382.20306,1287.49622
16,0.125,391.21069,448.4003,1283.64624,467.52417,443.75101,1246.82397,434.79321,383.53555,1288.84814
17,0.133,393.50793,449.88846,1283.62231,468.9863,442.29434,1244.56982,435.47864,384.86423,1290.92078
18,0.142,395.24469,449.25967,1283.39331,469.44867,442.16611,1242.62964,438.45013,390.27084,1294.93115
19,0.15,397.51242,452.62524,1284.47192,470.81644,443.76425,1241.55737,441.71906,394.51056,1298.54272
20,0.158,399.02823,454.5155,1285.46094,471.91956,445.5452,1240.55566,441.52167,397.03723,1300.67834
21,0.167,398.42529,455.51547,1285.66516,471.84726,446.44925,1240.00049,443.04053,398.27145,1302.78369
22,0.175,400.01724,458.11447,1287.1698,471.77139,446.41071,1239.57971,443.38776,403.29227,1303.59436
23,0.183,399.83932,460.66647,1287.94067,471.19296,446.27444,1239.20728,443.38776,403.29227,1303.59436
24,0.192,400.16071,461.50504,1287.90466,471.46295,446.25977,1240.22571,443.25446,403.35425,1303.95129
25,0.2,400.2048,463.43668,1287.81726,470.38895,445.095,1241.12158,442.71805,403.6377,1304.85168
26,0.208,399.35629,462.46536,1288.25598,470.8522,444.48267,1242.32959,442.47311,403.54742,1304.94141
27,0.217,397.63458,461.72794,1289.02405,470.84891,444.02704,1243.33667,440.16281,404.1767,1305.59827
28,0.225,397.51382,461.76382,1289.25159,470.41718,442.49261,1244.51196,439.23151,402.33405,1305.82458
29,0.233,397.05298,459.88474,1289.67993,469.69583,442.18652,1245.75281,436.66068,399.50757,1306.05872
30,0.242,396.2811,458.37607,1290.60486,470.19171,441.87943,1246.95422,435.13553,398.04205,1305.36694
31,0.25,395.03738,456.22144,1291.28015,470.18179,440.95273,1248.59302,432.92834,394.82361,1305.15515
32,0.258,394.75076,454.94012,1291.62439,468.6423,440.78552,1250.31738,431.871,393.30106,1303.17542
33,0.267,393.9447,453.78027,1291.47815,468.67273,440.76276,1250.84595,430.66202,387.6424,1300.35376
34,0.275,392.49179,450.78687,1290.81555,469.69122,441.58719,1252.01746,430.02386,387.86237,1300.08765
35,0.283,391.88361,449.19513,1290.04834,469.40884,441.74744,1252.38354,429.53534,383.8129,1297.49805
36,0.292,391.96796,448.22144,1287.49805,469.69342,441.65939,1252.25452,431.25717,382.9502,1293.34937
37,0.3,391.96906,448.0614,1286.7428,470.41785,441.77966,1251.39514,433.2807,381.37167,1291.79895
38,0.308,393.2489,447.59976,1285.41968,471.43814,441.47852,1249.83984,435.66995,382.41391,1291.63025
39,0.317,395.51733,446.36383,1284.48401,472.56158,440.53683,1247.71655,437.42499,382.65674,1290.52747
40,0.325,396.14722,446.52344,1283.92053,473.25647,440.70862,1246.38745,440.60843,381.37201,1291.1272
41,0.333,400.01086,447.59363,1284.27612,474.21729,441.24927,1245.03442,442.82397,388.4548,1295.31677
42,0.342,401.83292,449.74521,1285.55298,476.75937,442.56384,1243.48108,446.17987,392.52603,1299.12524
43,0.35,404.80289,449.97943,1286.53442,477.5065,443.50778,1241.79309,447.6366,392.02301,1299.74854
44,0.358,405.72983,451.88132,1287.98584,477.85416,443.80695,1241.35974,449.22998,398.06607,1303.90088
45,0.367,406.34073,456.09674,1289.18701,477.58664,444.40732,1240.66138,449.59659,399.52271,1303.78613
46,0.375,406.79166,458.24103,1289.29749,477.39456,444.57513,1240.12927,448.72244,401.12161,1304.03833
47,0.383,407.06644,460.7999,1289.78711,477.29709,444.70441,1240.36609,448.35098,401.01932,1304.13818
48,0.392,406.07962,462.50897,1291.06934,476.34915,445.6438,1241.23779,447.54892,401.44318,1303.47302
49,0.4,404.96652,463.71378,1291.45398,475.04578,446.07132,1242.24988,447.19699,401.81485,1303.896
50,0.408,403.96988,464.42554,1290.65466,475.37787,446.2688,1243.41931,445.05905,403.03375,1304.25256
51,0.417,402.26416,463.31644,1290.42493,475.20273,445.57764,1244.51965,443.67392,403.24432,1304.85132
52,0.425,401.45712,461.85822,1290.93384,474.73239,444.76056,1245.51965,441.76553,402.18457,1305.06799
53,0.433,400.25864,461.44211,1291.4823,474.10443,444.21457,1246.51489,440.73557,398.65762,1304.8269
54,0.442,399.12006,460.61023,1292.17712,473.21222,443.71039,1249.32922,439.80905,395.25192,1303.77295
55,0.45,397.11798,457.06204,1291.50146,473.15573,442.93158,1250.17822,437.0791,392.38361,1302.62842
56,0.458,396.64938,455.65982,1291.69324,472.40103,442.91501,1250.65234,435.54474,391.80911,1302.04187
57,0.467,395.8429,454.55325,1291.61511,471.60699,442.70663,1251.72498,435.29822,389.31644,1301.08423
58,0.475,396.25244,451.64188,1291.66223,472.06009,442.97781,1252.86499,433.30951,388.28015,1297.70227
59,0.483,395.21225,450.85965,1290.68689,471.89813,443.44397,1253.63647,433.63849,385.25684,1294.41882
60,0.492,395.29889,448.77994,1288.72888,472.90164,443.33533,1253.33484,435.02051,382.82367,1292.10034
61,0.5,395.26886,448.82129,1286.55811,473.32266,442.49283,1251.97852,435.79514,383.85782,1291.26392
62,0.508,395.66788,448.2449,1284.92554,474.30716,443.15247,1250.29749,437.94827,380.5155,1288.04834
63,0.517,396.67206,448.67923,1284.46033,476.20224,443.43851,1249.08765,441.4877,380.12277,1287.2428
64,0.525,400.16925,447.57162,1283.75085,478.37872,443.414,1246.57446,445.18985,383.58539,1291.52832
65,0.533,402.4534,450.11728,1284.74109,478.7778,443.32309,1245.07532,445.82312,388.74295,1295.67786
66,0.542,404.80505,450.50604,1285.8092,479.061,444.22595,1244.15491,447.79639,392.26666,1299.05066
67,0.55,407.02225,452.8244,1287.13135,479.6199,445.16519,1243.51123,450.08539,397.39264,1303.49536
68,0.558,408.00168,454.65665,1288.60742,479.56189,445.21231,1242.78894,451.08426,398.64581,1304.46228
69,0.567,408.448,459.02493,1288.9967,479.72293,445.68723,1242.35852,452.16437,400.17944,1305.17126
70,0.575,409.00558,459.60614,1289.1543,479.5661,445.75659,1242.29248,452.15118,402.84183,1305.86243
71,0.583,407.94217,461.07703,1289.82031,479.10663,445.46783,1242.45337,451.12982,404.12589,1305.96484
72,0.592,406.70154,463.27551,1291.26111,478.97308,445.43213,1242.49451,449.40002,405.22876,1306.44543
73,0.6,406.0571,464.42499,1290.93005,478.68616,445.16962,1243.18701,448.04974,405.23508,1306.64551
74,0.608,405.09961,464.53809,1291.27246,477.11566,444.67282,1244.49353,447.09723,405.62857,1307.18884
75,0.617,403.30042,464.32425,1291.84192,476.84985,444.38849,1244.95435,446.39944,403.53998,1307.1217
76,0.625,402.80246,463.34857,1290.00195,476.09857,443.78317,1245.42822,444.68289,402.80954,1307.12354
77,0.633,401.57541,461.76599,1289.71204,475.4361,443.25955,1245.93469,442.88116,402.51862,1307.20361
78,0.642,400.72394,459.44586,1290.62122,474.04541,442.487,1247.7594,440.8837,397.52399,1305.24792
79,0.65,399.03378,457.75635,1291.2196,473.94598,442.99417,1248.94922,439.05188,395.44763,1303.62122
80,0.658,397.92004,455.63715,1290.82751,473.41113,443.01404,1249.42371,437.42853,389.80972,1300.93665
81,0.667,396.48901,455.08405,1290.87598,473.15573,442.93158,1250.17822,435.93277,390.19278,1300.65173
82,0.675,395.70575,451.61136,1290.44995,472.72589,443.01184,1250.37476,434.11792,385.09589,1296.64709
83,0.683,394.21436,450.17944,1286.94458,472.56171,443.16431,1250.51733,434.67569,384.62204,1291.92517
84,0.692,394.61572,449.02466,1284.15991,472.92426,443.18176,1250.43921,434.48843,383.6694,1288.41833
85,0.7,395.24634,447.69897,1283.38892,474.21695,443.56216,1250.33215,436.77921,378.71146,1283.08032
86,0.708,395.80515,445.62302,1281.39746,475.25705,444.7244,1248.92029,437.5535,378.92523,1280.79907
87,0.717,396.42474,444.88315,1279.97461,476.44656,444.26007,1245.45422,441.39966,379.01413,1279.19861
88,0.725,398.7948,446.01923,1280.19714,476.38498,443.14548,1244.48511,442.58206,381.81564,1282.11133
89,0.733,400.11688,445.1994,1280.36169,477.56909,444.25015,1242.42151,446.00781,384.07065,1284.50635
90,0.742,402.52856,447.56537,1281.54321,478.47839,444.99475,1240.52258,446.74927,386.12973,1288.677
91,0.75,404.86523,449.20724,1282.26013,478.41391,445.94174,1239.73267,448.15274,392.34399,1292.92249
92,0.758,405.92642,451.53836,1283.84192,479.17432,447.47784,1238.96313,451.1713,396.37521,1296.8916
93,0.767,405.57608,457.55042,1284.8689,479.08325,447.65286,1238.46655,449.93842,400.02084,1300.08826
94,0.775,406.74979,459.50775,1287.35083,478.44601,448.48682,1238.21399,451.68765,404.20734,1302.89355
95,0.783,406.43765,461.78198,1287.97119,477.33878,447.92294,1238.13696,451.47821,404.34586,1303.58569
96,0.792,405.56488,464.2666,1288.71631,475.41714,447.87253,1239.02087,449.5459,406.97403,1304.62402
97,0.8,404.53943,466.70566,1289.52222,474.85083,446.98013,1240.0636,448.14148,408.66846,1305.20825
98,0.808,404.18369,466.79428,1289.83386,473.97623,446.76364,1241.14844,447.48111,407.99594,1306.16797
99,0.817,402.69092,466.20071,1290.88354,473.64966,445.52631,1242.45618,446.58698,407.65079,1306.58472
100,0.825,401.68506,466.02835,1291.37878,471.90176,444.94708,1243.86499,443.26483,406.12061,1307.43396
101,0.833,399.336,463.9743,1290.5304,471.3855,443.71112,1244.77063,442.63571,404.94189,1308.37903
102,0.842,398.6622,461.83279,1291.6283,470.08099,442.39252,1246.02795,439.82864,403.28662,1308.69226
103,0.85,396.80716,459.82605,1291.91589,469.93054,442.77469,1247.35217,438.38156,400.57651,1308.87378
104,0.858,394.99588,458.44202,1291.75146,468.7319,442.08438,1249.63232,434.82108,398.53619,1309.16577
105,0.867,393.948,455.56506,1292.08972,467.78445,441.61209,1250.44873,432.521,396.06186,1308.35876
106,0.875,391.58405,453.97375,1291.71179,467.2626,441.35919,1251.32312,431.88181,393.93881,1304.64307
107,0.883,389.46436,453.28003,1291.66675,467.10284,442.30988,1251.52625,428.66483,389.76703,1301.20923
108,0.892,387.71454,450.96686,1288.28369,467.11661,443.82697,1252.34473,429.49985,387.9368,1300.14319
109,0.9,387.22855,451.21719,1286.72144,466.96375,444.65259,1252.36755,427.27066,386.57449,1295.86157
110,0.908,386.40924,447.97604,1284.25,467.82846,445.4277,1251.95984,430.88379,380.49509,1289.87354
111,0.917,387.75842,446.55896,1282.8407,468.62173,444.45978,1250.22058,430.62939,380.10724,1286.15247
112,0.925,389.06326,445.28259,1281.047,469.50073,443.62094,1247.40552,431.87842,380.82687,1283.0282
113,0.933,390.85876,446.03302,1279.21338,470.80664,443.2363,1245.89233,436.31561,378.72629,1280.47107
114,0.942,391.71893,445.89374,1279.35388,473.01117,444.20276,1244.1698,437.45105,382.67963,1283.34692
115,0.95,395.85306,445.65756,1279.03687,474.78574,444.62006,1242.48291,441.34451,380.20728,1285.02869
116,0.958,398.29309,446.67047,1281.13208,475.09821,444.78961,1240.36389,442.25632,385.74509,1289.59937
117,0.967,400.68436,448.91727,1282.4552,475.39246,444.74216,1239.09204,445.42862,391.08731,1293.58057
118,0.975,401.86926,451.98248,1283.26697,475.15674,445.58969,1239.01331,444.41382,395.16705,1297.39294
119,0.983,402.01151,456.01804,1285.22913,474.9006,445.9162,1238.38245,445.40244,397.82956,1300.24585
120,0.992,402.64206,458.04562,1286.62598,474.90634,445.82071,1238.47998,445.69733,400.49188,1302.37183
121,1,402.81146,459.64352,1287.00183,474.65646,445.38208,1238.73169,443.95459,403.34564,1303.54504
122,1.008,401.05637,461.4166,1287.85925,473.33792,444.29379,1240.59985,443.05893,403.32214,1304.16479
123,1.017,400.2804,462.22128,1289.2655,471.61188,443.02481,1241.40894,442.34583,403.75101,1305.75122
124,1.025,398.52435,462.35663,1288.80151,470.65948,441.91235,1242.86365,439.93375,403.27496,1306.58496
125,1.033,397.52219,461.71701,1289.02747,469.99731,441.36371,1244.82056,438.40491,402.49377,1307.3761
126,1.042,395.87341,459.8494,1289.94543,468.76563,440.81448,1246.00415,435.52765,400.08072,1308.73816
127,1.05,394.27524,458.43677,1290.22925,466.55008,439.45499,1248.78821,434.23178,398.00967,1309.58813
128,1.058,391.80237,457.37817,1291.07739,465.86914,439.5817,1250.23608,430.39697,396.65973,1309.60779
129,1.067,390.36932,453.82718,1291.55518,465.12338,439.31833,1251.66113,429.73581,395.74771,1309.78125
130,1.075,387.89856,453.1539,1291.84888,463.84647,439.41086,1253.1051,427.27615,391.75534,1309.00769
131,1.083,386.34018,450.22455,1289.65027,463.37634,439.71466,1253.75134,426.33798,390.30591,1306.979
132,1.092,384.81091,450.50818,1289.22021,463.22653,440.0025,1254.11719,424.70782,389.90335,1305.67639
133,1.1,384.13477,449.32431,1287.43945,463.40677,440.72284,1254.19263,423.52499,391.19061,1303.24463
134,1.108,382.92526,448.36047,1286.69128,463.26501,440.60983,1253.86768,425.1011,384.4632,1298.57556
135,1.117,383.42136,447.56149,1284.28784,463.80469,442.26678,1251.67505,425.34213,384.73096,1297.77319
136,1.125,383.60718,446.64532,1283.19019,465.22699,441.83472,1250.18018,429.19867,379.18335,1289.86218
137,1.133,386.17575,445.84821,1282.8595,465.41571,441.01666,1247.75745,431.09723,381.15237,1289.90393
138,1.142,387.81934,445.88306,1282.099,467.72339,442.31219,1245.6283,432.38913,384.89279,1290.6106
139,1.15,390.57568,447.87643,1282.27515,467.72955,441.5372,1245.02832,434.88971,384.97989,1291.32385
140,1.158,392.42615,449.58109,1282.80396,468.44217,442.91232,1242.98022,437.49872,390.50574,1294.76758
141,1.167,394.90848,449.34338,1283.43689,469.49841,444.2449,1241.24573,439.38446,391.67035,1297.13
142,1.175,397.1814,452.35217,1284.74304,469.5705,445.44101,1240.50317,442.93527,397.16003,1299.57471
143,1.183,398.02145,454.54669,1285.78284,469.66144,447.18594,1239.50574,441.83835,395.37677,1298.04407
144,1.192,398.06625,455.91852,1286.98743,469.63748,446.31088,1238.90979,441.41873,396.65912,1299.91956
145,1.2,397.32678,457.82663,1287.87427,469.25476,445.92899,1239.2262,439.66333,394.41684,1300.68872
146,1.208,396.97467,460.0264,1288.60474,468.33191,444.11987,1240.19324,437.54901,398.64908,1301.30432
147,1.217,396.83063,460.11432,1288.74988,467.61624,443.62695,1240.62146,437.13367,397.75494,1300.92493
148,1.225,395.59772,459.59686,1289.53015,466.48151,441.91422,1241.66895,436.19025,397.54831,1305.21619
149,1.233,394.44952,458.82959,1289.79004,464.88651,440.27484,1242.54028,432.45233,396.96686,1303.79492
150,1.242,393.43805,457.80692,1291.35266,464.0592,439.26547,1243.72803,431.60791,396.32913,1304.36987
151,1.25,391.28363,455.00168,1291.33411,462.54947,437.74484,1244.73315,428.50397,394.97266,1304.80884
152,1.258,389.39502,453.20053,1291.76062,460.39319,436.74158,1246.52087,426.77243,390.01184,1301.47205
153,1.267,387.62082,452.60587,1292.1792,459.30994,435.7507,1247.56689,424.64157,389.22479,1302.39709
154,1.275,385.22311,451.86957,1291.80261,458.30731,435.78546,1248.54077,421.09628,388.05057,1302.80957
155,1.283,383.45535,449.81003,1290.98889,458.11237,436.0954,1249.39685,419.38818,387.4039,1302.51111
156,1.292,381.77097,449.67801,1290.30286,457.00073,437.26196,1250.15845,418.93015,387.48257,1302.52734
157,1.3,380.27945,448.66354,1287.94958,456.77823,437.93213,1250.22021,418.33368,388.08902,1301.13623
158,1.308,379.16995,448.25681,1287.19812,456.63797,438.19223,1250.20178,419.18674,386.34903,1299.82153
159,1.317,378.76941,448.32388,1286.58813,457.52252,438.4035,1249.27893,419.98804,385.54352,1298.7229
160,1.325,378.70496,447.8031,1283.26917,457.98492,438.66595,1248.45801,420.90103,382.99902,1294.54578
161,1.333,379.01422,447.24503,1282.49805,458.55359,439.47174,1246.41113,422.51105,383.81281,1294.04382
162,1.342,381.32315,448.0791,1282.38452,460.42026,439.34784,1244.18933,425.14694,385.2735,1292.95459
163,1.35,383.24515,450.11664,1282.74243,461.95651,440.1265,1242.88818,427.79962,387.32532,1294.23279
164,1.358,385.70502,449.11826,1282.86047,462.25595,440.74951,1242.41724,430.54886,387.95807,1294.80054
165,1.367,389.15506,450.29837,1283.16528,462.82129,442.29245,1241.25793,433.06366,394.82657,1300.65857
166,1.375,390.61072,453.34918,1285.56885,463.07159,444.23611,1240.80273,434.13422,395.73523,1300.59741
167,1.383,391.24323,455.25516,1285.92944,463.27286,444.99796,1240.57751,434.74063,397.63568,1300.81848
168,1.392,391.61606,456.99588,1286.52319,462.50668,445.59698,1239.74658,436.07028,400.20493,1303.19836
169,1.4,391.2341,458.1853,1288.36243,462.0256,445.15033,1239.41626,433.07758,400.51352,1303.51563
170,1.408,390.77399,459.44296,1289.41724,461.45255,445.05646,1239.7511,432.18192,400.13269,1302.9613
171,1.417,388.93469,460.20117,1290.12073,460.51175,444.06531,1240.30652,431.33533,399.24353,1303.37866
172,1.425,388.4386,460.85913,1289.26025,459.27866,442.52441,1240.54993,429.04443,398.83133,1303.21179
173,1.433,387.44781,461.06204,1289.99255,458.72867,440.71921,1241.60486,427.84381,398.48376,1304.18335
174,1.442,386.32635,459.66522,1290.75073,457.75873,438.96228,1243.64172,425.64096,398.24188,1304.6554
175,1.45,384.82651,457.67291,1291.5271,456.24405,438.86835,1245.19568,422.56964,395.31989,1304.67273
176,1.458,383.50082,456.25479,1293.34216,454.80185,437.73645,1246.85596,419.86902,395.67874,1304.95984
177,1.467,381.86423,454.15714,1292.79468,453.92197,437.81229,1248.8009,418.48904,389.53824,1303.77893
178,1.475,380.80258,451.78192,1292.87744,453.18127,436.18347,1250.53162,416.60452,388.90649,1303.53491
179,1.483,378.09778,450.91446,1293.3103,453.02383,436.93118,1252.7804,415.90454,386.66513,1304.08752
180,1.492,377.52451,449.62573,1292.39697,452.95166,437.29425,1253.58594,415.38101,386.74149,1304.14441
181,1.5,376.39532,449.02579,1291.63403,452.24222,438.36542,1254.349,415.38101,386.74149,1304.14441
182,1.508,374.90683,447.73276,1290.24915,452.96536,440.74918,1254.58533,414.2399,384.16177,1300.75525
183,1.517,373.86017,447.41852,1287.70044,453.1904,441.43909,1254.3075,415.06842,386.35724,1299.31885
184,1.525,374.45483,447.81949,1286.823,453.73428,442.63898,1252.95557,416.21292,385.84967,1296.74902
185,1.533,374.61261,448.29449,1286.02881,454.30637,442.56543,1250.84839,418.62674,387.35733,1297.32483
186,1.542,375.96936,448.30469,1285.55579,455.61853,442.01187,1249.24719,420.57306,384.66898,1294.07202
187,1.55,377.30994,449.87799,1285.46448,456.77704,443.00806,1247.78955,423.2753,386.92007,1294.14929
188,1.558,379.93896,450.66724,1286.41443,458.06534,444.13123,1247.04114,425.32568,389.98132,1298.11096
189,1.567,381.72943,450.41107,1286.48499,459.06528,445.98557,1246.27405,428.56488,390.52899,1300.30469
190,1.575,384.88107,451.89163,1286.88086,460.32428,446.68149,1245.84778,429.55215,393.63126,1302.49463
191,1.583,385.65842,453.20065,1288.50366,460.28271,447.24878,1245.39258,430.73215,397.24588,1303.70483
192,1.592,385.81335,456.63837,1289.60852,459.56754,448.35953,1245.93262,431.20926,402.97861,1307.95398
193,1.6,385.73669,458.91806,1291.57495,458.45667,448.88458,1246.3075,430.07883,403.23987,1308.02332
194,1.608,385.03336,460.42032,1292.79028,458.34033,449.38559,1246.68481,428.37363,403.41953,1308.16736
195,1.617,383.9588,461.70978,1293.44666,457.73398,449.1969,1247.60278,425.83527,401.06747,1307.76013
196,1.625,381.76447,463.57291,1293.71704,456.17236,448.48636,1249.06897,423.57224,404.32239,1308.29761
