Frame#,Time,L.Forearm.x,L.Forearm.y,L.Forearm.z,L.Ulna.x,L.Ulna.y,L.Ulna.z,L.Radius.x,L.Radius.y,L.Radius.z
1,0,144.86485,378.07919,681.21967,169.18994,405.55334,598.50458,210.6293,353.12762,643.10968
2,0.008,144.45734,378.43011,681.64313,168.89326,406.53683,599.70685,210.3866,354.87158,645.26367
3,0.017,144.02762,378.81305,682.47778,168.91638,406.78043,599.49915,209.16066,352.12259,645.07465
4,0.025,143.97906,379.46164,682.62708,168.5005,406.84601,599.51892,208.72136,354.73914,646.10828
5,0.033,144.59464,383.56696,682.74017,167.11572,405.98898,599.04443,209.98122,358.19714,647.55682
6,0.042,144.43358,385.6434,683.63086,166.60211,406.26395,598.54456,210.33742,360.62595,647.94849
7,0.05,144.31639,387.60382,683.53241,167.11641,406.48743,597.13525,210.07986,363.08035,647.81445
8,0.058,143.80685,389.63876,682.82013,165.00967,406.65796,596.61139,210.64557,367.19016,647.8819
9,0.067,144.37128,392.24969,682.26282,164.04893,406.63013,594.92682,210.32933,370.13263,647.25525
10,0.075,143.7271,395.09399,679.85748,162.42931,407.1221,592.96765,211.23238,370.89703,645.09393
11,0.083,143.84195,397.608,678.99249,162.28719,406.38129,591.01489,210.30469,373.34497,643.32172
12,0.092,143.31094,398.66971,678.08685,161.17628,406.23941,589.63702,210.21609,375.8194,642.94855
13,0.1,142.39284,401.08649,676.12634,158.6552,405.8779,586.04791,210.42154,377.9071,641.75635
14,0.108,141.36432,402.27652,674.2135,157.49719,405.66782,585.48114,209.84619,379.55719,640.93121
15,0.117,140.35074,402.62085,673.09418,156.94475,405.04251,584.24841,209.56422,380.64975,640.13092
16,0.125,139.81514,403.16446,672.3645,156.50824,404.03644,582.79291,208.48848,380.27078,638.94855
17,0.133,138.73592,403.33911,671.9776,155.56255,403.52899,582.43994,207.57983,378.35791,638.64313
18,0.142,138.19821,403.21545,672.03943,155.28577,403.22049,582.42297,207.6747,376.64447,639.33698
19,0.15,137.68813,402.01056,672.12256,155.88722,402.55756,583.04553,207.18919,374.69354,639.71649
20,0.158,137.27818,401.44351,673.17816,156.30588,403.35495,583.82483,207.2872,373.47156,640.22815
21,0.167,137.03331,399.04214,673.66223,156.88835,403.55469,584.49786,206.21771,371.32013,639.63672
22,0.175,137.18423,397.03891,674.25806,157.15182,405.62079,585.45673,205.41194,368.97507,639.83734
23,0.183,137.35135,395.10931,675.88562,157.59474,406.51785,586.82922,205.34419,368.27823,640.37335
24,0.192,137.91399,394.43619,676.59454,158.28381,407.07281,588.31177,205.48175,367.83124,641.00952
25,0.2,138.31941,393.22803,677.51422,158.76096,407.9339,589.77435,205.24249,368.04727,641.84314
26,0.208,139.08124,392.06985,677.80365,159.175,408.67795,590.92242,206.13661,366.73767,642.52106
27,0.217,139.88898,393.11307,678.91876,160.90245,410.41602,592.25354,206.39996,366.94901,643.03052
28,0.225,140.39084,393.22977,678.81702,160.86046,410.77051,592.62469,207.48238,366.75262,643.82318
29,0.233,140.61324,393.92615,679.54858,162.71194,410.71103,593.51331,207.78699,367.1893,643.84027
30,0.242,141.95,395.09073,681.01746,162.66898,410.86011,593.83179,207.98949,368.08655,644.40533
31,0.25,142.116,395.79068,682.16504,162.91118,412.04651,595.00641,209.0844,369.58054,644.66278
32,0.258,142.79631,395.52423,682.05774,163.13173,411.76578,594.99567,210.02513,369.57712,645.31091
33,0.267,143.47093,395.94327,682.38489,163.13173,411.76578,594.99567,210.11331,369.47656,645.17261
34,0.275,144.42799,396.28296,681.30151,163.21907,411.53098,594.80957,211.15083,370.52615,645.14038
35,0.283,144.77885,396.41934,680.73071,163.08948,410.36136,593.38196,211.28633,370.93167,644.79468
36,0.292,145.3761,396.73129,680.00739,163.61804,410.297,593.10211,211.42155,372.03656,644.31525
37,0.3,145.67056,397.0535,679.31158,163.74355,409.50058,592.7525,211.34642,372.30469,643.56311
38,0.308,145.77477,397.08566,679.25677,163.82983,409.78058,592.29144,211.1405,372.96255,643.05554
39,0.317,145.42731,397.41782,678.99792,163.36545,410.33154,591.97302,211.31085,373.97623,642.78223
40,0.325,145.42946,397.42819,678.82764,163.42131,410.44019,591.87415,211.16351,374.00989,642.76184
41,0.333,145.12978,397.08997,678.45392,162.92824,409.72153,591.31445,211.05751,373.5054,642.63367
42,0.342,145.10719,397.10938,678.26404,162.6958,408.55429,590.74689,211.12439,373.2092,642.33746
43,0.35,144.97569,397.19962,678.37262,162.65627,407.15298,590.57025,210.99615,371.16299,642.19501
44,0.358,144.77975,397.00909,678.36884,162.78288,407.07623,590.63116,211.00764,370.923,642.34003
45,0.367,144.06343,396.52405,678.10156,162.43648,406.80301,590.27057,210.71677,369.61057,642.52545
46,0.375,142.78795,395.1817,678.1134,162.4185,406.69839,590.63696,209.84769,366.26181,642.13184
47,0.383,142.45723,394.01123,677.79327,162.45796,406.61075,590.71887,209.70787,363.89963,642.3158
48,0.392,142.31204,392.26694,678.30713,162.70154,406.56616,590.86865,209.57968,361.68085,641.55804
49,0.4,142.09875,391.12338,678.48077,162.52937,406.34729,590.87756,209.21422,361.04291,641.69
50,0.408,141.79071,389.2962,678.86542,162.66992,406.07449,590.99731,208.4104,358.00323,640.64874
51,0.417,142.71942,389.05453,679.02789,162.53354,405.94336,591.13947,207.62959,356.69376,639.43817
52,0.425,142.62154,386.75931,678.62524,162.84132,405.32843,591.79327,207.6671,355.86862,639.75812
53,0.433,142.77084,386.08383,679.14227,163.02698,404.28522,592.02832,207.61031,354.81348,638.95502
54,0.442,142.27414,384.28134,678.4765,163.01422,404.16843,592.14471,207.57832,356.48007,639.58704
55,0.45,142.12338,383.14795,678.6286,164.25661,403.85968,592.95233,207.43935,354.95621,640.89624
56,0.458,142.28137,382.37042,679.10437,164.45348,403.55319,593.74872,207.44609,354.3938,641.58459
57,0.467,142.46056,379.77588,679.69867,164.90112,403.49652,594.53949,207.05498,353.06982,641.771
58,0.475,142.2552,379.84659,680.22955,164.94919,403.07797,595.09552,206.96265,352.79321,642.82294
59,0.483,142.17221,379.91101,680.61212,165.52551,402.48071,595.73438,206.90236,352.1051,643.67322
60,0.492,142.21771,379.66214,680.85242,166.27046,402.45618,596.53931,206.81499,351.2966,643.28632
61,0.5,142.31136,378.99338,681.31665,166.51418,402.41205,596.68933,208.00932,352.12411,643.39087
62,0.508,142.38145,379.24255,681.25464,166.3331,402.21884,596.78052,208.34891,353.59647,643.70691
63,0.517,142.2778,379.84854,680.79773,165.84763,401.57553,596.35596,208.78131,355.62296,643.56042
64,0.525,143.04416,380.95547,680.8465,165.7959,401.67508,595.72943,208.65669,355.50238,644.38495
65,0.533,143.6812,383.60229,681.38251,164.78618,400.63736,594.96985,209.28954,357.21323,644.30103
66,0.542,144.38809,384.61475,681.00098,164.71146,400.63934,594.33044,209.53618,358.12073,644.31927
67,0.55,144.90663,385.04391,681.01428,164.49063,400.15579,594.05322,209.99005,359.20062,644.6731
68,0.558,145.07835,385.89545,679.82672,165.03198,399.8515,592.42169,209.99199,359.46124,644.2738
69,0.567,144.86607,386.33304,679.81427,164.83012,399.965,591.91583,210.09052,359.68085,644.15546
70,0.575,144.34885,387.16019,679.61426,164.19951,400.33185,591.20203,210.36679,359.64236,644.07672
71,0.583,144.8111,387.79892,679.6073,164.19951,400.33185,591.20203,211.14511,358.82913,643.47589
72,0.592,144.39026,388.00192,679.44177,164.03929,400.34915,590.82477,210.80673,359.22177,643.75098
73,0.6,143.92378,389.02136,679.53876,164.11061,400.42337,590.74323,210.70746,358.64438,643.54242
74,0.608,144.39206,388.02652,679.62445,164.23732,400.60928,590.93884,210.58211,358.28198,643.49493
75,0.617,143.95271,387.59958,679.3382,164.58409,400.3519,591.23145,210.15961,357.67538,643.20813
76,0.625,144.22894,387.12213,679.47931,165.05634,400.27713,591.38538,209.8891,357.38748,643.36279
77,0.633,144.77965,386.31476,679.41974,165.83559,401.16498,591.50378,209.3737,356.4025,643.28986
78,0.642,144.58679,386.12738,679.58368,165.83269,401.58954,591.95856,209.52835,355.29361,642.67267
79,0.65,144.71095,385.33069,680.18182,165.73485,401.83969,592.59515,209.47279,354.93686,641.76263
80,0.658,144.36784,384.53369,680.19336,165.76495,401.68723,593.17737,209.52655,355.2092,641.56622
81,0.667,142.92415,383.34067,679.48187,165.6082,401.69785,593.185,209.18631,354.65158,641.37848
82,0.675,143.41046,381.16565,679.23163,165.15199,401.88901,593.57227,209.09761,353.36502,640.92444
83,0.683,143.01428,379.8877,678.98474,165.15199,401.88901,593.57227,207.88594,352.11441,641.27502
84,0.692,142.33109,379.9155,678.97784,165.15199,401.88901,593.57227,207.22105,351.73413,641.29523
85,0.7,142.01544,379.60663,679.1134,164.14574,402.99637,594.31592,207.06113,352.61215,641.54108
86,0.708,142.0081,379.71039,679.39386,164.45091,403.42065,594.66644,207.00853,353.28442,641.90759
87,0.717,142.0081,379.71039,679.39386,163.84753,403.78198,594.83252,206.61859,353.97565,642.22363
88,0.725,141.72029,380.45551,679.86353,163.27829,403.05783,594.82965,206.11417,354.35794,642.71631
89,0.733,140.96291,381.30112,679.84137,163.284,403.22681,594.69214,207.79271,356.94626,642.12885
90,0.742,140.99176,382.23416,680.37152,163.1178,403.12866,594.41473,206.79451,355.75775,642.6792
91,0.75,140.73947,383.37955,680.86157,162.80478,403.18265,594.30396,206.94733,357.51331,643.50165
92,0.758,141.53984,385.51645,680.56171,162.5618,403.88385,593.6355,207.83299,359.06573,643.38489
93,0.767,141.4897,386.89917,679.8996,161.76631,402.88834,592.87885,208.50949,361.12976,643.51355
94,0.775,141.88597,387.54001,679.87427,161.05443,402.60971,591.90662,208.52638,362.47266,643.33398
95,0.783,141.63821,388.70218,679.36163,161.09213,402.69781,591.81549,208.59361,363.57422,643.02869
96,0.792,141.69965,389.84753,678.96295,160.37834,401.73572,590.7207,208.74979,364.8342,642.56036
97,0.8,141.99887,391.57349,678.51453,160.59512,401.64478,590.276,209.44406,367.73962,642.68982
98,0.808,142.45702,392.66187,677.69128,160.2538,402.38342,588.89337,209.76244,369.96149,642.0943
99,0.817,142.53589,393.48688,676.65302,159.58665,402.50934,587.62476,209.92874,370.62119,641.836
100,0.825,142.09676,395.285,676.66559,159.58665,402.50934,587.62476,210.07596,370.94644,641.81921
101,0.833,141.9801,396.43127,676.53754,159.60938,401.93881,587.64441,210.09831,369.76837,641.85541
102,0.842,141.72504,396.66794,676.68115,160.00174,402.56564,587.15771,209.32913,370.09418,642.23486
103,0.85,141.7726,396.73926,676.68738,160.40402,403.49463,587.77075,209.02927,368.40961,642.56775
104,0.858,141.25351,396.47607,677.2207,160.63144,404.73685,589.39923,208.38548,366.76343,643.01294
105,0.867,140.47699,395.09241,678.07263,161.76482,405.94141,590.59827,208.3997,364.93015,642.97968
106,0.875,140.08472,394.2439,678.41394,162.45937,406.60019,591.00592,208.33771,364.06598,642.95667
107,0.883,140.60892,392.8219,679.33643,163.12672,407.42422,592.40723,207.50905,362.09894,643.57483
108,0.892,139.6308,392.15552,680.21051,162.61899,407.6398,593.11102,207.12427,361.53088,643.64764
109,0.9,139.67072,390.64783,680.39874,162.47729,407.85797,593.92969,205.42241,359.48816,643.37238
110,0.908,140.03833,389.33636,680.54248,162.01257,408.28583,594.43646,204.72794,358.14987,642.52411
111,0.917,139.23993,388.20917,680.78687,162.25362,408.28259,594.80768,204.49394,358.29004,643.05872
112,0.925,139.23993,388.20917,680.78687,162.44156,409.11124,594.81702,204.49394,358.29004,643.05872
113,0.933,139.23993,388.20917,680.78687,162.52414,409.51437,594.90833,206.58928,363.9982,644.40887
114,0.942,139.23993,388.20917,680.78687,162.2928,409.73441,595.41888,206.12105,364.46695,644.91602
115,0.95,138.98422,387.91623,680.61353,161.74187,408.91055,594.69843,204.21034,358.97763,642.8576
116,0.958,139.2439,388.28989,680.42151,161.55554,409.40109,594.8678,203.68529,360.75916,643.49103
117,0.967,139.43164,388.54492,680.03595,161.33812,409.40024,594.6322,203.69186,360.95084,643.41833
118,0.975,138.59218,390.29117,679.19543,161.57991,409.36731,594.45935,204.15616,365.5452,643.84802
119,0.983,138.74971,391.67944,679.47449,160.84441,409.8205,593.39661,204.27301,366.52637,643.35175
120,0.992,138.98737,394.38968,679.40186,159.8131,410.32224,592.82019,204.46088,368.69507,643.53058
121,1,138.65607,395.89273,678.46967,158.78044,410.88885,592.00397,206.21172,371.76627,642.46625
122,1.008,139.05952,397.60651,677.474,157.68582,410.92697,590.39783,205.94377,373.17947,641.17419
123,1.017,138.78836,400.42773,676.63483,157.3909,410.18301,588.76416,205.40425,375.58099,642.03766
124,1.025,138.59334,401.77148,675.20435,157.00565,409.12982,585.9566,205.62186,377.14819,641.57269
125,1.033,138.51822,402.88834,673.48383,157.27385,408.1622,585.4649,205.9144,379.40247,640.87201
126,1.042,138.40417,403.3017,672.78876,157.34123,408.57449,584.42499,205.98212,381.00967,640.40161
127,1.05,137.71202,404.72037,672.04266,156.49361,407.56204,583.26843,205.92252,380.86465,639.81519
128,1.058,137.35989,405.54108,671.79138,156.38783,407.37625,582.93878,205.29158,379.68121,639.60229
129,1.067,137.35989,405.54108,671.79138,157.04703,407.1087,583.10492,205.83569,379.03717,639.73975
130,1.075,137.47441,404.37991,671.72003,157.53354,407.54532,583.86987,206.5235,377.46805,641.12402
131,1.083,137.84518,403.44339,672.70636,158.11145,407.20599,583.92413,206.72539,375.46066,641.47412
132,1.092,137.67957,402.74228,673.1875,157.82211,406.729,585.19513,207.32047,373.91788,641.24213
133,1.1,137.43799,401.37454,673.98785,158.37883,406.62964,585.45581,206.51105,372.15408,641.31067
134,1.108,138.24324,398.77191,675.14465,160.51221,406.87274,586.7428,206.18575,367.30176,642.40027
135,1.117,139.02921,396.76215,676.34076,161.48921,406.90033,587.94305,206.61371,365.56351,642.31512
136,1.125,138.6198,394.13272,676.35077,161.92699,406.46127,589.10016,206.63506,362.50366,641.22882
137,1.133,139.74536,392.37622,677.17365,162.45796,406.61075,590.71887,205.74234,359.31415,640.78979
138,1.142,140.00371,390.00443,678.00507,163.36275,406.74454,591.11816,205.30182,355.1463,639.85535
139,1.15,141.59639,387.88687,679.07788,164.21434,406.42633,591.45697,206.72502,355.31683,639.36676
140,1.158,141.60324,385.67682,678.0907,166.16418,406.88696,592.52039,206.76743,355.05737,639.45544
141,1.167,142.27414,384.28134,678.4765,165.64088,404.80255,593.65961,208.90207,357.81586,640.76849
142,1.175,141.96085,382.27768,678.53113,165.83713,406.31293,595.61426,208.92523,357.27728,642.88171
143,1.183,143.41046,381.16565,679.23163,165.98691,406.99719,596.83734,209.27193,357.31122,643.97095
144,1.192,143.58432,381.5007,679.29614,166.91209,406.30197,596.57648,208.60831,355.82144,642.83044
145,1.2,144.20486,382.66763,679.74463,166.95969,406.22418,596.64795,208.62555,357.15765,643.13831
146,1.208,144.74161,383.55579,679.98962,167.27116,406.17926,596.50763,209.63414,359.61993,644.12872
147,1.217,145.46095,385.33698,680.46265,167.30984,406.17786,596.27258,210.29456,360.48801,644.71381
148,1.225,145.54381,386.69791,680.30896,167.21439,405.35574,595.32642,212.05847,361.88589,644.88153
149,1.233,145.55435,387.55884,679.88904,167.58334,404.06363,593.80615,212.72784,363.79636,645.13031
150,1.242,146.21796,390.91168,679.5365,167.0616,404.75031,592.79303,213.42622,366.88623,644.88019
151,1.25,146.6317,392.61707,678.2915,166.98038,405.23654,591.74664,214.06662,367.63547,644.08209
152,1.258,146.84807,394.43796,677.74115,166.20331,405.68469,590.61755,213.88257,369.23175,643.6438
153,1.267,146.18921,395.8941,677.08264,166.47772,404.75616,588.98022,213.60133,371.49008,643.20502
154,1.275,146.123,397.45905,676.04144,165.37085,403.88855,587.48712,214.37881,375.71967,642.3681
155,1.283,146.27074,399.01456,674.2428,164.48476,404.32608,586.41925,214.17061,375.87607,641.89832
156,1.292,145.57655,400.50842,673.66425,164.2795,404.07245,585.43323,214.25186,376.24771,641.85205
157,1.3,145.23778,401.29202,673.32678,162.96432,402.89377,584.85852,214.09743,375.48383,641.73151
158,1.308,144.29529,402.46115,673.32172,162.23116,403.44418,584.52649,212.90282,374.2576,641.35962
159,1.317,143.51921,401.71332,673.2356,162.37526,403.90866,584.71265,211.96022,371.63339,640.95044
160,1.325,142.6813,400.82709,672.97949,162.67819,403.81244,585.51831,211.09016,370.76154,641.52118
161,1.333,142.26711,399.26959,673.97888,162.85191,403.80975,586.63074,210.60609,367.93829,641.16376
162,1.342,142.10081,396.72192,674.79236,162.96437,404.26419,587.23553,209.63814,364.46185,641.3385
163,1.35,142.19075,395.37595,675.58527,163.03377,404.47443,587.35889,208.77757,362.29391,640.66144
164,1.358,141.72523,392.93625,676.57843,163.4894,404.09308,588.66064,208.12111,358.89786,639.92285
165,1.367,140.93724,391.27625,676.73816,163.12973,404.8143,589.68811,206.79092,354.86749,639.38751
166,1.375,141.3353,388.29462,678.0603,163.42435,406.14819,590.83447,207.12527,356.13605,639.70917
167,1.383,142.55031,387.64139,678.90533,163.23166,405.81363,591.64124,206.70987,356.12238,639.82697
168,1.392,141.36636,384.83615,678.30469,164.57536,406.28738,592.98358,206.58987,356.13263,641.20276
169,1.4,141.49455,384.35861,678.61932,164.19885,406.61243,594.49701,206.83461,356.75671,641.69897
170,1.408,141.43915,384.28265,678.69501,164.93518,406.61972,595.64417,206.14957,358.00769,643.61652
171,1.417,141.38675,384.81036,679.10156,165.1433,406.54153,595.95886,209.41455,362.62283,644.83221
172,1.425,142.71053,387.22729,681.02783,165.35783,406.81927,596.10071,208.10515,360.37946,644.14093
173,1.433,143.2489,387.56482,681.27856,165.3192,406.82068,596.33569,208.24377,361.36768,644.40753
174,1.442,143.5509,389.58066,681.74915,165.36064,406.90149,596.01941,209.05185,364.86722,645.94092
175,1.45,143.80325,391.20477,681.92493,165.88251,407.71689,595.48065,209.67285,366.41513,646.11847
176,1.458,144.57948,393.36591,681.57745,165.48248,407.31439,594.52087,210.62941,369.97977,646.64081
177,1.467,144.75996,395.2843,680.70825,165.40553,407.11169,592.83838,211.20628,370.43777,645.89331
178,1.475,144.81683,396.15091,678.78137,164.75604,407.20126,592.03949,211.60089,370.8569,645.12152
179,1.483,144.7477,397.67273,679.13208,164.74402,407.02319,591.41443,212.28609,372.84995,644.58923
180,1.492,144.72208,398.29398,678.89294,164.37802,406.6893,590.78937,212.46489,374.55215,643.94305
181,1.5,145.22583,398.24548,677.45984,163.54994,407.20865,589.42236,212.73187,375.98294,643.46722
182,1.508,145.05959,400.39426,677.04712,163.00966,407.23923,589.19641,212.51843,376.13687,643.38922
183,1.517,143.72104,401.80701,677.4519,162.43637,406.73593,588.02075,211.79915,375.56818,643.46564
184,1.525,143.71948,401.41467,675.84515,162.28528,406.68707,588.08594,210.94888,373.56854,643.00891
185,1.533,142.33398,401.7511,676.95367,162.04329,406.71948,588.25909,210.63724,371.84714,643.68976
186,1.542,142.08636,399.61298,675.8797,162.04759,406.53592,588.61261,210.28897,369.95862,643.86115
187,1.55,141.05019,398.07123,676.73157,162.31114,406.27759,589.51324,208.85799,366.87485,644.13525
188,1.558,140.73343,396.89285,677.20337,162.45796,406.61075,590.71887,208.85378,363.78256,643.24567
189,1.567,139.82419,394.91022,677.99884,162.39294,406.21619,591.01971,207.30341,360.48865,643.69348
190,1.575,139.48413,392.01767,678.07916,161.89275,405.58044,591.81342,205.14436,355.47681,643.04297
191,1.583,138.60249,389.44879,678.71155,161.76225,405.68726,592.19495,204.21909,353.6044,641.31744
192,1.592,136.9856,385.95703,679.36096,161.90457,404.85724,592.74249,202.82796,349.34067,638.78802
193,1.6,136.3851,383.86264,678.19031,161.96281,404.57904,593.07867,203.28114,349.42056,638.84613
194,1.608,136.51622,381.25073,678.37238,162.05406,404.47546,593.44641,202.28432,351.55734,638.13147
195,1.617,136.82188,378.39618,677.83752,161.70952,404.61783,594.0719,200.70802,348.87207,638.24341
196,1.625,135.6292,377.01929,677.7229,161.88965,405.19684,595.24677,200.07344,348.3067,638.99506
197,1.633,135.46823,376.90579,678.15601,161.7435,405.93201,596.95581,199.46854,347.48462,639.34235
198,1.642,135.42224,376.5137,678.91278,161.70422,405.71793,597.31976,198.38847,346.68933,639.86176
199,1.65,135.42677,376.78793,679.53186,162.08232,405.45667,598.30151,200.74861,350.76523,642.45514
200,1.658,135.1869,377.3042,680.29407,161.91025,406.31375,599.12073,201.02139,354.15707,646.19739
201,1.667,135.1606,378.33661,681.4964,162.02327,406.71722,599.6239,201.28918,355.45551,647.38715
202,1.675,135.71996,381.72147,682.51556,162.0612,407.09177,599.78387,202.0316,356.14844,648.05573
