Frame#,Time,L.Forearm.x,L.Forearm.y,L.Forearm.z,L.Ulna.x,L.Ulna.y,L.Ulna.z,L.Radius.x,L.Radius.y,L.Radius.z
1,0,433.16623,289.3978,703.0531,447.01276,320.61087,631.0387,482.03598,234.8078,659.92859
2,0.008,433.16623,289.3978,703.0531,447.01276,320.61087,631.0387,482.33713,236.14861,660.48138
3,0.017,432.89685,289.4194,703.01715,447.01276,320.61087,631.0387,482.97473,236.62511,660.9259
4,0.025,432.89685,289.4194,703.01715,447.01276,320.61087,631.0387,482.85718,235.98479,660.37512
5,0.033,432.89685,289.4194,703.01715,447.01276,320.61087,631.0387,482.64267,236.13295,660.48724
6,0.042,432.89685,289.4194,703.01715,447.01276,320.61087,631.0387,482.63443,235.07622,659.75537
7,0.05,432.33301,289.49976,702.85883,447.01276,320.61087,631.0387,482.73038,235.7746,660.7998
8,0.058,432.09033,289.21671,702.841,447.01276,320.61087,631.0387,482.85718,235.98479,660.37512
9,0.067,432.33301,289.49976,702.85883,447.01276,320.61087,631.0387,482.85718,235.98479,660.37512
10,0.075,432.33301,289.49976,702.85883,447.01276,320.61087,631.0387,482.76343,236.26357,659.96393
11,0.083,432.33301,289.49976,702.85883,447.01276,320.61087,631.0387,482.76343,236.26357,659.96393
12,0.092,432.33301,289.49976,702.85883,447.01276,320.61087,631.0387,482.85718,235.98479,660.37512
13,0.1,432.33301,289.49976,702.85883,447.01276,320.61087,631.0387,482.4274,235.90678,660.58417
14,0.108,432.33301,289.49976,702.85883,446.96487,320.37494,631.30011,482.4274,235.90678,660.58417
15,0.117,432.09033,289.21671,702.841,446.96487,320.37494,631.30011,482.52106,235.62781,660.99542
16,0.125,432.33301,289.49976,702.85883,446.96487,320.37494,631.30011,482.4274,235.90678,660.58417
17,0.133,432.33301,289.49976,702.85883,446.96487,320.37494,631.30011,482.52106,235.62781,660.99542
18,0.142,432.08792,290.12601,702.73596,446.96487,320.37494,631.30011,482.4274,235.90678,660.58417
19,0.15,431.84525,289.84299,702.71814,446.96487,320.37494,631.30011,482.32535,236.29637,660.34821
20,0.158,431.84525,289.84299,702.71814,446.96487,320.37494,631.30011,482.32535,236.29637,660.34821
21,0.167,431.84525,289.84299,702.71814,446.96487,320.37494,631.30011,482.11081,236.44461,660.46021
22,0.175,431.84525,289.84299,702.71814,446.96487,320.37494,631.30011,482.32535,236.29637,660.34821
23,0.183,431.72995,290.09811,702.66022,446.96487,320.37494,631.30011,482.11081,236.44461,660.46021
24,0.192,431.72995,290.09811,702.66022,446.96487,320.37494,631.30011,482.11081,236.44461,660.46021
25,0.2,431.72995,290.09811,702.66022,446.96487,320.37494,631.30011,482.11081,236.44461,660.46021
26,0.208,431.72995,290.09811,702.66022,446.96487,320.37494,631.30011,482.11081,236.44461,660.46021
27,0.217,431.72995,290.09811,702.66022,446.96487,320.37494,631.30011,482.11081,236.44461,660.46021
28,0.225,431.97269,290.38116,702.67804,446.96487,320.37494,631.30011,482.32535,236.29637,660.34821
29,0.233,431.97269,290.38116,702.67804,446.96487,320.37494,631.30011,482.32535,236.29637,660.34821
30,0.242,431.97269,290.38116,702.67804,446.96487,320.37494,631.30011,482.11081,236.44461,660.46021
31,0.25,431.72995,290.09811,702.66022,446.96487,320.37494,631.30011,482.32535,236.29637,660.34821
32,0.258,431.72995,290.09811,702.66022,446.96487,320.37494,631.30011,482.11081,236.44461,660.46021
33,0.267,432.08792,290.12601,702.73596,446.96487,320.37494,631.30011,482.11081,236.44461,660.46021
34,0.275,431.84525,289.84299,702.71814,446.96487,320.37494,631.30011,482.11081,236.44461,660.46021
35,0.283,431.84525,289.84299,702.71814,446.96487,320.37494,631.30011,482.20596,236.1434,660.83636
36,0.292,431.84525,289.84299,702.71814,446.96487,320.37494,631.30011,482.20596,236.1434,660.83636
37,0.3,431.84525,289.84299,702.71814,446.96487,320.37494,631.30011,482.30658,235.77597,661.10748
38,0.308,431.84525,289.84299,702.71814,446.96487,320.37494,631.30011,482.30658,235.77597,661.10748
39,0.317,431.84525,289.84299,702.71814,446.96487,320.37494,631.30011,482.30658,235.77597,661.10748
40,0.325,431.84525,289.84299,702.71814,446.96487,320.37494,631.30011,482.30658,235.77597,661.10748
41,0.333,431.84525,289.84299,702.71814,446.96487,320.37494,631.30011,482.30658,235.77597,661.10748
42,0.342,431.84525,289.84299,702.71814,446.96487,320.37494,631.30011,482.30658,235.77597,661.10748
43,0.35,431.84525,289.84299,702.71814,446.96487,320.37494,631.30011,482.30658,235.77597,661.10748
44,0.358,431.84525,289.84299,702.71814,446.96487,320.37494,631.30011,482.32535,236.29637,660.34821
45,0.367,431.84525,289.84299,702.71814,446.96487,320.37494,631.30011,482.32535,236.29637,660.34821
46,0.375,431.84525,289.84299,702.71814,446.96487,320.37494,631.30011,482.11081,236.44461,660.46021
47,0.383,431.84525,289.84299,702.71814,446.31787,320.51926,631.10956,482.32535,236.29637,660.34821
48,0.392,431.84525,289.84299,702.71814,445.5715,319.56705,630.56006,482.32535,236.29637,660.34821
49,0.4,431.72995,290.09811,702.66022,445.5715,319.56705,630.56006,482.32535,236.29637,660.34821
50,0.408,431.72995,290.09811,702.66022,445.61945,319.80301,630.29858,482.32535,236.29637,660.34821
51,0.417,431.72995,290.09811,702.66022,445.5715,319.56705,630.56006,482.11081,236.44461,660.46021
52,0.425,431.72995,290.09811,702.66022,445.5715,319.56705,630.56006,482.23746,236.65453,660.03577
53,0.433,431.72995,290.09811,702.66022,445.5715,319.56705,630.56006,482.11081,236.44461,660.46021
54,0.442,431.72995,290.09811,702.66022,445.61945,319.80301,630.29858,482.11081,236.44461,660.46021
55,0.45,431.72995,290.09811,702.66022,445.5715,319.56705,630.56006,482.11081,236.44461,660.46021
56,0.458,431.19958,289.67255,702.49023,445.5715,319.56705,630.56006,482.11081,236.44461,660.46021
57,0.467,431.19958,289.67255,702.49023,444.93073,318.89426,630.6875,481.76782,236.26901,660.28973
58,0.475,431.19958,289.67255,702.49023,444.93073,318.89426,630.6875,481.76782,236.26901,660.28973
59,0.483,431.19958,289.67255,702.49023,444.93073,318.89426,630.6875,481.76782,236.26901,660.28973
60,0.492,431.19958,289.67255,702.49023,444.93073,318.89426,630.6875,480.98926,235.2144,659.62531
61,0.5,431.00894,289.77917,702.39056,444.93073,318.89426,630.6875,481.40469,235.22208,659.65948
62,0.508,430.53287,289.58798,702.28229,444.93073,318.89426,630.6875,481.11334,236.43665,659.7876
63,0.517,430.53287,289.58798,702.28229,444.93073,318.89426,630.6875,481.11334,236.43665,659.7876
64,0.525,430.53287,289.58798,702.28229,444.93073,318.89426,630.6875,481.53146,236.45741,659.8313
65,0.533,430.53287,289.58798,702.28229,443.83136,318.92816,630.67175,481.53146,236.45741,659.8313
66,0.542,430.77557,289.87115,702.30017,443.83136,318.92816,630.67175,481.11334,236.43665,659.7876
67,0.55,430.77557,289.87115,702.30017,443.01794,319.14435,630.41559,481.11334,236.43665,659.7876
68,0.558,430.53287,289.58798,702.28229,443.01794,319.14435,630.41559,480.68375,236.43399,659.69891
69,0.567,430.53287,289.58798,702.28229,443.05081,319.16397,631.14868,480.68375,236.43399,659.69891
70,0.575,430.27719,289.84821,702.43835,443.05081,319.16397,631.14868,481.23102,237.07698,660.33862
71,0.583,430.27917,289.86185,702.44781,442.71597,319.01257,631.23315,480.80157,237.07436,660.25
72,0.592,430.0271,289.77313,702.48346,442.68304,318.99304,630.50012,480.02783,236.52385,660.06433
73,0.6,430.0271,289.77313,702.48346,442.71597,319.01257,631.23315,480.02783,236.52385,660.06433
74,0.608,430.0271,289.77313,702.48346,442.71597,319.01257,631.23315,480.02783,236.52385,660.06433
75,0.617,430.0271,289.77313,702.48346,442.71597,319.01257,631.23315,480.02783,236.52385,660.06433
76,0.625,429.81638,289.47342,702.23297,442.71597,319.01257,631.23315,480.02783,236.52385,660.06433
77,0.633,429.81638,289.47342,702.23297,442.71597,319.01257,631.23315,480.02783,236.52385,660.06433
78,0.642,430.0271,289.77313,702.48346,442.71597,319.01257,631.23315,480.02783,236.52385,660.06433
79,0.65,429.81638,289.47342,702.23297,442.71597,319.01257,631.23315,480.02783,236.52385,660.06433
80,0.658,429.81638,289.47342,702.23297,442.71597,319.01257,631.23315,480.02783,236.52385,660.06433
81,0.667,429.81638,289.47342,702.23297,442.71597,319.01257,631.23315,480.02783,236.52385,660.06433
82,0.675,429.54202,288.82254,701.94482,442.71597,319.01257,631.23315,479.45346,236.52625,659.69879
83,0.683,429.54202,288.82254,701.94482,442.71597,319.01257,631.23315,480.02783,236.52385,660.06433
84,0.692,429.55682,289.25354,702.28381,442.71597,319.01257,631.23315,479.45346,236.52625,659.69879
85,0.7,429.78491,289.7601,702.49554,442.71597,319.01257,631.23315,480.02783,236.52385,660.06433
86,0.708,429.81638,289.47342,702.23297,442.71597,319.01257,631.23315,480.02783,236.52385,660.06433
87,0.717,429.81638,289.47342,702.23297,442.71597,319.01257,631.23315,479.45346,236.52625,659.69879
88,0.725,429.19315,289.48117,702.06775,442.71597,319.01257,631.23315,480.02783,236.52385,660.06433
89,0.733,429.81638,289.47342,702.23297,442.71597,319.01257,631.23315,480.02783,236.52385,660.06433
90,0.742,429.19315,289.48117,702.06775,442.71597,319.01257,631.23315,480.02783,236.52385,660.06433
91,0.75,429.81638,289.47342,702.23297,442.71597,319.01257,631.23315,480.02783,236.52385,660.06433
92,0.758,428.97766,288.9024,701.78613,442.71597,319.01257,631.23315,480.02783,236.52385,660.06433
93,0.767,429.22083,289.84009,702.33704,442.0611,317.66605,630.97943,480.02783,236.52385,660.06433
94,0.775,429.81638,289.47342,702.23297,442.0611,317.66605,630.97943,480.02783,236.52385,660.06433
95,0.783,429.19315,289.48117,702.06775,442.21844,318.90512,631.26678,480.02783,236.52385,660.06433
96,0.792,429.19315,289.48117,702.06775,442.71597,319.01257,631.23315,479.45346,236.52625,659.69879
97,0.8,429.19315,289.48117,702.06775,442.21844,318.90512,631.26678,480.02783,236.52385,660.06433
98,0.808,429.41882,289.4848,701.87048,442.21844,318.90512,631.26678,480.02783,236.52385,660.06433
99,0.817,428.99258,289.33347,702.12518,442.71597,319.01257,631.23315,480.02783,236.52385,660.06433
100,0.825,428.99258,289.33347,702.12518,442.71597,319.01257,631.23315,480.02783,236.52385,660.06433
101,0.833,428.99258,289.33347,702.12518,442.0611,317.66605,630.97943,480.02783,236.52385,660.06433
102,0.842,428.99258,289.33347,702.12518,442.0611,317.66605,630.97943,480.02783,236.52385,660.06433
103,0.85,428.99258,289.33347,702.12518,441.56348,317.55835,631.013,480.02783,236.52385,660.06433
104,0.858,428.99258,289.33347,702.12518,442.21844,318.90512,631.26678,480.02783,236.52385,660.06433
105,0.867,429.55682,289.25354,702.28381,442.21844,318.90512,631.26678,480.02783,236.52385,660.06433
106,0.875,429.55682,289.25354,702.28381,442.71597,319.01257,631.23315,480.02783,236.52385,660.06433
107,0.883,429.55682,289.25354,702.28381,442.71597,319.01257,631.23315,480.02783,236.52385,660.06433
108,0.892,429.55682,289.25354,702.28381,442.21844,318.90512,631.26678,480.02783,236.52385,660.06433
109,0.9,429.55682,289.25354,702.28381,442.71597,319.01257,631.23315,480.02783,236.52385,660.06433
110,0.908,429.73438,289.46371,702.4906,442.71597,319.01257,631.23315,480.02783,236.52385,660.06433
111,0.917,430.06137,289.79272,702.46906,442.71597,319.01257,631.23315,480.02783,236.52385,660.06433
112,0.925,429.73438,289.46371,702.4906,442.71597,319.01257,631.23315,480.02783,236.52385,660.06433
113,0.933,429.73438,289.46371,702.4906,442.71597,319.01257,631.23315,480.22253,236.46112,660.4942
114,0.942,429.73438,289.46371,702.4906,443.04132,318.92563,631.33539,480.22253,236.46112,660.4942
115,0.95,429.73438,289.46371,702.4906,443.36664,318.83896,631.43781,480.22253,236.46112,660.4942
116,0.958,429.73438,289.46371,702.4906,443.36664,318.83896,631.43781,481.17657,236.51991,660.79541
117,0.967,429.9733,289.0368,702.51575,443.36664,318.83896,631.43781,481.17657,236.51991,660.79541
118,0.975,429.9733,289.0368,702.51575,443.36664,318.83896,631.43781,481.17657,236.51991,660.79541
119,0.983,430.54538,288.73953,702.61719,443.36664,318.83896,631.43781,481.17657,236.51991,660.79541
120,0.992,431.0166,288.51865,702.82831,443.36664,318.83896,631.43781,481.35086,236.28337,661.23151
121,1,431.14862,288.43024,702.70502,443.36664,318.83896,631.43781,481.35086,236.28337,661.23151
122,1.008,431.0166,288.51865,702.82831,443.86414,318.94751,631.40472,481.17657,236.51991,660.79541
123,1.017,431.0166,288.51865,702.82831,443.36664,318.83896,631.43781,481.46823,236.48575,660.45477
124,1.025,431.14862,288.43024,702.70502,443.86414,318.94751,631.40472,481.64258,236.24922,660.89093
125,1.033,431.14862,288.43024,702.70502,443.86414,318.94751,631.40472,481.46823,236.48575,660.45477
126,1.042,431.14862,288.43024,702.70502,443.86414,318.94751,631.40472,481.64258,236.24922,660.89093
127,1.05,431.14862,288.43024,702.70502,443.86414,318.94751,631.40472,481.64258,236.24922,660.89093
128,1.058,431.14862,288.43024,702.70502,443.86414,318.94751,631.40472,481.64258,236.24922,660.89093
129,1.067,431.14862,288.43024,702.70502,443.76947,318.67651,631.71808,481.81192,235.89789,661.17999
130,1.075,431.14862,288.43024,702.70502,444.51337,318.66061,631.97284,481.81192,235.89789,661.17999
131,1.083,431.14862,288.43024,702.70502,444.51337,318.66061,631.97284,481.81192,235.89789,661.17999
132,1.092,431.3913,288.71341,702.72284,444.51337,318.66061,631.97284,481.81192,235.89789,661.17999
133,1.1,431.45483,288.55325,702.8576,444.51337,318.66061,631.97284,481.81192,235.89789,661.17999
134,1.108,431.21219,288.27008,702.83972,444.51337,318.66061,631.97284,481.89453,234.80022,662.0564
135,1.117,431.21219,288.27008,702.83972,444.70511,318.3591,632.9101,481.89453,234.80022,662.0564
136,1.125,431.21219,288.27008,702.83972,444.70511,318.3591,632.9101,481.89453,234.80022,662.0564
137,1.133,431.47003,288.22202,702.89642,444.70511,318.3591,632.9101,481.89453,234.80022,662.0564
138,1.142,431.47003,288.22202,702.89642,445.55518,320.01114,632.72015,481.89453,234.80022,662.0564
139,1.15,431.47003,288.22202,702.89642,445.55518,320.01114,632.72015,481.89453,234.80022,662.0564
140,1.158,431.47003,288.22202,702.89642,445.89972,319.9859,632.23688,481.89453,234.80022,662.0564
141,1.167,431.47003,288.22202,702.89642,445.55518,320.01114,632.72015,481.89453,234.80022,662.0564
142,1.175,431.47003,288.22202,702.89642,445.55518,320.01114,632.72015,481.89453,234.80022,662.0564
143,1.183,431.71265,288.50516,702.91425,445.55518,320.01114,632.72015,481.89453,234.80022,662.0564
144,1.192,431.84918,288.60367,702.84332,445.55518,320.01114,632.72015,481.89453,234.80022,662.0564
145,1.2,431.84918,288.60367,702.84332,445.55518,320.01114,632.72015,481.81192,235.89789,661.17999
146,1.208,431.84918,288.60367,702.84332,445.89972,319.9859,632.23688,481.81192,235.89789,661.17999
147,1.217,431.84918,288.60367,702.84332,445.89972,319.9859,632.23688,481.89453,234.80022,662.0564
148,1.225,431.84918,288.60367,702.84332,445.89972,319.9859,632.23688,481.89453,234.80022,662.0564
149,1.233,431.71265,288.50516,702.91425,445.89972,319.9859,632.23688,482.57974,234.57916,661.87592
150,1.242,431.84918,288.60367,702.84332,446.62164,319.95752,632.0033,482.49466,234.13983,661.42584
151,1.25,431.84918,288.60367,702.84332,446.62164,319.95752,632.0033,482.03711,235.0957,660.51471
152,1.258,431.94769,288.45007,703.28589,446.65417,319.97845,632.73608,482.1568,235.39816,660.77808
153,1.267,431.94769,288.45007,703.28589,446.65417,319.97845,632.73608,482.73553,235.47951,660.88348
154,1.275,432.09921,287.59842,703.15332,445.89972,319.9859,632.23688,482.73553,235.47951,660.88348
155,1.283,431.62146,287.37033,702.76367,445.89972,319.9859,632.23688,482.80069,234.47375,661.78333
156,1.292,431.85666,287.31528,703.1355,446.65417,319.97845,632.73608,482.57974,234.57916,661.87592
157,1.3,431.85666,287.31528,703.1355,446.65417,319.97845,632.73608,482.57974,234.57916,661.87592
158,1.308,431.85666,287.31528,703.1355,446.47849,319.68887,632.94653,482.52106,235.62781,660.99542
159,1.317,432.09921,287.59842,703.15332,446.94794,320.11111,632.15332,482.52106,235.62781,660.99542
160,1.325,432.23605,287.29123,703.29987,446.47849,319.68887,632.94653,482.52106,235.62781,660.99542
161,1.333,431.85666,287.31528,703.1355,445.41055,317.72046,633.81311,482.52106,235.62781,660.99542
162,1.342,431.85666,287.31528,703.1355,445.41055,317.72046,633.81311,482.52106,235.62781,660.99542
163,1.35,432.09921,287.59842,703.15332,446.65417,319.97845,632.73608,482.52106,235.62781,660.99542
164,1.358,431.91003,288.24872,703.3703,446.65417,319.97845,632.73608,482.52106,235.62781,660.99542
165,1.367,431.91003,288.24872,703.3703,445.41055,317.72046,633.81311,482.52106,235.62781,660.99542
166,1.375,431.94769,288.45007,703.28589,445.41055,317.72046,633.81311,482.52106,235.62781,660.99542
167,1.383,432.20853,288.89722,703.4198,446.65417,319.97845,632.73608,482.52106,235.62781,660.99542
168,1.392,432.08423,288.54861,703.21497,446.62164,319.95752,632.0033,482.52106,235.62781,660.99542
169,1.4,432.08423,288.54861,703.21497,446.65417,319.97845,632.73608,482.52106,235.62781,660.99542
170,1.408,432.34503,288.99573,703.34888,446.65417,319.97845,632.73608,482.52106,235.62781,660.99542
171,1.417,432.08423,288.54861,703.21497,446.62164,319.95752,632.0033,482.52106,235.62781,660.99542
172,1.425,432.34503,288.99573,703.34888,446.62164,319.95752,632.0033,482.52106,235.62781,660.99542
173,1.433,431.94769,288.45007,703.28589,446.65417,319.97845,632.73608,482.52106,235.62781,660.99542
174,1.442,431.94769,288.45007,703.28589,446.65417,319.97845,632.73608,482.52106,235.62781,660.99542
175,1.45,431.94769,288.45007,703.28589,446.65417,319.97845,632.73608,481.81192,235.89789,661.17999
176,1.458,431.91003,288.24872,703.3703,446.65417,319.97845,632.73608,481.81192,235.89789,661.17999
177,1.467,432.1709,288.69583,703.50421,446.68079,320.13022,633.37463,481.81192,235.89789,661.17999
178,1.475,432.47931,288.64011,703.76276,446.26151,319.36929,633.62256,481.81192,235.89789,661.17999
179,1.483,432.47931,288.64011,703.76276,445.43707,317.87198,634.45197,481.81192,235.89789,661.17999
180,1.492,432.47931,288.64011,703.76276,446.28802,319.52078,634.26111,481.81192,235.89789,661.17999
181,1.5,432.51691,288.84149,703.67834,446.28802,319.52078,634.26111,481.89453,234.80022,662.0564
182,1.508,432.47931,288.64011,703.76276,446.71295,320.34637,634.16589,481.89453,234.80022,662.0564
183,1.517,432.76245,288.21506,703.80145,446.71295,320.34637,634.16589,481.89453,234.80022,662.0564
184,1.525,432.72479,288.01367,703.88586,446.71295,320.34637,634.16589,481.81192,235.89789,661.17999
185,1.533,433.18027,287.95596,703.91827,446.71295,320.34637,634.16589,481.81192,235.89789,661.17999
186,1.542,433.3544,288.25586,703.76288,446.71295,320.34637,634.16589,484.39334,235.21172,662.63641
187,1.55,433.18027,287.95596,703.91827,446.71295,320.34637,634.16589,484.04962,235.04213,662.44135
188,1.558,433.2179,288.15735,703.83386,446.71295,320.34637,634.16589,483.59756,234.84708,662.21362
189,1.567,433.18027,287.95596,703.91827,446.71295,320.34637,634.16589,483.6362,234.71452,662.08167
190,1.575,433.2179,288.15735,703.83386,446.71295,320.34637,634.16589,483.25964,234.25456,661.59137
191,1.583,433.31677,288.0545,703.84729,446.96457,320.33701,633.29932,481.94107,234.12973,661.38019
192,1.592,433.18027,287.95596,703.91827,446.96457,320.33701,633.29932,481.94107,234.12973,661.38019
193,1.6,433.29553,287.70074,703.9762,446.96457,320.33701,633.29932,481.52838,233.80058,661.02167
194,1.608,433.4617,287.55042,704.1098,447.1731,320.30753,634.10339,481.44122,233.68195,660.89655
195,1.617,433.4617,287.55042,704.1098,446.73624,319.93912,634.01349,480.74866,233.42493,660.59412
196,1.625,433.4617,287.55042,704.1098,446.90396,319.65952,634.20935,480.98083,233.30037,660.48737
197,1.633,433.4617,287.55042,704.1098,447.1731,320.30753,634.10339,480.74274,233.23232,660.40399
198,1.642,433.6279,287.40024,704.24347,447.44476,320.35083,634.84833,480.60767,232.60287,660.1203
199,1.65,433.6279,287.40024,704.24347,447.40311,320.10233,634.24042,480.68408,232.63272,660.16962
200,1.658,433.87582,287.43506,704.23193,447.44476,320.35083,634.84833,482.58383,234.32431,661.99646
201,1.667,433.87582,287.43506,704.23193,447.40311,320.10233,634.24042,482.58383,234.32431,661.99646
202,1.675,433.87582,287.43506,704.23193,447.44476,320.35083,634.84833,482.58383,234.32431,661.99646
