Frame#,Time,R.Forearm.x,R.Forearm.y,R.Forearm.z,R.Ulna.x,R.Ulna.y,R.Ulna.z,R.Radius.x,R.Radius.y,R.Radius.z
1,0,1692.85559,226.62172,989.84271,1730.83301,265.34662,892.08899,1670.64197,230.25746,853.3208
2,0.008,1685.95056,224.18076,988.57452,1724.7627,263.32211,890.33264,1664.94482,229.16528,853.18408
3,0.017,1680.79443,224.81387,986.21503,1719.19128,262.72635,890.2785,1659.92603,227.21796,852.74329
4,0.025,1674.78918,221.13474,984.67383,1713.20044,261.80313,889.76349,1653.64294,226.79102,850.80945
5,0.033,1668.36096,223.48024,984.7453,1707.31995,262.03992,888.47217,1646.83704,225.90669,849.7074
6,0.042,1662.86255,221.64648,983.63489,1700.75354,261.13629,887.6759,1642.73901,224.76196,849.46106
7,0.05,1656.65088,221.54088,984.10431,1694.93298,260.56216,887.05475,1635.46265,224.07152,848.28442
8,0.058,1650.86658,220.06233,983.01703,1688.8822,259.39212,886.80676,1629.56689,224.4684,848.5932
9,0.067,1643.56421,221.3756,981.36877,1682.28552,260.23727,886.2276,1623.49536,224.86107,847.76587
10,0.075,1636.88757,221.98247,980.93634,1676.05457,259.57047,885.22949,1617.91309,222.95082,846.51166
11,0.083,1629.74402,220.48468,979.7182,1669.77014,259.0463,884.27832,1610.4209,223.59254,843.6438
12,0.092,1623.60449,220.84782,979.24719,1663.65723,258.52942,882.50861,1605.1261,222.40752,843.41748
13,0.1,1616.89819,218.88808,977.65997,1657.5199,258.29956,880.69409,1600.54761,222.23158,842.85083
14,0.108,1608.00732,220.93329,976.79224,1650.59863,258.93369,880.43915,1590.26208,221.73763,841.40686
15,0.117,1601.37012,219.89053,976.3526,1642.41052,258.45258,879.2464,1582.40723,222.29494,839.58856
16,0.125,1594.84778,222.82484,975.99542,1635.21777,259.35034,877.39215,1576.21704,224.18752,839.28204
17,0.133,1586.62207,220.95734,972.914,1627.39612,257.9769,877.08038,1569.62842,222.51456,837.84772
18,0.142,1579.70618,223.03812,972.51563,1619.97107,259.75082,874.51343,1562.26794,221.03578,837.11475
19,0.15,1571.4248,220.72784,969.45685,1613.54065,259.57541,874.59576,1552.89124,225.32326,835.39734
20,0.158,1564.20374,223.18991,969.06201,1603.77478,260.05057,872.65936,1545.05164,224.00703,834.01776
21,0.167,1557.60571,221.02234,967.55322,1596.75049,259.90466,870.70422,1538.67615,225.651,832.87158
22,0.175,1549.3396,223.23819,966.27942,1588.44958,262.66769,869.09814,1529.29651,225.05359,830.31158
23,0.183,1539.62463,223.97342,965.7583,1580.8623,261.58386,867.96667,1520.80615,225.20532,829.90289
24,0.192,1531.91187,226.21602,964.09851,1571.06287,263.68451,866.04846,1513.45349,224.97345,829.3512
25,0.2,1524.13049,225.06615,962.44366,1562.99304,264.63647,865.53802,1503.22302,225.51404,827.34119
26,0.208,1514.83545,227.93182,961.1355,1552.71741,264.92447,863.92291,1498.21582,224.41859,825.82629
27,0.217,1507.42725,226.31369,958.33344,1544.21118,265.33054,861.13312,1488.22424,227.05492,824.42877
28,0.225,1499.02271,228.29123,959.14276,1537.41309,267.30374,860.33911,1478.61462,229.05902,823.42596
29,0.233,1489.7948,227.50275,956.4422,1526.2937,267.4664,859.21576,1469.98291,229.52992,820.80035
30,0.242,1482.87378,229.63649,956.17841,1519.4043,269.6286,858.18744,1460.72192,230.48244,820.42651
31,0.25,1470.52026,231.11084,954.2514,1508.44043,268.72141,857.43536,1450.76318,231.73605,819.36389
32,0.258,1463.29907,234.13103,953.86157,1501.88416,270.82129,857.87555,1444.2002,231.06667,819.08337
33,0.267,1453.48779,232.00821,954.30896,1489.68591,271.51831,855.60742,1434.48572,232.10136,818.91888
34,0.275,1445.67346,233.66377,953.25714,1481.66113,274.35056,856.55792,1423.51196,234.89775,818.15936
35,0.283,1435.27856,233.92319,953.23309,1471.53723,274.11322,856.83252,1414.93884,236.07172,818.01617
36,0.292,1424.88794,238.45348,955.22833,1463.198,276.43549,857.53571,1405.21094,237.07489,819.02118
37,0.3,1417.29358,236.78868,956.50012,1453.09839,276.34122,859.31329,1397.5332,235.47833,821.01001
38,0.308,1406.83679,237.61201,957.84381,1443.24402,279.22327,860.08118,1387.09705,236.74817,821.78607
39,0.317,1398.20776,239.04568,959.40369,1432.53967,280.14209,860.30023,1376.35681,240.10838,822.62372
40,0.325,1387.69226,239.21515,960.70361,1423.93958,280.64359,861.96228,1366.77026,241.62086,824.62207
41,0.333,1377.33459,242.29712,960.85114,1412.5575,281.80667,864.32495,1355.94873,242.39819,825.5448
42,0.342,1368.27148,241.95546,962.53766,1402.18713,281.95856,864.92542,1346.4386,244.09422,827.88092
43,0.35,1359.94702,244.58221,965.83276,1393.06335,285.52704,866.36707,1337.51624,243.08401,829.04535
44,0.358,1349.58594,243.92366,966.49585,1382.89575,285.54044,867.98242,1325.74048,245.88603,830.54382
45,0.367,1339.76636,249.22728,968.54712,1373.39587,287.52066,869.63776,1315.91711,247.7104,832.77808
46,0.375,1329.54724,248.78317,968.87213,1362.17639,288.09595,870.41742,1305.62524,248.65001,833.44183
47,0.383,1320.17078,250.4912,970.20544,1352.91333,291.07401,871.18872,1295.00171,250.07208,835.95569
48,0.392,1309.66162,251.49028,969.68616,1340.97485,291.93384,871.70087,1285.19763,253.33536,837.01514
49,0.4,1300.98572,254.88669,971.28833,1331.63806,293.34961,872.10394,1274.3844,252.46898,838.13403
50,0.408,1292.75671,254.45654,973.04688,1321.26843,295.98422,874.19659,1264.22705,254.23071,837.93396
51,0.417,1280.8418,257.16367,974.12262,1310.54297,295.60941,874.36279,1252.5957,256.4057,839.33893
52,0.425,1273.10437,256.95444,974.08765,1299.98547,299.27594,873.9978,1242.36169,257.31021,839.80103
53,0.433,1261.86926,257.91663,974.32709,1289.31885,299.14359,874.19037,1231.09851,259.44522,841.27966
54,0.442,1251.75488,261.67178,975.2876,1278.92078,301.4389,875.21155,1221.86768,259.80569,842.11462
55,0.45,1242.6394,261.42798,975.63367,1267.14221,303.97955,877.19873,1211.55884,261.63791,843.63959
56,0.458,1233.33911,261.59616,976.21143,1256.6333,303.64877,877.46997,1200.61145,263.17181,843.85602
57,0.467,1223.01123,262.07495,977.12402,1247.08569,306.76254,878.45203,1190.04504,264.17477,844.28235
58,0.475,1213.84729,261.81522,978.53967,1236.00732,308.07578,879.16541,1179.58398,264.3537,845.51074
59,0.483,1202.96008,264.98438,979.32605,1225.6012,308.58969,880.31671,1170.52295,264.11334,846.49219
60,0.492,1193.11682,266.87665,979.68793,1215.83228,310.3222,880.85883,1160.36548,265.26169,847.40131
61,0.5,1184.83984,265.29385,980.52911,1205.83472,310.34665,881.151,1150.42297,266.23529,848.2088
62,0.508,1175.2605,266.62549,980.64825,1196.05188,312.80899,882.35663,1139.51428,268.38489,848.94733
63,0.517,1165.4668,266.55359,982.27667,1185.22766,314.28979,882.39001,1129.22656,268.67697,850.26587
64,0.525,1156.80615,267.00266,982.36609,1174.30371,314.44894,884.25824,1119.23108,268.91544,850.60083
65,0.533,1146.18616,269.53033,983.31824,1164.99744,315.67773,885.27753,1108.77466,272.17334,852.11377
66,0.542,1137.99573,270.40167,984.69318,1156.06421,316.33408,885.37292,1099.33203,271.55112,853.51501
67,0.55,1129.17798,269.24719,985.50037,1145.53845,317.80023,886.09637,1089.57825,272.43149,853.88306
68,0.558,1121.37866,270.91302,986.1532,1136.97937,319.19992,886.3692,1079.94971,273.90707,854.99017
69,0.567,1111.77856,270.74734,986.78003,1126.64124,318.98016,887.99054,1069.6488,273.56656,856.85248
70,0.575,1102.57813,272.74521,987.05725,1116.97668,319.13297,887.86414,1061.43799,275.0354,857.81958
71,0.583,1093.14478,274.89008,988.55359,1107.86145,319.6604,888.63751,1050.92175,276.00912,859.73077
72,0.592,1086.54749,272.96988,988.96014,1099.1311,321.64203,889.14557,1041.04565,276.97528,859.87976
73,0.6,1077.98621,273.65524,989.01038,1089.22107,321.02237,890.46619,1031.61719,276.41278,861.3136
74,0.608,1069.45398,274.73984,989.59161,1080.74939,322.94409,890.08313,1022.10742,276.61954,861.74756
75,0.617,1060.6825,274.96866,989.9826,1071.88892,322.12329,890.83917,1013.23145,277.74545,862.05786
76,0.625,1053.05969,273.45496,990.75623,1061.82361,321.77261,890.87665,1004.61749,276.37125,863.44922
77,0.633,1044.47339,273.95471,991.11438,1053.38147,322.00342,890.22571,994.79663,277.4194,863.51904
78,0.642,1034.89624,275.01605,990.35779,1044.16833,322.61127,891.17291,985.51849,277.69568,864.38495
79,0.65,1027.34338,276.1886,990.48486,1033.84192,323.21936,890.42065,976.74829,278.65222,864.31702
80,0.658,1019.13745,276.07431,990.19159,1025.92615,323.5271,890.2439,968.01074,276.90829,864.39716
81,0.667,1009.87018,274.10535,989.81128,1016.6145,322.59045,890.47797,959.08844,276.42612,864.58948
82,0.675,1002.83911,274.38388,990.17462,1009.06366,323.48865,890.16882,949.98724,277.44556,864.1853
83,0.683,994.46045,274.47064,989.01343,999.91382,323.21625,890.07245,941.289,276.04196,864.31775
84,0.692,986.07074,274.31226,987.93854,990.72064,321.23315,890.33563,933.15918,275.73022,863.74042
85,0.7,977.48553,272.17831,988.06744,982.05701,320.8483,888.83868,925.02106,274.52902,862.70337
86,0.708,969.56378,273.78613,988.04321,973.86383,320.3945,888.42151,916.49261,273.58966,863.01886
87,0.717,962.5202,270.15964,987.25629,964.74426,320.59695,889.35278,908.24109,272.80716,862.26636
88,0.725,954.18433,270.60391,986.56018,956.33197,319.69644,888.03845,900.16669,272.63177,861.42584
89,0.733,946.34247,269.67505,985.81989,948.5766,318.54126,887.31891,892.14856,271.37997,860.91901
90,0.742,939.52435,267.72214,985.38629,941.82825,317.40997,887.36621,884.52094,271.54913,859.7168
91,0.75,931.39746,267.81903,985.224,933.61267,317.64642,886.11334,876.85931,270.04819,859.18524
92,0.758,924.85211,265.39758,983.65503,925.52936,316.4776,886.35187,869.44873,268.28052,858.71448
93,0.767,917.4101,264.46545,982.84021,919.40009,313.754,885.44373,862.66425,267.76883,858.39331
94,0.775,908.79156,263.37469,981.97278,912.16199,313.62357,883.39648,854.83313,267.77206,857.66119
95,0.783,902.20404,260.98792,981.77979,905.36847,312.73929,883.29407,848.44159,266.50052,856.36438
96,0.792,894.7041,261.27747,981.05011,899.28796,310.62311,882.30444,840.89905,265.25012,855.89667
97,0.8,887.90063,259.259,979.75745,893.36212,309.95386,881.42712,835.48187,264.5163,854.24347
98,0.808,880.48541,257.92993,978.80933,887.46539,308.1601,880.90363,828.38922,264.27878,854.07782
99,0.817,873.88385,257.0387,978.16919,881.00171,307.55865,879.22626,822.77618,262.05103,853.224
100,0.825,868.06049,256.0209,977.55695,875.83508,304.95963,878.3269,815.40051,261.97656,850.79297
101,0.833,862.08069,253.18654,977.19885,870.84137,302.18484,879.55084,810.6391,260.84937,851.37561
102,0.842,854.88245,251.9856,977.33649,864.35876,300.8078,879.29456,804.84662,259.10803,850.55243
103,0.85,849.00299,249.5206,977.05634,859.56549,298.46283,878.96771,799.56079,255.91464,850.2478
104,0.858,842.49487,247.72359,977.22247,853.92749,296.20776,879.43811,793.79242,255.69855,850.53192
105,0.867,836.21173,243.66101,977.70306,849.21759,295.17288,879.57599,788.65564,253.22981,850.58588
106,0.875,830.3291,242.66061,978.9577,844.03168,291.4635,880.45367,783.35223,251.03333,851.36932
107,0.883,823.11572,240.65677,979.66577,838.86292,289.4707,882.07208,778.51031,249.73318,852.30316
108,0.892,818.26038,237.76906,981.68091,833.54907,286.77823,882.8194,773.98425,247.36308,852.45673
109,0.9,810.6571,237.02275,981.99493,829.17389,285.44708,884.06897,768.05212,245.81367,852.85742
110,0.908,805.69257,234.60605,982.16241,824.43311,282.30228,884.70557,762.97949,242.68654,853.12244
111,0.917,800.29211,232.08954,983.1554,819.49432,280.87335,885.12781,758.82971,240.9108,853.07788
112,0.925,794.052,230.44499,984.05603,813.54047,277.3558,886.11945,754.62341,238.53734,853.20813
113,0.933,788.53699,228.13272,985.07434,808.52155,275.47415,886.43384,749.16571,236.55431,853.83337
114,0.942,782.73041,226.36909,985.04315,803.33752,274.7457,886.77643,744.33783,234.06256,854.07904
115,0.95,777.37408,223.98047,984.54004,799.21924,271.27921,886.96503,740.01141,232.4808,853.95221
116,0.958,772.23383,222.18921,985.09113,794.82446,267.95493,887.1123,734.94373,229.93834,853.95837
117,0.967,766.41949,220.19139,985.7959,789.86371,266.814,887.95087,729.85529,227.51891,854.15063
118,0.975,760.85803,219.22447,985.10529,784.31818,264.95816,888.51062,725.95007,225.97153,854.36243
119,0.983,756.28687,217.77515,986.41107,779.28082,263.31509,888.53247,720.97137,224.37187,854.55481
120,0.992,750.29523,216.1122,986.26105,774.97095,260.73508,887.97491,715.6236,220.88483,854.1488
121,1,746.00739,213.32924,986.23651,769.57288,258.30164,888.24231,711.42468,219.48514,854.76666
122,1.008,738.40302,212.4736,987.30243,765.09894,257.5567,889.00604,705.93768,219.21625,854.51758
123,1.017,731.81219,211.88882,987.68353,760.31274,255.86357,889.58575,701.08936,217.50758,855.2804
124,1.025,729.19348,208.80563,987.87482,755.90143,253.49887,889.97278,696.73273,214.85756,855.35101
125,1.033,724.48938,207.34917,987.80145,751.82245,252.36996,889.96875,691.84857,214.25949,856.03809
126,1.042,718.8269,207.11426,988.70288,746.11639,249.31958,889.40558,687.2923,212.65874,855.91821
127,1.05,712.49469,205.05267,989.60394,741.9599,248.64998,890.97607,682.22528,210.77142,855.88849
128,1.058,707.21906,204.33533,989.3197,736.84375,246.91997,890.90723,676.97797,210.74506,857.23859
129,1.067,702.44525,203.99191,989.8678,732.46814,246.49313,890.70508,672.2616,208.8299,856.38745
130,1.075,697.2583,203.89949,989.94568,726.42975,244.97781,891.00067,666.6427,208.545,856.98578
131,1.083,692.04211,203.04256,990.24768,721.26141,245.34563,891.98621,662.21155,207.02267,857.12494
132,1.092,685.55463,202.01891,990.37299,716.9458,243.87376,891.33838,655.6062,206.12875,857.23431
133,1.1,681.08783,201.03853,990.28833,711.93054,242.76625,891.48572,651.91852,205.37444,857.44006
134,1.108,674.80768,200.98251,990.56073,706.58539,240.84428,891.51953,645.4892,205.45474,857.4104
135,1.117,669.53241,198.98068,989.99286,700.76111,240.30006,891.33417,641.25189,203.77298,856.9425
136,1.125,663.83447,200.67484,989.90472,695.99023,240.24763,891.11072,634.18042,204.19044,856.1264
137,1.133,656.82654,199.57011,989.18073,690.11218,239.10571,890.62268,629.90625,201.96494,856.1181
138,1.142,651.72803,199.78391,988.25623,684.98553,238.82747,890.44568,624.09192,203.73863,855.66547
139,1.15,645.21008,199.13144,987.88513,678.42487,238.25339,889.51996,618.56763,202.29111,854.59528
140,1.158,639.802,197.32137,986.43677,673.13611,238.30879,887.95831,612.82379,200.99396,853.21759
141,1.167,632.94244,198.57307,986.11182,666.64526,237.90517,888.64417,606.12366,202.42265,852.33588
142,1.175,625.72681,198.8642,986.04901,660.83008,238.35336,886.89099,601.56708,200.23553,851.19312
143,1.183,618.91064,198.47989,984.53607,654.08228,237.36844,886.01282,594.53607,200.6232,851.05493
144,1.192,613.4953,197.73444,983.1991,647.34961,237.61504,885.17719,587.42877,201.83447,849.29272
145,1.2,606.05713,198.2023,982.25323,641.24707,238.60713,884.11005,581.90173,200.75406,847.9671
146,1.208,599.70898,198.33632,980.93683,635.70374,237.44487,883.06299,575.81329,199.94951,847.81989
147,1.217,593.2121,198.16017,981.33746,627.32648,238.17352,881.40289,568.8725,200.79929,844.79199
148,1.225,587.10132,197.78423,978.10614,621.42371,238.26112,880.54791,562.52997,200.07809,843.16174
149,1.233,578.41565,199.46483,976.75983,614.45251,238.41605,879.61615,555.82874,200.7775,842.23529
150,1.242,571.53253,199.83453,974.79309,607.64105,239.31512,877.37134,549.06854,201.87758,841.4209
151,1.25,564.62103,199.71719,974.32471,600.4884,239.15352,875.56073,541.68695,200.05231,839.90961
152,1.258,555.56409,200.62599,972.97876,592.84607,240.96568,874.55188,533.91754,200.98593,838.60559
153,1.267,549.80627,201.69142,971.51355,585.07159,239.86829,873.40057,526.73444,203.32057,836.52277
154,1.275,541.8631,201.95239,969.65753,578.08203,240.58696,871.3808,518.95776,203.52596,835.34412
155,1.283,533.55347,202.51875,968.39301,569.77081,242.96204,870.79175,511.44247,203.72592,833.1955
156,1.292,526.36194,204.11838,966.27753,563.18396,243.41771,868.36328,504.22589,205.30449,831.34827
157,1.3,518.75006,205.71318,965.63568,555.01196,243.94821,867.30939,495.95065,205.92081,830.0639
158,1.308,510.25662,205.62523,963.19165,546.96002,245.33743,865.19141,487.59384,206.49564,827.80328
159,1.317,501.20245,206.18488,961.98401,537.91052,245.43137,863.63837,479.36417,207.40276,826.93347
160,1.325,494.21149,207.28053,960.46307,529.7204,246.07466,862.39172,471.18573,209.77956,825.45044
161,1.333,486.10559,209.0605,959.95166,521.5744,248.58257,861.57312,463.25232,209.17668,824.15784
162,1.342,477.65817,208.98277,957.77576,513.50391,249.35654,859.80157,455.13751,210.21086,823.35211
163,1.35,469.38232,211.14539,956.51459,505.20135,251.40331,858.41534,446.35608,211.22583,821.95569
164,1.358,460.91272,212.73743,954.76813,496.52798,252.41371,856.72955,437.81686,212.80956,821.44867
165,1.367,452.50623,212.86916,954.19257,487.88556,253.16708,856.76624,428.38647,213.87166,819.13098
166,1.375,444.15359,214.31337,953.30493,477.94415,254.88441,855.1037,420.37155,215.04604,818.30981
167,1.383,435.17911,216.29477,953.1991,469.30264,255.85112,854.63165,411.03671,216.24213,818.80713
168,1.392,426.79315,217.20421,953.14172,460.24713,257.60211,854.47925,402.13376,217.4498,818.21588
169,1.4,416.78571,219.23062,954.07861,451.28479,258.23654,854.94397,394.02026,219.34888,819.00751
170,1.408,406.8013,220.59138,954.15137,441.36584,260.08179,855.77728,383.84064,220.94925,819.84332
171,1.417,398.08768,220.86115,955.03943,432.86697,261.01349,855.95746,374.194,221.26978,819.52289
172,1.425,389.39154,222.70683,956.56494,422.77228,262.87576,857.57336,364.72528,222.38013,820.5979
173,1.433,380.40463,225.35728,957.38123,413.48843,264.47293,858.14331,355.23141,225.52242,822.31903
174,1.442,370.93384,225.66042,958.36383,404.44266,265.31998,859.76978,345.88004,224.61438,823.64264
175,1.45,361.70734,227.22083,961.03387,394.71826,266.71774,860.93188,336.72421,226.02237,825.30725
176,1.458,352.02844,228.3318,961.64404,384.53287,269.29825,862.1283,327.70773,227.94714,826.81207
177,1.467,343.6106,229.7513,963.03461,374.92053,270.48691,863.34637,317.66086,229.78181,827.85101
178,1.475,334.34192,232.77014,964.37189,365.56705,271.44626,864.50543,306.78195,230.44356,829.42072
179,1.483,324.89197,234.64758,964.90149,355.99121,273.88351,865.78583,298.27573,233.09444,831.55658
180,1.492,315.64975,235.24104,967.07501,345.98599,275.11804,867.64929,288.08194,234.34732,832.60968
181,1.5,306.1279,236.36331,968.57318,336.28668,277.74005,868.49139,278.06241,235.6001,834.3291
182,1.508,298.21292,240.36646,968.95148,326.60251,279.22836,868.81647,267.77338,236.8009,835.27155
183,1.517,288.76947,241.07314,970.22156,316.24243,279.79242,869.83008,258.28922,238.70395,835.72052
184,1.525,278.51947,243.08646,970.93768,305.4845,282.23465,871.21716,247.2021,240.7249,837.71674
185,1.533,268.61664,244.49966,971.49591,296.63864,284.56815,871.04724,238.59515,242.63205,838.4826
186,1.542,260.19882,246.52515,972.08508,286.24738,285.52417,871.21985,227.2589,245.84436,839.3252
187,1.55,250.65785,247.37625,972.59607,275.24393,287.45184,872.5636,216.83153,245.10748,841.06366
188,1.558,241.11469,249.90729,973.69446,264.83887,289.2077,873.39417,207.47337,246.88014,841.38989
189,1.567,232.40886,251.03038,974.58026,254.95993,290.46722,874.16193,196.14281,249.32123,842.90875
190,1.575,222.49113,250.91824,974.57117,244.43835,292.23758,874.40485,186.49673,248.78467,842.67004
191,1.583,213.26247,252.44427,975.75061,234.49017,293.54749,876.18835,177.12325,250.5197,844.56445
192,1.592,203.27266,254.78304,977.10944,223.56012,295.56436,876.54657,165.8582,252.42496,845.59039
193,1.6,193.57292,254.4915,978.02661,212.95622,296.84741,877.19672,156.13788,252.85182,847.27997
194,1.608,184.39235,255.81725,979.2616,203.13275,298.10141,878.89557,147.63612,252.38821,848.98505
195,1.617,176.01826,256.39749,979.79944,192.75015,299.38474,879.62872,135.05989,254.35175,849.33734
196,1.625,166.6044,258.14725,981.99933,182.93367,301.43939,880.98944,126.46275,257.31873,851.13831
197,1.633,157.07968,259.1015,982.07318,173.88376,302.07217,882.2204,116.31715,256.1535,853.146
198,1.642,148.53856,259.34961,983.67169,163.77977,303.23245,883.31921,106.09904,258.39758,853.83496
199,1.65,139.63095,260.21036,985.25677,154.15027,304.48407,884.46515,96.4517,259.32187,856.6286
200,1.658,130.51347,260.91699,985.76874,144.79546,305.95013,885.54846,86.99361,259.33847,857.0163
