Frame#,Time,R.Forearm.x,R.Forearm.y,R.Forearm.z,R.Ulna.x,R.Ulna.y,R.Ulna.z,R.Radius.x,R.Radius.y,R.Radius.z
1,0,-13.29569,-249.77505,803.46582,71.10983,-304.15927,741.96545,154.96364,-227.84544,724.58209
2,0.008,-12.50155,-247.0378,800.71289,72.39451,-300.19974,740.23407,154.80461,-223.15919,722.41168
3,0.017,-12.14161,-243.48405,799.54852,72.65944,-298.0264,738.47156,155.03143,-219.13242,719.56378
4,0.025,-12.03576,-240.68729,797.43134,72.83771,-293.51398,737.58801,154.88528,-217.81393,716.67877
5,0.033,-10.73964,-238.01973,795.67914,73.24255,-290.69894,736.23999,155.36121,-214.57382,715.65479
6,0.042,-11.00791,-235.48186,794.11853,74.51324,-288.8425,735.3064,154.76155,-209.08852,715.11523
7,0.05,-11.31639,-233.63029,793.40369,74.75093,-285.00296,734.14752,154.72435,-206.49951,715.55664
8,0.058,-11.86664,-231.86406,792.75323,74.95907,-281.86642,733.45782,153.39221,-202.46991,716.41528
9,0.067,-12.36672,-229.12517,792.27783,75.29769,-278.96204,733.28809,153.38454,-199.0168,715.93683
10,0.075,-12.36592,-227.94592,792.03589,76.23884,-276.58847,733.5246,153.53062,-194.04765,716.67249
11,0.083,-12.43826,-226.49321,791.75879,76.50805,-272.80142,731.50488,153.2084,-191.90034,715.99475
12,0.092,-12.08462,-225.98282,791.76978,77.3703,-270.75848,731.888,152.67976,-189.61826,716.45801
13,0.1,-11.89354,-224.57353,791.36322,79.31605,-268.10474,731.70801,153.19702,-183.61317,715.98846
14,0.108,-10.38911,-222.38898,791.65552,79.91187,-264.96133,730.57544,152.79028,-181.63412,715.91833
15,0.117,-10.02263,-219.73915,791.51111,80.34524,-261.07281,730.34918,153.35559,-175.68112,716.22748
16,0.125,-9.15282,-218.79834,791.36829,82.26285,-258.50818,730.41321,153.62506,-172.7635,714.86798
17,0.133,-8.17435,-215.58777,790.08936,83.33994,-256.42963,729.84839,154.59225,-170.09219,715.51825
18,0.142,-7.323,-213.08499,790.09021,84.95348,-251.22237,728.95294,155.50378,-163.63867,715.69128
19,0.15,-5.79373,-210.09979,789.24896,85.492,-248.79767,727.38635,155.53864,-161.49303,714.38562
20,0.158,-5.04344,-207.01062,789.02026,87.98403,-244.38028,726.45288,156.76315,-154.68352,712.33929
21,0.167,-3.26527,-204.38417,788.07959,88.06783,-240.53534,724.05273,156.87462,-150.96156,711.55481
22,0.175,-1.08925,-200.84996,787.84845,89.30284,-236.0108,722.27618,157.72925,-146.26614,706.7782
23,0.183,0.33068,-197.13396,786.42273,90.72061,-231.94829,720.40576,157.56693,-142.25626,704.16504
24,0.192,1.94606,-193.82895,785.03497,91.98129,-227.13174,719.23511,157.42613,-136.06441,700.40082
25,0.2,3.27403,-190.12474,783.41968,92.73949,-224.29378,718.03052,157.65437,-130.39259,698.9469
26,0.208,3.53589,-185.6391,782.96832,93.91023,-219.17429,717.09363,157.24084,-127.76623,696.54565
27,0.217,4.17607,-181.24187,781.97028,95.13881,-214.80676,716.26147,157.05249,-124.38303,694.10089
28,0.225,3.73851,-178.34538,780.3443,94.98579,-211.48495,716.5484,156.49474,-121.46959,694.80334
29,0.233,4.08627,-174.35925,780.43115,95.61909,-206.61063,716.12567,156.24847,-116.8399,694.88263
30,0.242,3.81612,-171.27655,779.83325,96.84097,-205.13408,716.67712,156.77303,-113.52999,696.24072
31,0.25,3.30113,-169.59628,779.06604,96.23309,-200.76039,716.27673,156.23193,-105.6065,698.73199
32,0.258,3.12018,-167.99919,780.44983,95.7919,-197.18172,716.67346,156.04794,-101.80846,699.03796
33,0.267,3.13706,-166.56424,780.9906,96.62803,-194.5062,716.91193,155.01724,-99.77607,699.78412
34,0.275,3.59273,-164.74165,781.65918,98.72687,-192.47073,716.98859,154.65791,-94.32322,700.77771
35,0.283,3.96553,-164.12206,782.58319,99.27692,-188.57272,717.87646,153.85376,-90.26187,702.01874
36,0.292,4.37793,-161.76405,783.40741,98.95866,-185.5668,718.11804,153.22896,-88.12067,703.74292
37,0.3,4.19857,-160.51552,783.2149,100.8259,-182.53432,718.50964,153.38385,-81.54994,705.09723
38,0.308,5.34736,-159.35103,783.24719,101.84467,-179.19032,718.73291,153.01079,-80.46935,705.26215
39,0.317,6.17774,-157.30347,783.62927,102.0589,-175.69519,719.59259,153.18559,-75.36419,704.60382
40,0.325,7.08303,-154.63503,783.6731,103.94864,-172.6107,719.90771,153.31079,-72.90181,704.72803
41,0.333,8.39205,-151.93948,784.04657,104.19813,-168.67798,719.44299,154.242,-68.85238,706.03229
42,0.342,10.18585,-149.36966,784.54102,105.96485,-164.9342,718.83331,153.8748,-61.73811,705.06
43,0.35,11.07454,-146.5173,784.52997,107.8289,-161.23744,719.52509,154.01003,-60.67052,704.75098
44,0.358,12.74225,-143.24127,785.10974,108.70415,-156.8237,718.82513,154.2283,-55.27243,704.65668
45,0.367,13.47383,-139.5081,784.93445,110.3493,-153.25079,719.11725,154.0873,-50.23286,703.26862
46,0.375,15.09834,-136.38315,785.43768,110.71921,-148.91948,719.84442,154.54422,-46.41499,703.28528
47,0.383,16.1454,-131.84843,784.82574,112.82629,-145.4194,721.08051,154.82613,-40.85183,703.35553
48,0.392,16.30016,-128.93497,784.99487,114.21837,-141.43732,721.72864,156.24313,-37.63258,703.07019
49,0.4,18.0215,-124.72578,785.50946,115.04092,-137.79689,722.69501,158.04973,-30.67262,703.06866
50,0.408,17.44411,-121.51246,785.94116,115.88772,-134.85535,723.99396,157.68387,-29.3715,706.93951
51,0.417,18.5903,-119.05151,787.54614,117.12459,-132.12134,725.54181,158.87102,-27.33372,708.20099
52,0.425,19.71254,-116.95628,788.89288,118.54401,-129.1004,728.31738,158.8793,-23.10388,712.5387
53,0.433,19.97866,-115.438,790.52026,119.83382,-126.81923,730.74762,159.48431,-21.30512,716.23853
54,0.442,20.68177,-114.53902,792.81116,120.74812,-124.91043,733.33472,160.32088,-19.38699,719.26892
55,0.45,20.89809,-113.91822,795.60828,121.40733,-120.49001,736.61908,159.55823,-16.47963,723.20435
56,0.458,20.8944,-113.12036,798.2002,122.01743,-120.82263,739.875,161.01096,-14.49326,728.11353
57,0.467,22.18334,-112.29173,800.99207,123.15991,-118.63779,743.35461,160.66177,-12.43408,731.22491
58,0.475,23.05575,-111.18893,804.68909,123.96147,-117.76954,747.10999,160.62808,-10.62277,736.31384
59,0.483,23.35847,-112.10414,806.79846,124.80559,-115.45277,751.06525,161.16847,-8.29083,740.53082
60,0.492,23.58743,-110.67921,810.92963,126.97796,-114.71874,754.89709,160.63979,-6.82917,745.46393
61,0.5,23.75429,-111.11429,812.38287,128.15851,-112.69747,759.17487,161.7813,-4.65131,748.64008
62,0.508,24.51826,-109.53856,815.77893,128.16435,-110.6866,762.99255,162.05998,-3.91644,752.61896
63,0.517,25.19288,-109.86919,817.81207,129.76457,-109.7126,765.77405,162.39232,-1.79997,756.34766
64,0.525,25.39577,-108.97362,819.27704,131.42647,-108.06653,769.07013,162.31052,0.06248,760.45496
65,0.533,26.79655,-108.12148,822.01129,132.67096,-106.94278,772.54877,163.41675,0.94204,762.13605
66,0.542,28.32323,-106.69942,824.75555,133.73273,-105.27883,775.13605,163.59814,2.3506,765.80347
67,0.55,29.2277,-106.27388,826.28333,136.30127,-104.55726,777.86859,163.79439,3.63107,769.12018
68,0.558,30.29239,-105.09731,827.81409,137.94106,-101.49996,781.33972,165.95119,5.92934,771.75665
69,0.567,31.60596,-102.57642,830.28235,139.04961,-99.37022,785.05872,167.42351,8.29492,775.22144
70,0.575,33.28437,-101.67269,832.28455,140.85744,-97.62961,788.31726,167.89795,11.21841,776.76563
71,0.583,33.90427,-100.24955,835.19672,142.48985,-95.48895,791.58832,168.83322,15.46087,780.58771
72,0.592,35.07269,-98.05392,837.23395,143.46919,-93.75026,796.08099,169.88933,17.27802,784.17303
73,0.6,35.64803,-96.0965,839.37366,146.35182,-90.01773,798.89282,173.02339,19.45987,788.56677
74,0.608,37.5007,-94.41766,841.83362,147.31853,-89.23399,803.15936,174.57158,20.73762,792.24353
75,0.617,39.09465,-92.23055,844.20703,148.92395,-87.97437,807.29956,175.0762,23.71572,797.46228
76,0.625,40.54697,-91.39854,847.33331,150.48117,-87.26664,810.73303,177.08632,23.27197,802.38446
77,0.633,41.20577,-91.84039,851.88751,152.49361,-86.26472,814.81384,178.38091,24.43784,807.29974
78,0.642,42.84293,-91.15984,854.75323,153.36768,-86.01282,819.93231,179.68495,22.77245,811.49841
79,0.65,43.637,-90.3391,858.58679,154.89677,-85.65426,823.61273,180.86809,23.72957,816.6748
80,0.658,44.54792,-90.04551,862.06696,156.29344,-84.99183,827.66797,181.0495,25.52722,820.97284
81,0.667,45.55272,-90.54168,865.62402,156.83389,-83.38323,831.77563,181.37001,27.23548,825.95374
82,0.675,46.87391,-89.86899,868.21698,157.88724,-82.28429,835.46881,182.17075,28.53586,829.50586
83,0.683,47.48039,-90.27009,872.47589,159.23099,-81.91572,839.6073,182.94096,31.4138,834.6521
84,0.692,47.76842,-90.55383,873.83917,160.16508,-81.01662,843.60748,183.66205,28.98973,837.4397
85,0.7,48.46906,-90.44686,878.00946,160.48537,-81.09239,846.26373,184.31,30.00898,841.36884
86,0.708,49.29248,-89.55359,879.28198,161.14938,-80.87389,850.37054,184.44225,29.95686,843.91693
87,0.717,49.87543,-89.37159,882.86115,162.25974,-80.8711,853.63928,184.6236,29.65645,848.7525
88,0.725,49.25109,-89.13548,884.50732,162.20972,-80.45573,856.85095,185.25565,29.95122,852.14984
89,0.733,49.87584,-88.99828,886.76624,163.3255,-80.56345,859.96722,186.08133,29.60395,856.37933
90,0.742,50.00906,-88.98571,888.21851,164.05669,-79.83592,863.34979,187.27287,29.68471,858.86932
91,0.75,50.09107,-87.87546,891.38507,164.09364,-79.14162,866.90869,187.10539,31.2995,863.36841
92,0.758,50.42002,-89.25646,893.56812,164.66029,-79.4985,870.58252,188.02078,33.07005,866.59698
93,0.767,51.38514,-88.50365,896.00311,164.8476,-77.78071,874.56976,187.88116,32.84262,870.68359
94,0.775,51.29869,-87.25358,898.14545,165.47519,-77.98535,878.83923,189.04893,33.69201,873.44141
95,0.783,51.69271,-85.10795,900.72937,166.69719,-77.03793,883.59613,189.63602,35.39374,878.39294
96,0.792,52.38085,-84.36166,903.54413,166.73999,-75.83866,887.3949,190.24478,37.96932,883.54968
97,0.8,52.89231,-84.5687,905.82843,167.34291,-76.34615,891.50861,190.58896,37.49905,888.1554
98,0.808,53.14335,-84.84377,908.79761,168.99408,-75.26303,895.07166,191.35664,37.70797,892.57715
99,0.817,53.84057,-84.24789,911.66455,169.57852,-74.91345,900.5733,192.72116,37.60662,898.02203
100,0.825,53.95662,-84.46095,915.19653,170.07172,-75.5029,903.77423,193.57762,38.45319,901.95813
101,0.833,55.32774,-84.88821,918.16827,172.20906,-75.25092,908.38855,194.19437,37.88231,906.58307
102,0.842,56.55696,-84.05911,921.9682,172.44765,-75.26579,912.82727,194.22481,38.0516,910.54486
103,0.85,57.50044,-84.37861,923.91846,172.442,-75.34084,915.71045,195.80066,37.95812,913.72888
104,0.858,58.94085,-85.29329,928.0238,173.9991,-75.56805,919.81207,196.99802,36.96778,917.07983
105,0.867,59.17673,-83.99888,930.80493,175.21306,-74.90611,922.3125,197.75569,36.90451,919.7041
106,0.875,59.90157,-84.83369,934.83331,175.6602,-76.08749,926.04327,198.37192,36.24413,922.6651
107,0.883,61.06841,-84.81573,938.29791,176.19583,-74.88066,929.30811,198.80704,36.03469,925.46021
108,0.892,61.49468,-84.04729,939.75134,177.07597,-75.91388,933.30975,201.3251,34.59695,928.15332
109,0.9,62.39489,-84.19616,943.4444,178.46951,-76.96359,935.35553,202.02742,33.83169,931.28394
110,0.908,62.21305,-85.64165,945.46143,178.62769,-76.69482,938.79895,202.59637,33.34171,934.46722
111,0.917,63.39757,-83.27197,947.77032,178.83733,-77.13841,941.62036,202.71751,34.01606,936.93207
112,0.925,62.58013,-84.46172,949.8656,178.44522,-77.48024,945.30621,202.69115,35.33502,940.64587
113,0.933,63.41496,-85.9743,951.59436,178.64326,-77.82648,948.45178,203.00801,33.7598,943.57031
114,0.942,63.80938,-85.48388,953.96881,179.47714,-77.94156,950.78546,204.35068,34.10308,946.23566
115,0.95,63.17226,-85.0174,956.23914,179.00313,-77.75237,953.87421,204.32411,33.25735,948.86261
116,0.958,63.71092,-84.96967,958.56586,180.11229,-78.05009,957.42383,204.37129,33.88574,951.4621
117,0.967,63.6494,-84.83059,960.49689,179.47331,-77.87015,959.44092,204.62511,33.1983,954.34985
118,0.975,62.91891,-86.11162,961.84802,180.314,-78.30408,963.71777,204.58667,32.85241,956.78912
119,0.983,62.58706,-86.12997,964.12415,179.77385,-78.14117,965.14124,204.21162,32.65672,960.90845
120,0.992,62.80901,-86.02852,966.30151,179.56165,-78.71734,970.22687,204.33771,32.89736,964.10504
121,1,62.73643,-85.98441,968.2395,179.30724,-78.37383,972.164,203.80231,32.63594,968.3446
122,1.008,62.59674,-86.19003,969.75745,179.43652,-80.06632,976.44556,204.0287,31.80387,971.80304
123,1.017,62.47555,-86.49391,972.51636,178.89929,-79.52245,978.99005,203.98239,31.29757,976.55347
124,1.025,62.33379,-86.62769,974.9361,178.73564,-81.10296,981.37573,204.35028,31.46049,980.16992
125,1.033,62.05219,-86.43166,977.04968,178.88927,-80.10694,984.75385,203.83957,28.88411,983.74146
126,1.042,61.79151,-87.19385,978.55072,178.78516,-81.53103,987.39374,204.68741,30.69632,986.68555
127,1.05,62.04306,-88.39997,981.26819,178.80772,-81.86139,990.32996,204.47864,29.21551,990.54565
128,1.058,62.49945,-88.07759,983.63361,179.26215,-81.96502,992.4129,204.83447,28.56601,992.67303
129,1.067,62.68571,-88.31737,985.68677,178.87581,-82.87883,995.21777,205.72665,27.74311,995.46667
130,1.075,62.72904,-88.18658,988.52887,179.32645,-83.2082,998.09393,206.09685,27.98715,997.43597
131,1.083,62.72948,-89.49465,991.01678,179.40388,-83.24883,1000.31421,207.05254,26.05285,999.87396
132,1.092,63.90902,-88.68227,992.9552,180.1129,-84.6811,1002.39911,208.03221,25.26966,1002.14996
133,1.1,63.91385,-89.64082,995.16052,181.78952,-85.51852,1004.48047,208.87672,24.71652,1004.89899
134,1.108,63.72878,-89.27682,997.94727,181.70097,-86.17099,1007.01459,209.1188,23.69857,1007.23492
135,1.117,64.57799,-89.36918,999.24957,180.98459,-87.03415,1009.78949,209.44598,24.64878,1009.53601
136,1.125,64.97401,-89.91029,1001.61804,181.65216,-86.21054,1011.38293,209.35463,22.85627,1012.14868
137,1.133,64.50594,-90.07822,1003.8219,181.68066,-86.40935,1013.81842,209.30548,23.51685,1014.42102
138,1.142,64.99604,-90.404,1005.71643,181.17213,-86.41742,1016.93652,209.98318,23.46395,1015.9386
139,1.15,64.77387,-89.48623,1007.5993,180.91917,-86.34343,1018.96289,209.99234,23.91728,1017.51318
140,1.158,64.74132,-89.10966,1009.01465,180.91716,-87.06825,1021.15588,209.89565,23.44963,1019.88428
141,1.167,64.65836,-89.18318,1009.7547,180.58659,-86.3856,1024.21667,209.6535,23.29948,1021.43756
142,1.175,64.35809,-89.29803,1010.9621,180.19615,-86.93343,1026.43567,210.62399,23.48783,1023.35571
143,1.183,64.79817,-90.41389,1012.62469,180.12717,-87.18125,1029.15918,210.4037,22.43546,1025.4823
144,1.192,64.22427,-88.77863,1013.98199,179.34686,-86.90199,1030.60168,211.53378,22.88631,1027.72083
145,1.2,63.82658,-89.35844,1015.04291,179.98308,-87.03372,1032.39624,212.38995,21.84857,1030.04199
146,1.208,63.81321,-90.08263,1016.10693,179.99736,-88.17771,1035.65662,212.03285,21.68988,1031.60828
147,1.217,63.80218,-90.11423,1018.06671,179.22197,-89.39028,1037.24976,212.80658,21.18063,1033.38635
148,1.225,63.91239,-89.97255,1019.27899,179.11354,-89.70535,1038.38013,212.76897,21.86329,1035.6615
149,1.233,63.78286,-90.50484,1020.80969,179.14136,-91.45675,1040.38367,213.63419,18.59958,1037.4978
150,1.242,62.6915,-90.67522,1022.17627,178.75497,-91.71163,1043.08508,213.66824,16.89853,1040.58459
151,1.25,62.87978,-91.27323,1023.65527,178.36298,-92.30303,1045.20374,213.88445,16.82401,1042.81421
152,1.258,62.74466,-91.94765,1024.5144,177.87688,-93.17252,1047.74878,213.19299,15.6478,1045.50818
153,1.267,62.33235,-92.44286,1026.28809,177.28008,-94.74457,1049.98218,213.05103,15.91915,1048.6759
154,1.275,62.69897,-93.76927,1027.69116,177.50311,-96.35995,1052.07373,212.24648,13.12853,1051.00745
155,1.283,62.32129,-94.52338,1029.21155,177.59143,-97.68331,1054.29504,212.5602,11.18873,1053.22302
156,1.292,61.92806,-96.21519,1032.30835,177.49623,-97.69238,1056.89807,212.34175,9.45705,1054.80859
157,1.3,61.47875,-97.78067,1034.49377,177.18829,-98.42417,1058.77942,212.55354,9.04174,1056.5824
158,1.308,60.99781,-97.77269,1035.42664,177.13597,-99.56271,1061.70483,212.24013,8.7664,1059.15259
159,1.317,61.38194,-98.07418,1038.84204,176.79308,-100.05286,1063.33069,212.47461,8.79868,1061.23608
160,1.325,61.7129,-99.29079,1039.86963,176.5609,-99.91889,1065.18066,212.59555,7.76197,1063.49854
161,1.333,61.90108,-99.31776,1041.07837,176.2486,-100.33835,1066.77283,211.81679,7.70017,1065.37329
162,1.342,63.79867,-101.25942,1043.19226,177.05556,-101.23298,1068.07446,212.39825,7.76116,1066.86108
163,1.35,63.59637,-100.85717,1044.99878,177.76421,-101.93748,1069.42505,212.24451,8.62778,1068.50244
164,1.358,63.07803,-101.11782,1046.02759,178.86284,-102.52267,1069.39282,212.33276,8.09316,1069.08264
165,1.367,63.54494,-100.9863,1047.17712,178.60568,-103.46629,1070.38757,213.98468,6.50478,1069.73462
166,1.375,63.63437,-101.27406,1047.63477,178.94281,-103.61409,1070.59338,215.01965,5.58782,1069.17798
167,1.383,63.66711,-101.24469,1047.72058,178.80396,-103.81069,1070.72705,216.28221,4.72116,1069.7179
168,1.392,64.16617,-100.63656,1047.37512,178.53091,-104.75391,1071.2511,216.91225,4.37525,1069.49683
169,1.4,64.52229,-100.33365,1047.28455,177.84563,-104.91507,1071.70251,218.20503,4.10034,1069.80969
170,1.408,64.84242,-99.30173,1046.90027,177.81776,-105.05869,1072.51782,219.12231,1.78593,1070.51953
171,1.417,64.5876,-99.35272,1046.77795,176.85123,-105.47437,1073.8335,219.62872,0.42088,1070.97449
172,1.425,64.102,-100.12633,1047.00342,176.61688,-105.78143,1074.3291,219.8,-0.2393,1071.90674
173,1.433,63.59836,-101.09727,1046.98608,176.73434,-107.3212,1075.57092,219.57899,-1.6865,1072.89673
174,1.442,63.3827,-101.47963,1047.58911,175.80991,-108.44404,1076.78601,217.91342,-2.10563,1075.98779
175,1.45,63.22199,-102.65461,1047.70776,175.52086,-109.8266,1077.86182,216.31874,-2.50838,1077.13684
176,1.458,62.47565,-104.13963,1048.99976,174.73024,-110.93028,1078.99988,215.38632,-3.60588,1079.09155
177,1.467,61.85139,-105.60218,1050.52905,174.15521,-112.64318,1080.17859,215.20587,-5.87413,1081.5238
178,1.475,60.58442,-107.81763,1052.02356,173.09296,-113.81219,1081.37659,213.9897,-7.39332,1082.8645
179,1.483,59.84214,-108.15329,1052.17395,173.01634,-114.86002,1083.2572,213.60461,-7.93488,1084.29395
180,1.492,58.94761,-109.16895,1053.33459,172.34674,-116.86687,1084.86401,213.42467,-9.35739,1086.54871
181,1.5,58.68332,-110.66545,1055.32422,171.79346,-117.06426,1085.75684,212.26186,-11.08841,1087.46387
182,1.508,58.26827,-111.27168,1056.59778,171.88399,-117.70888,1087.37476,212.23868,-12.07819,1088.94568
183,1.517,57.07213,-111.25668,1057.604,171.2579,-118.67603,1089.37061,211.73137,-13.18286,1090.04077
184,1.525,57.42859,-111.13033,1058.11597,169.76411,-118.40666,1090.97351,210.19736,-13.53166,1092.32654
185,1.533,57.45074,-111.84225,1058.83374,169.92813,-118.91034,1091.83533,210.45268,-12.53512,1093.52917
186,1.542,58.18728,-111.55316,1060.26514,170.18494,-118.92099,1092.2168,210.50493,-13.54418,1094.97742
187,1.55,58.66056,-111.71691,1061.56018,170.4469,-119.23219,1092.37744,209.93019,-13.18609,1096.11902
188,1.558,58.69656,-111.97717,1062.50793,171.64085,-119.48564,1091.90479,212.8849,-14.24183,1095.91687
189,1.567,59.03412,-111.85048,1063.38379,172.49088,-120.06421,1091.8938,214.08783,-14.33883,1094.8396
190,1.575,60.28141,-111.07281,1063.61963,172.51192,-120.32568,1091.91467,214.39917,-14.49603,1094.64941
191,1.583,60.87844,-110.78387,1063.36987,173.59436,-120.91743,1091.95215,217.26131,-14.26642,1093.24646
192,1.592,61.37022,-111.0993,1063.02527,173.71902,-120.79969,1092.04492,218.30113,-14.70275,1093.08252
193,1.6,62.09049,-111.01775,1063.08081,174.15681,-120.96523,1092.13196,219.45651,-15.79566,1092.24902
194,1.608,62.0458,-110.7294,1062.83252,174.42024,-121.33572,1092.25793,220.13235,-17.39391,1092.51587
195,1.617,62.40493,-109.73587,1061.93799,174.30443,-121.33164,1092.71033,220.58321,-17.84753,1092.65564
196,1.625,62.23667,-110.0399,1062.14929,173.58809,-121.84083,1093.3927,220.39583,-17.88994,1093.21606
197,1.633,62.06592,-110.78115,1062.56628,173.20352,-123.029,1094.76208,219.33395,-18.46579,1095.29492
198,1.642,61.44595,-110.86481,1063.01758,172.20915,-123.98074,1095.79858,219.23268,-19.53434,1096.53088
199,1.65,60.97759,-111.08549,1063.3418,171.67059,-125.35134,1097.01001,217.68929,-19.90469,1097.8186
200,1.658,59.59204,-113.9529,1064.203,171.34793,-125.94543,1097.74011,216.79765,-20.77688,1099.14307
201,1.667,59.2548,-114.96503,1064.64624,170.81,-126.7111,1098.47827,215.73218,-20.8917,1100.19006
