Frame#,Time,R.Forearm.x,R.Forearm.y,R.Forearm.z,R.Ulna.x,R.Ulna.y,R.Ulna.z,R.Radius.x,R.Radius.y,R.Radius.z
1,0,280.94083,-294.94998,1355.93408,380.0723,-287.14581,1329.44019,355.48141,-216.82291,1376.43933
2,0.008,280.73584,-294.80591,1355.72021,379.80322,-287.33868,1329.3252,355.83936,-217.42406,1376.46143
3,0.017,280.52634,-295.06021,1356.03284,379.80322,-287.33868,1329.3252,355.83936,-217.42406,1376.46143
4,0.025,280.36301,-295.20612,1356.18726,379.52628,-287.26385,1329.48511,355.83936,-217.42406,1376.46143
5,0.033,280.20279,-295.44342,1356.46326,379.52628,-287.26385,1329.48511,355.83936,-217.42406,1376.46143
6,0.042,279.99063,-295.60123,1356.71887,378.83621,-287.30048,1329.56677,355.75064,-217.60626,1376.03455
7,0.05,279.82108,-295.79224,1356.98657,378.87561,-287.30841,1329.48413,355.0134,-216.95332,1376.00708
8,0.058,279.66083,-295.98648,1357.24976,378.88065,-287.34491,1329.72034,355.0134,-216.95332,1376.00708
9,0.067,279.44882,-296.0416,1357.36707,378.0816,-286.80362,1329.04675,354.39294,-216.63045,1375.61597
10,0.075,279.2291,-296.0217,1357.37439,377.65036,-287.10281,1329.18433,354.39294,-216.63045,1375.61597
11,0.083,279.04538,-295.97983,1357.31665,377.41049,-287.41711,1329.01733,354.89496,-218.79558,1377.28015
12,0.092,278.81784,-295.9082,1357.23047,377.41049,-287.41711,1329.01733,354.89496,-218.79558,1377.28015
13,0.1,278.5498,-295.83163,1357.11719,376.68048,-287.29352,1329.08984,354.27536,-218.47408,1376.89001
14,0.108,278.29474,-295.91669,1357.21436,376.23157,-287.2774,1329.09973,352.58221,-214.90269,1378.22998
15,0.117,278.03757,-295.98923,1357.30408,375.95773,-287.45798,1328.99805,352.76233,-213.33241,1377.40784
16,0.125,277.82877,-295.99341,1357.29724,375.95773,-287.45798,1328.99805,352.63162,-217.16991,1376.58337
17,0.133,277.5946,-296.02487,1357.23242,375.95773,-287.45798,1328.99805,352.63162,-217.16991,1376.58337
18,0.142,277.34753,-296.03766,1357.1488,375.95773,-287.45798,1328.99805,351.81332,-216.33521,1376.73083
19,0.15,277.09634,-295.86789,1356.8916,375.71115,-287.36911,1329.11877,351.81332,-216.33521,1376.73083
20,0.158,276.76392,-295.69986,1356.62146,375.45297,-287.64792,1329.15137,351.16806,-213.62036,1374.4939
21,0.167,276.37674,-295.56961,1356.42468,375.10358,-287.82599,1329.39856,351.16806,-213.62036,1374.4939
22,0.175,276.09109,-295.40402,1356.25378,375.10358,-287.82599,1329.39856,351.10092,-213.91264,1374.11365
23,0.183,275.85446,-295.28717,1356.14612,374.77145,-287.83511,1329.37573,350.57758,-214.30482,1374.56433
24,0.192,275.60934,-295.26941,1356.08142,374.40509,-287.80109,1329.41418,350.57758,-214.30482,1374.56433
25,0.2,275.46725,-295.2887,1356.10571,374.40509,-287.80109,1329.41418,350.57758,-214.30482,1374.56433
26,0.208,275.31512,-295.43607,1356.2821,374.27057,-287.71646,1329.15881,350.57758,-214.30482,1374.56433
27,0.217,275.0668,-295.42905,1356.33044,373.96756,-287.86459,1329.7406,350.017,-214.76805,1374.96899
28,0.225,274.79367,-295.397,1356.32458,373.96756,-287.86459,1329.7406,350.13382,-214.84747,1374.56616
29,0.233,274.54541,-295.3176,1356.30701,373.49976,-287.70007,1329.78931,350.017,-214.76805,1374.96899
30,0.242,274.26083,-295.1882,1356.20276,373.36517,-287.61542,1329.53394,349.69864,-215.15443,1374.97546
31,0.25,274.02402,-294.92316,1355.92322,373.36517,-287.61542,1329.53394,349.69864,-215.15443,1374.97546
32,0.258,273.86835,-294.84702,1355.8197,373.13947,-287.34189,1329.41406,348.53232,-216.1456,1375.76807
33,0.267,273.62259,-294.67633,1355.52271,373.13947,-287.34189,1329.41406,348.53232,-216.1456,1375.76807
34,0.275,273.38083,-294.49997,1355.22949,372.4678,-287.42142,1329.28064,348.52316,-216.40425,1375.31982
35,0.283,273.17966,-294.34399,1354.9762,372.4678,-287.42142,1329.28064,348.52316,-216.40425,1375.31982
36,0.292,272.95126,-294.21228,1354.79626,371.93384,-286.65414,1328.98071,348.05148,-213.73665,1375.28125
37,0.3,272.71207,-294.14261,1354.65564,371.93384,-286.65414,1328.98071,347.59729,-213.8255,1375.29138
38,0.308,272.5296,-294.14633,1354.74695,371.93384,-286.65414,1328.98071,347.17029,-212.9803,1375.09949
39,0.317,272.28397,-294.15109,1354.81384,371.40225,-286.51959,1329.15918,347.18445,-213.25705,1374.9071
40,0.325,272.04361,-294.02072,1354.81409,371.06976,-286.52881,1329.13635,347.65878,-212.51076,1377.82776
41,0.333,271.79074,-293.99503,1354.81433,371.06976,-286.52881,1329.13635,347.17029,-212.9803,1375.09949
42,0.342,271.56396,-294.05899,1354.91443,371.06976,-286.52881,1329.13635,346.85748,-213.40529,1375.60828
43,0.35,271.39743,-294.13818,1355.04211,371.06976,-286.52881,1329.13635,346.88962,-211.82875,1377.92297
44,0.358,271.20831,-293.94971,1355.00024,371.06976,-286.52881,1329.13635,347.28323,-216.76729,1376.48193
45,0.367,270.96921,-293.90955,1355.09033,370.28525,-286.59573,1329.01782,348.1228,-220.92804,1378.08301
46,0.375,270.76337,-293.7529,1355.13721,370.28525,-286.59573,1329.01782,345.95343,-216.19029,1379.31494
47,0.383,270.48416,-293.34998,1354.8949,369.84528,-286.57581,1329.47485,345.36246,-216.80511,1376.38
48,0.392,270.23215,-293.11026,1354.76428,370.05771,-286.66333,1329.35461,347.33221,-220.27666,1377.97864
49,0.4,270.06436,-293.01309,1354.71814,369.83911,-286.71432,1329.16296,344.56262,-215.97612,1376.05591
50,0.408,269.9458,-292.91376,1354.62439,369.14432,-286.21878,1329.51624,344.56262,-215.97612,1376.05591
51,0.417,269.80551,-292.79541,1354.50574,368.92273,-286.44144,1329.65112,344.18161,-216.10164,1375.97583
52,0.425,269.72592,-292.77066,1354.47937,368.92273,-286.44144,1329.65112,346.06381,-219.33023,1377.65125
53,0.433,269.60715,-292.61172,1354.37976,368.64056,-285.99258,1329.3634,343.52625,-214.85219,1375.60913
54,0.442,269.5047,-292.56403,1354.34924,368.13913,-286.33487,1329.23083,343.07379,-214.90501,1375.67957
55,0.45,269.4509,-292.56348,1354.46802,368.13913,-286.33487,1329.23083,345.2388,-218.71465,1377.43823
56,0.458,269.39291,-292.58551,1354.56055,368.13913,-286.33487,1329.23083,343.07379,-214.90501,1375.67957
57,0.467,269.29297,-292.54074,1354.52869,368.13913,-286.33487,1329.23083,343.07379,-214.90501,1375.67957
58,0.475,269.16803,-292.44772,1354.38135,367.95023,-286.272,1329.41736,342.61954,-214.99361,1375.68958
59,0.483,269.10229,-292.48199,1354.52698,367.67221,-286.19724,1329.57764,342.61954,-214.99361,1375.68958
60,0.492,268.96182,-292.56381,1354.5752,367.35251,-286.17941,1329.66504,342.61954,-214.99361,1375.68958
61,0.5,268.76105,-292.65768,1354.72754,366.86588,-285.51001,1329.5708,342.61954,-214.99361,1375.68958
62,0.508,268.60049,-292.8634,1355.14441,366.73679,-285.6402,1329.64905,342.61954,-214.99361,1375.68958
63,0.517,268.41248,-293.06525,1355.5968,366.73679,-285.6402,1329.64905,342.245,-214.98601,1375.83679
64,0.525,268.20322,-293.16565,1355.77942,366.73679,-285.6402,1329.64905,342.245,-214.98601,1375.83679
65,0.533,267.9982,-293.16171,1355.89099,366.1167,-285.07376,1329.71094,342.245,-214.98601,1375.83679
66,0.542,267.86057,-293.15973,1355.995,366.1167,-285.07376,1329.71094,342.245,-214.98601,1375.83679
67,0.55,267.7009,-293.1033,1356.00671,366.1167,-285.07376,1329.71094,342.245,-214.98601,1375.83679
68,0.558,267.54398,-293.10971,1356.08337,365.58725,-285.05194,1329.57422,342.245,-214.98601,1375.83679
69,0.567,267.35162,-293.09225,1356.11853,365.58725,-285.05194,1329.57422,342.245,-214.98601,1375.83679
70,0.575,267.14667,-293.03738,1356.11694,365.27161,-285.08801,1329.51331,342.12369,-214.87439,1376.07263
71,0.583,266.92105,-292.92703,1356.06946,365.04385,-285.27258,1329.46899,342.12369,-214.87439,1376.07263
72,0.592,266.71198,-292.8251,1356.02856,365.04385,-285.27258,1329.46899,341.83127,-215.01624,1375.93347
73,0.6,266.54001,-292.64771,1355.89966,365.04385,-285.27258,1329.46899,341.54837,-214.96475,1376.12402
74,0.608,266.38547,-292.46234,1355.79285,365.04385,-285.27258,1329.46899,341.54837,-214.96475,1376.12402
75,0.617,266.23227,-292.23743,1355.677,365.04385,-285.27258,1329.46899,340.55783,-213.73621,1375.84082
76,0.625,266.08405,-292.06885,1355.58289,365.04385,-285.27258,1329.46899,340.89206,-213.71483,1375.75732
77,0.633,265.90411,-291.89441,1355.47546,364.95624,-285.14713,1329.21924,340.15854,-213.85056,1375.78796
78,0.642,265.68234,-291.70654,1355.25671,364.95624,-285.14713,1329.21924,341.10843,-215.53424,1376.53259
79,0.65,265.39615,-291.46494,1354.90405,364.6825,-285.07077,1329.32178,341.10843,-215.53424,1376.53259
80,0.658,265.15231,-291.36172,1354.69226,364.77017,-285.19623,1329.57153,341.10843,-215.53424,1376.53259
81,0.667,264.97021,-291.30038,1354.63501,364.77017,-285.19623,1329.57153,339.67227,-213.06561,1375.27563
82,0.675,264.83069,-291.25589,1354.63513,364.43057,-285.12851,1329.23132,340.16202,-212.59328,1377.99817
83,0.683,264.64981,-291.18488,1354.58533,364.43057,-285.12851,1329.23132,340.16202,-212.59328,1377.99817
84,0.692,264.52191,-291.18454,1354.6825,364.43057,-285.12851,1329.23132,340.16202,-212.59328,1377.99817
85,0.7,264.36798,-291.15012,1354.651,364.43057,-285.12851,1329.23132,340.16202,-212.59328,1377.99817
86,0.708,264.21469,-291.04626,1354.47803,364.00833,-284.68222,1329.125,339.72604,-212.69185,1377.98657
87,0.717,264.04575,-290.92969,1354.26318,364.00833,-284.68222,1329.125,339.67679,-211.95065,1377.53137
88,0.725,263.98099,-290.89188,1354.24402,363.68533,-284.2684,1328.8656,339.72604,-212.69185,1377.98657
89,0.733,263.89508,-290.88528,1354.20398,363.37955,-284.21024,1328.94092,339.67679,-211.95065,1377.53137
90,0.742,263.80673,-290.82428,1354.18567,363.37955,-284.21024,1328.94092,338.91809,-212.6748,1375.04065
91,0.75,263.68121,-290.73492,1354.14343,362.69839,-283.55804,1329.06677,338.91809,-212.6748,1375.04065
92,0.758,263.56464,-290.64584,1354.09753,363.06125,-283.55841,1329.07666,338.20883,-212.2209,1375.30554
93,0.767,263.41705,-290.58322,1354.02673,362.58221,-283.52148,1329.32739,338.20883,-212.2209,1375.30554
94,0.775,263.29993,-290.55508,1354.03821,362.36298,-283.37494,1329.53271,338.20883,-212.2209,1375.30554
95,0.783,263.1593,-290.52246,1353.97437,362.58221,-283.52148,1329.32739,338.20883,-212.2209,1375.30554
96,0.792,263.06503,-290.50522,1353.89001,362.3425,-283.81253,1329.39526,338.9407,-213.95262,1375.91504
97,0.8,263.02072,-290.53397,1353.93591,362.36298,-283.37494,1329.53271,338.93372,-211.993,1377.63806
98,0.808,262.9653,-290.496,1353.87292,362.58221,-283.52148,1329.32739,338.20883,-212.2209,1375.30554
99,0.817,262.8938,-290.44647,1353.78223,362.36298,-283.37494,1329.53271,338.20883,-212.2209,1375.30554
100,0.825,262.88483,-290.38718,1353.724,362.36298,-283.37494,1329.53271,338.20883,-212.2209,1375.30554
101,0.833,262.8248,-290.22128,1353.56628,362.12326,-283.66599,1329.60046,338.20883,-212.2209,1375.30554
102,0.842,262.73776,-290.01279,1353.26953,362.36298,-283.37494,1329.53271,338.20883,-212.2209,1375.30554
103,0.85,262.72272,-290.03036,1353.27527,362.36298,-283.37494,1329.53271,338.20883,-212.2209,1375.30554
104,0.858,262.4863,-290.23721,1353.10925,362.36298,-283.37494,1329.53271,338.20883,-212.2209,1375.30554
105,0.867,262.46896,-290.35904,1353.01782,361.94186,-283.35999,1329.54248,338.20883,-212.2209,1375.30554
106,0.875,262.27084,-290.78018,1353.04651,361.94186,-283.35999,1329.54248,338.20883,-212.2209,1375.30554
107,0.883,262.05679,-291.20322,1353.08093,361.94186,-283.35999,1329.54248,338.20883,-212.2209,1375.30554
108,0.892,261.81909,-291.44281,1352.94348,361.94186,-283.35999,1329.54248,338.20883,-212.2209,1375.30554
109,0.9,261.81909,-291.44281,1352.94348,361.77835,-283.28992,1329.69006,338.20883,-212.2209,1375.30554
110,0.908,261.59729,-291.58334,1352.93445,361.24167,-282.52057,1329.38953,338.20883,-212.2209,1375.30554
111,0.917,261.59729,-291.58334,1352.93445,361.40521,-282.59064,1329.24194,338.20883,-212.2209,1375.30554
112,0.925,261.59729,-291.58334,1352.93445,361.40521,-282.59064,1329.24194,338.20883,-212.2209,1375.30554
113,0.933,261.59729,-291.58334,1352.93445,361.24167,-282.52057,1329.38953,336.98972,-210.73671,1375.23901
114,0.942,261.59729,-291.58334,1352.93445,361.2879,-282.64841,1329.20642,337.31046,-211.14951,1374.62439
115,0.95,261.59729,-291.58334,1352.93445,361.40521,-282.59064,1329.24194,337.31046,-211.14951,1374.62439
116,0.958,261.59729,-291.58334,1352.93445,361.40521,-282.59064,1329.24194,338.20883,-212.2209,1375.30554
117,0.967,261.59729,-291.58334,1352.93445,361.40521,-282.59064,1329.24194,338.20883,-212.2209,1375.30554
118,0.975,261.59729,-291.58334,1352.93445,361.40491,-282.57126,1329.20911,337.31046,-211.14951,1374.62439
119,0.983,261.59729,-291.58334,1352.93445,361.33929,-282.51755,1329.30884,337.31046,-211.14951,1374.62439
120,0.992,261.59729,-291.58334,1352.93445,361.40521,-282.59064,1329.24194,337.31046,-211.14951,1374.62439
121,1,261.59729,-291.58334,1352.93445,361.40521,-282.59064,1329.24194,337.31046,-211.14951,1374.62439
122,1.008,261.59729,-291.58334,1352.93445,361.40521,-282.59064,1329.24194,337.03778,-211.0881,1374.80981
123,1.017,261.59729,-291.58334,1352.93445,361.40521,-282.59064,1329.24194,338.1868,-211.73318,1372.98547
124,1.025,261.59729,-291.58334,1352.93445,361.40521,-282.59064,1329.24194,337.03778,-211.0881,1374.80981
125,1.033,261.59729,-291.58334,1352.93445,361.40521,-282.59064,1329.24194,337.31046,-211.14951,1374.62439
126,1.042,261.59729,-291.58334,1352.93445,361.52148,-282.62732,1328.98132,337.31046,-211.14951,1374.62439
127,1.05,261.59729,-291.58334,1352.93445,361.52148,-282.62732,1328.98132,337.03778,-211.0881,1374.80981
128,1.058,261.59729,-291.58334,1352.93445,361.52148,-282.62732,1328.98132,337.31046,-211.14951,1374.62439
129,1.067,261.59729,-291.58334,1352.93445,361.56769,-282.75513,1328.7981,337.31046,-211.14951,1374.62439
130,1.075,261.59729,-291.58334,1352.93445,361.56769,-282.75513,1328.7981,337.31046,-211.14951,1374.62439
131,1.083,261.59729,-291.58334,1352.93445,361.52148,-282.62732,1328.98132,337.31046,-211.14951,1374.62439
132,1.092,261.59729,-291.58334,1352.93445,361.56769,-282.75513,1328.7981,337.03778,-211.0881,1374.80981
133,1.1,261.59729,-291.58334,1352.93445,361.35794,-282.55725,1329.12891,337.03778,-211.0881,1374.80981
134,1.108,261.59729,-291.58334,1352.93445,361.40521,-282.59064,1329.24194,337.03778,-211.0881,1374.80981
135,1.117,261.59729,-291.58334,1352.93445,361.40521,-282.59064,1329.24194,337.03778,-211.0881,1374.80981
136,1.125,261.59729,-291.58334,1352.93445,361.40521,-282.59064,1329.24194,337.03778,-211.0881,1374.80981
137,1.133,261.59729,-291.58334,1352.93445,361.24167,-282.52057,1329.38953,337.03778,-211.0881,1374.80981
138,1.142,261.59729,-291.58334,1352.93445,361.24167,-282.52057,1329.38953,336.4837,-210.56146,1375.05627
139,1.15,261.59729,-291.58334,1352.93445,361.40521,-282.59064,1329.24194,336.4837,-210.56146,1375.05627
140,1.158,261.59729,-291.58334,1352.93445,361.40521,-282.59064,1329.24194,337.35953,-210.84761,1375.06909
141,1.167,261.59729,-291.58334,1352.93445,361.24167,-282.52057,1329.38953,336.564,-210.26781,1375.45959
142,1.175,261.59729,-291.58334,1352.93445,361.24167,-282.52057,1329.38953,337.03778,-211.0881,1374.80981
143,1.183,261.59729,-291.58334,1352.93445,361.24167,-282.52057,1329.38953,337.03778,-211.0881,1374.80981
144,1.192,261.59729,-291.58334,1352.93445,361.24167,-282.52057,1329.38953,337.03778,-211.0881,1374.80981
145,1.2,261.59729,-291.58334,1352.93445,361.24167,-282.52057,1329.38953,337.86771,-211.59747,1376.03845
146,1.208,261.6788,-291.6058,1353.10388,361.24167,-282.52057,1329.38953,337.86771,-211.59747,1376.03845
147,1.217,261.78278,-291.65054,1353.34753,361.24167,-282.52057,1329.38953,342.00586,-219.4182,1378.86218
148,1.225,261.90244,-291.65976,1353.57031,361.24167,-282.52057,1329.38953,342.00586,-219.4182,1378.86218
149,1.233,261.97482,-291.66891,1353.63428,361.24167,-282.52057,1329.38953,342.00586,-219.4182,1378.86218
150,1.242,261.98596,-291.60873,1353.61938,361.24167,-282.52057,1329.38953,342.00586,-219.4182,1378.86218
151,1.25,261.90039,-291.51422,1353.40515,361.24167,-282.52057,1329.38953,342.00586,-219.4182,1378.86218
152,1.258,261.8468,-291.41089,1353.15686,361.24167,-282.52057,1329.38953,342.00586,-219.4182,1378.86218
153,1.267,261.78702,-291.38327,1352.96643,361.53857,-283.58096,1329.75793,342.00586,-219.4182,1378.86218
154,1.275,261.75235,-291.3356,1352.875,361.77835,-283.28992,1329.69006,342.00586,-219.4182,1378.86218
155,1.283,261.7858,-291.39276,1352.89319,361.77835,-283.28992,1329.69006,342.00586,-219.4182,1378.86218
156,1.292,261.81747,-291.45554,1352.9491,361.77835,-283.28992,1329.69006,342.00586,-219.4182,1378.86218
157,1.3,261.83551,-291.53223,1353.02502,361.77835,-283.28992,1329.69006,342.00586,-219.4182,1378.86218
158,1.308,261.84827,-291.57004,1353.06201,361.77835,-283.28992,1329.69006,342.00586,-219.4182,1378.86218
159,1.317,261.89871,-291.59918,1353.1261,361.77835,-283.28992,1329.69006,342.00586,-219.4182,1378.86218
160,1.325,262.0195,-291.66818,1353.37878,361.77835,-283.28992,1329.69006,338.36694,-212.81381,1376.60913
161,1.333,262.1749,-291.70743,1353.5459,361.77835,-283.28992,1329.69006,338.89017,-213.34555,1376.51514
162,1.342,262.19968,-291.68228,1353.47266,361.77835,-283.28992,1329.69006,338.36694,-212.81381,1376.60913
163,1.35,262.19733,-291.64145,1353.31311,361.77835,-283.28992,1329.69006,338.36694,-212.81381,1376.60913
164,1.358,262.26865,-291.64938,1353.33215,362.19949,-283.3049,1329.6803,338.36694,-212.81381,1376.60913
165,1.367,262.25745,-291.57773,1353.1228,361.77835,-283.28992,1329.69006,338.36694,-212.81381,1376.60913
166,1.375,262.25522,-291.60199,1353.07813,361.95972,-283.59595,1329.74817,338.36694,-212.81381,1376.60913
167,1.383,262.27985,-291.64734,1353.03467,361.95972,-283.59595,1329.74817,338.89017,-213.34555,1376.51514
168,1.392,262.38882,-291.75629,1353.21155,362.19949,-283.3049,1329.6803,339.34503,-213.51492,1376.90833
169,1.4,262.44131,-292.00305,1353.37659,362.19949,-283.3049,1329.6803,339.34503,-213.51492,1376.90833
170,1.408,262.46713,-292.09592,1353.41724,362.19949,-283.3049,1329.6803,339.34503,-213.51492,1376.90833
171,1.417,262.36621,-292.03348,1353.09558,361.95972,-283.59595,1329.74817,339.34503,-213.51492,1376.90833
172,1.425,262.39059,-292.06906,1353.09399,362.08414,-283.70322,1330.01831,339.34503,-213.51492,1376.90833
173,1.433,262.46899,-292.28256,1353.28455,362.28745,-283.43051,1329.9303,339.34503,-213.51492,1376.90833
174,1.442,262.47784,-292.36508,1353.29468,362.28745,-283.43051,1329.9303,339.34503,-213.51492,1376.90833
175,1.45,262.52695,-292.55136,1353.40515,362.08414,-283.70322,1330.01831,339.34503,-213.51492,1376.90833
176,1.458,262.66077,-292.68829,1353.67078,362.08414,-283.70322,1330.01831,339.34503,-213.51492,1376.90833
177,1.467,262.77673,-292.90753,1353.93982,362.08414,-283.70322,1330.01831,338.89731,-213.03746,1377.02551
178,1.475,262.78006,-292.89908,1353.87524,362.28745,-283.43051,1329.9303,339.34503,-213.51492,1376.90833
179,1.483,262.79996,-292.91208,1353.88904,362.28745,-283.43051,1329.9303,339.34503,-213.51492,1376.90833
180,1.492,262.82263,-292.92456,1353.89368,362.08414,-283.70322,1330.01831,339.34503,-213.51492,1376.90833
181,1.5,262.88409,-293.09729,1354.04944,362.08414,-283.70322,1330.01831,339.14078,-211.91612,1378.91077
182,1.508,262.90964,-293.0918,1354.01624,362.24768,-283.77325,1329.87061,339.25104,-212.22699,1378.79175
183,1.517,262.92862,-293.14709,1354.04932,362.87195,-283.51556,1329.77295,339.25104,-212.22699,1378.79175
184,1.525,262.98303,-293.0929,1353.99585,362.6687,-283.7883,1329.86096,339.22943,-212.60716,1378.30896
185,1.533,263.03452,-293.0961,1353.98145,362.6687,-283.7883,1329.86096,339.22943,-212.60716,1378.30896
186,1.542,263.086,-293.12842,1353.90991,362.87195,-283.51556,1329.77295,339.22943,-212.60716,1378.30896
187,1.55,263.15207,-293.15759,1353.87659,362.78403,-283.38995,1329.52307,339.25104,-212.22699,1378.79175
188,1.558,263.18942,-293.11084,1353.7522,363.25101,-283.58017,1329.26208,339.22943,-212.60716,1378.30896
189,1.567,263.17416,-293.10538,1353.66296,363.25101,-283.58017,1329.26208,339.22943,-212.60716,1378.30896
190,1.575,263.22946,-293.10709,1353.5542,362.94507,-283.52185,1329.33728,339.22943,-212.60716,1378.30896
191,1.583,263.35483,-293.10672,1353.48181,362.87195,-283.51556,1329.77295,339.22943,-212.60716,1378.30896
