Frame#,Time,L.Radius.x,L.Radius.y,L.Radius.z
1,0,1771.65747,323.96201,1414.29822
2,0.008,1763.38269,323.06558,1414.76697
3,0.017,1757.44836,323.34152,1414.30615
4,0.025,1750.17981,323.3327,1414.24084
5,0.033,1742.28674,323.13367,1413.82373
6,0.042,1734.53638,323.02032,1413.16797
7,0.05,1727.70947,323.35788,1412.6709
8,0.058,1721.25354,321.93127,1412.39783
9,0.067,1713.84082,322.30978,1410.96021
10,0.075,1705.17371,321.55344,1410.36633
11,0.083,1697.94739,321.31735,1409.00537
12,0.092,1690.83435,321.49762,1408.08008
13,0.1,1683.72876,322.16013,1406.42224
14,0.108,1675.70142,321.9978,1406.10583
15,0.117,1667.39636,321.81409,1404.87073
16,0.125,1660.1543,322.12781,1403.86768
17,0.133,1652.81812,322.89633,1402.52942
18,0.142,1644.98511,323.27884,1401.45483
19,0.15,1636.401,322.83261,1400.15906
20,0.158,1629.13599,323.01392,1399.59033
21,0.167,1621.15845,323.02744,1397.49573
22,0.175,1613.32446,323.44522,1396.76221
23,0.183,1604.7085,324.05688,1394.77637
24,0.192,1596.43213,323.65182,1394.36511
25,0.2,1587.93164,324.62894,1392.67822
26,0.208,1580.26819,325.08304,1391.43176
27,0.217,1571.58044,325.52594,1389.73584
28,0.225,1563.44739,325.9061,1389.7749
29,0.233,1554.41113,326.78934,1387.99304
30,0.242,1546.02649,327.22208,1386.98059
31,0.25,1537.76208,328.32266,1386.55212
32,0.258,1530.00476,329.20148,1385.96118
33,0.267,1520.26367,330.97485,1384.79028
34,0.275,1511.48706,331.16855,1383.75012
35,0.283,1503.21155,332.37524,1382.88135
36,0.292,1495.10278,334.15964,1382.46484
37,0.3,1485.13049,335.90955,1382.19885
38,0.308,1476.05493,337.51556,1381.48096
39,0.317,1467.48206,339.03241,1381.55103
40,0.325,1456.53906,339.99533,1382.48706
41,0.333,1448.19373,341.49783,1382.59094
42,0.342,1439.71692,342.62854,1383.63123
43,0.35,1429.54785,342.98907,1383.62915
44,0.358,1420.94897,345.21768,1385.15942
45,0.367,1411.76172,346.88882,1386.802
46,0.375,1403.26392,347.73688,1387.58728
47,0.383,1394.42371,349.164,1389.0238
48,0.392,1386.12659,350.05768,1390.67163
49,0.4,1378.05566,351.94662,1390.26514
50,0.408,1367.71582,351.66513,1391.51331
51,0.417,1360.14331,353.10901,1392.72827
52,0.425,1351.51697,354.15738,1393.58813
53,0.433,1343.82397,355.78421,1395.15918
54,0.442,1335.11987,356.72284,1396.40295
55,0.45,1328.07471,357.41238,1397.93604
56,0.458,1320.47607,358.37448,1398.73804
57,0.467,1312.67432,359.5246,1400.45044
58,0.475,1304.91211,359.97455,1401.59192
59,0.483,1295.79456,360.5838,1402.23157
60,0.492,1287.99976,361.28625,1403.43433
61,0.5,1280.35852,361.75934,1404.94104
62,0.508,1272.57312,362.13641,1406.26404
63,0.517,1264.10291,362.69824,1407.78943
64,0.525,1256.79175,363.59717,1408.34375
65,0.533,1248.13293,365.14517,1409.91187
66,0.542,1240.7052,365.13937,1410.88477
67,0.55,1233.54907,366.19211,1411.09692
68,0.558,1226.13062,366.60638,1411.46924
69,0.567,1217.45313,366.93332,1412.6842
70,0.575,1210.44946,367.77499,1413.42188
71,0.583,1202.6864,368.04767,1414.6543
72,0.592,1194.35999,368.74585,1415.02441
73,0.6,1186.54126,369.47662,1414.7616
74,0.608,1179.73022,370.09937,1414.89221
75,0.617,1171.74573,370.62039,1415.11926
76,0.625,1163.81787,371.27826,1415.25085
77,0.633,1156.3905,371.39471,1414.8501
78,0.642,1148.58167,371.8024,1414.52527
79,0.65,1142.62988,372.22226,1415.28882
80,0.658,1132.98022,373.32288,1413.72144
81,0.667,1125.43799,372.94046,1413.19971
82,0.675,1118.10474,373.96979,1412.15588
83,0.683,1109.9259,373.49948,1411.52698
84,0.692,1102.98523,374.21442,1410.6825
85,0.7,1094.13416,374.34897,1409.59802
86,0.708,1087.12305,374.53778,1409.54297
87,0.717,1078.16614,374.62451,1407.73132
88,0.725,1070.69836,373.97916,1407.3717
89,0.733,1062.20154,374.42194,1405.01367
90,0.742,1055.08887,373.54752,1403.95911
91,0.75,1046.96362,374.20605,1402.87048
92,0.758,1039.07202,373.18951,1401.18005
93,0.767,1030.4209,373.5528,1399.86145
94,0.775,1023.28833,373.18137,1398.65601
95,0.783,1015.1944,373.74683,1398.19495
96,0.792,1007.49622,373.00073,1396.47473
97,0.8,999.19012,372.37625,1395.32837
98,0.808,990.0202,372.61636,1393.92554
99,0.817,982.58551,371.88391,1393.57935
100,0.825,973.62421,372.38254,1391.81421
101,0.833,966.48956,371.12405,1390.96375
102,0.842,957.3125,371.25348,1390.1554
103,0.85,947.09796,370.14587,1388.97021
104,0.858,940.19257,370.32617,1387.98755
105,0.867,932.36066,369.59467,1387.85168
106,0.875,923.57892,368.87833,1386.97217
107,0.883,915.54596,367.92047,1385.40649
108,0.892,905.90295,368.44159,1385.10449
109,0.9,897.53821,366.35742,1383.88318
110,0.908,888.69464,366.06036,1383.42639
111,0.917,879.7276,364.6796,1383.15112
112,0.925,870.46667,364.60986,1383.91589
113,0.933,860.48926,363.35574,1384.00793
114,0.942,852.21436,363.1019,1385.15149
115,0.95,843.52576,362.233,1385.42969
116,0.958,834.521,362.40012,1386.11621
117,0.967,824.72369,360.90518,1386.47754
118,0.975,815.95984,360.40701,1387.33582
119,0.983,809.45544,360.0636,1388.26514
120,0.992,799.38818,361.6622,1391.2124
121,1,791.36798,360.63425,1391.69019
122,1.008,782.15607,360.70517,1393.07275
123,1.017,772.96033,360.47479,1392.37512
124,1.025,765.23663,358.90829,1393.93616
125,1.033,756.6347,359.49625,1394.76001
126,1.042,747.73828,359.53256,1396.21143
127,1.05,740.26752,359.27142,1398.85669
128,1.058,731.22815,359.23215,1398.2782
129,1.067,723.06281,357.22577,1399.8136
130,1.075,715.22205,358.36197,1400.50134
131,1.083,706.88837,356.22427,1402.79333
132,1.092,698.8017,357.67908,1403.94482
133,1.1,691.23761,356.11392,1405.55872
134,1.108,684.00763,356.41513,1406.46338
135,1.117,675.59674,355.8378,1407.61499
136,1.125,668.90564,354.99512,1409.48474
137,1.133,660.92114,354.737,1409.82373
138,1.142,652.70282,354.87,1411.6532
139,1.15,645.42749,354.92346,1411.0625
140,1.158,637.97028,354.34848,1411.9375
141,1.167,630.17932,353.41098,1412.85815
142,1.175,622.9715,354.58578,1414.95679
143,1.183,615.61493,353.68103,1414.80188
144,1.192,607.15515,354.01639,1416.34314
145,1.2,599.79657,354.04578,1415.79199
146,1.208,592.73004,353.33075,1415.65979
147,1.217,584.98822,353.25891,1416.68835
148,1.225,577.04315,351.57745,1416.55505
149,1.233,569.50354,352.88675,1416.52087
150,1.242,562.14038,351.95148,1416.31506
151,1.25,553.98438,352.85568,1416.38879
152,1.258,546.87878,352.42044,1416.35767
153,1.267,538.8692,351.01337,1415.59741
154,1.275,530.90228,352.15308,1414.26843
155,1.283,523.37299,351.77249,1413.69727
156,1.292,516.15765,351.88742,1412.95276
157,1.3,508.06958,352.38156,1412.46863
158,1.308,500.466,351.96741,1412.08252
159,1.317,493.29816,352.63602,1411.27576
160,1.325,485.16299,353.22723,1409.59814
161,1.333,477.89886,352.43088,1409.19238
162,1.342,469.75012,352.56784,1407.30164
163,1.35,461.367,353.34341,1407.08411
164,1.358,454.64594,352.82104,1405.70789
165,1.367,446.14667,353.77499,1404.22144
166,1.375,438.22763,354.00967,1402.96814
167,1.383,430.22217,354.83884,1401.79919
168,1.392,422.42422,354.83139,1400.83289
169,1.4,413.33371,356.24985,1399.41162
170,1.408,406.13098,356.30679,1398.25037
171,1.417,397.59253,357.28354,1397.30151
172,1.425,389.50406,357.32813,1396.8678
173,1.433,382.04852,357.68118,1395.66064
174,1.442,373.66016,357.97717,1394.94983
175,1.45,364.76447,359.23227,1394.06506
176,1.458,356.51062,360.05112,1393.42969
177,1.467,348.3082,361.50363,1392.50452
178,1.475,340.64325,362.37024,1391.21692
179,1.483,331.59473,362.69141,1390.89038
180,1.492,323.33069,365.04816,1389.81445
181,1.5,314.97607,366.85452,1389.00317
182,1.508,306.25943,368.51706,1388.29492
183,1.517,297.44485,369.99908,1387.72229
184,1.525,288.66644,371.70251,1386.71448
185,1.533,280.49655,374.23883,1387.17004
186,1.542,271.32336,375.10208,1388.01477
187,1.55,262.50226,377.88354,1387.85449
188,1.558,253.17751,379.32098,1388.5863
189,1.567,244.68591,381.71466,1389.64111
190,1.575,235.10762,382.82367,1390.73389
191,1.583,226.20105,384.5144,1391.57239
192,1.592,217.20351,386.36862,1392.75012
193,1.6,208.93474,387.17255,1393.42578
194,1.608,199.71022,389.78387,1394.59045
195,1.617,190.45236,391.16711,1395.80273
196,1.625,181.26257,392.78448,1396.81995
197,1.633,173.38222,395.57132,1397.43591
198,1.642,164.55646,396.21619,1399.29956
199,1.65,156.16528,396.80902,1399.67163
200,1.658,147.70554,399.31262,1400.78992
201,1.667,139.05037,400.5206,1401.48572
202,1.675,130.08345,401.00021,1402.39734
203,1.683,122.5709,402.8212,1403.8739
204,1.692,114.78255,404.6257,1404.24121
205,1.7,106.37132,405.83551,1405.26941
206,1.708,97.66029,405.64627,1406.45947
207,1.717,90.45392,407.54913,1407.45703
208,1.725,82.07107,407.9924,1408.42566
209,1.733,74.20144,408.96948,1409.6051
210,1.742,66.8726,409.46097,1410.10803
211,1.75,58.88676,410.17157,1411.02136
212,1.758,50.57302,411.48111,1410.97363
213,1.767,43.38765,411.38455,1411.30298
214,1.775,35.33673,412.91739,1412.12317
215,1.783,28.10496,414.21405,1412.33142
216,1.792,20.03086,414.24771,1412.56384
217,1.8,12.4149,414.91141,1412.6084
218,1.808,5.01571,415.47623,1412.68591
219,1.817,-3.45113,415.96594,1412.52795
220,1.825,-11.21649,417.36948,1412.8186
221,1.833,-18.53097,417.62634,1412.00989
222,1.842,-26.82967,417.51633,1411.65381
223,1.85,-35.04337,417.36426,1412.02576
224,1.858,-42.20301,418.28,1410.8822
225,1.867,-50.59317,418.22211,1409.84302
226,1.875,-58.66261,418.33313,1409.5636
227,1.883,-66.34233,418.9545,1408.35754
228,1.892,-74.17799,419.13321,1407.65698
229,1.9,-81.55545,419.33429,1406.14282
230,1.908,-90.18538,418.89276,1405.61963
231,1.917,-98.30851,418.52185,1403.79456
232,1.925,-105.0542,419.73645,1402.53088
233,1.933,-114.20943,417.86707,1401.84204
234,1.942,-123.13945,419.17056,1400.29126
235,1.95,-129.67172,417.33835,1399.51709
236,1.958,-138.34279,418.16541,1397.28162
237,1.967,-146.63266,416.86923,1396.85999
238,1.975,-154.71729,417.20016,1395.69055
239,1.983,-162.54492,415.2641,1393.83801
240,1.992,-171.11421,414.0914,1392.47351
241,2,-179.35034,414.25192,1391.63232
242,2.008,-187.39436,413.32001,1390.43896
243,2.017,-195.795,411.98972,1388.93274
244,2.025,-204.12714,411.62048,1388.26233
245,2.033,-212.50719,410.70309,1386.90527
246,2.042,-221.32573,409.11554,1386.6106
247,2.05,-229.9537,408.62628,1385.55481
248,2.058,-239.49393,407.08719,1384.78662
249,2.067,-247.7693,406.2536,1383.39209
250,2.075,-256.0069,405.28833,1383.1803
251,2.083,-265.53821,405.03931,1382.42334
252,2.092,-272.99838,402.90372,1381.60327
253,2.1,-282.7308,402.42987,1380.95679
254,2.108,-291.46893,401.56732,1381.24036
255,2.117,-300.38647,399.59244,1381.10022
256,2.125,-309.17535,398.65826,1381.98584
257,2.133,-318.56735,398.28516,1381.60876
258,2.142,-326.49762,397.59598,1381.61902
259,2.15,-334.97723,398.02246,1380.99695
260,2.158,-344.64627,397.0726,1382.72009
261,2.167,-352.86655,395.17029,1383.62903
262,2.175,-361.69278,395.22705,1383.70044
263,2.183,-370.66217,395.93073,1383.49902
264,2.192,-378.69107,394.72263,1384.75281
265,2.2,-387.74054,394.13513,1385.21301
266,2.208,-396.77725,395.22937,1385.63586
267,2.217,-405.32147,393.82361,1386.30103
268,2.225,-414.2962,394.23694,1388.14258
269,2.233,-421.99603,393.23892,1388.55005
270,2.242,-431.00128,393.61246,1389.64844
271,2.25,-439.35379,392.72495,1390.40979
272,2.258,-447.37854,393.17294,1392.07068
273,2.267,-454.47726,392.20102,1393.6897
274,2.275,-463.46786,392.93958,1394.45557
275,2.283,-471.34329,392.61816,1395.81812
276,2.292,-479.74564,392.9375,1397.10144
277,2.3,-486.92102,391.86844,1398.83191
278,2.308,-496.40942,391.9223,1399.01489
279,2.317,-503.2887,390.60583,1400.39465
280,2.325,-513.04712,391.7319,1400.72168
281,2.333,-520.00024,390.0296,1400.98096
282,2.342,-527.98431,389.05881,1402.40308
283,2.35,-536.44543,390.06619,1402.09985
284,2.358,-543.6546,388.1871,1402.62793
285,2.367,-552.53522,388.923,1403.36353
286,2.375,-559.21509,388.9444,1403.40918
287,2.383,-567.71722,387.82809,1402.75281
288,2.392,-575.3172,387.57495,1402.42468
289,2.4,-581.77655,388.31409,1403.08069
290,2.408,-590.1015,387.93817,1402.71252
291,2.417,-597.77588,388.13,1401.9679
292,2.425,-605.60651,387.07651,1400.07935
293,2.433,-614.06897,387.93515,1401.14099
294,2.442,-620.1076,390.08075,1401.9281
295,2.45,-629.50964,387.17386,1400.76282
296,2.458,-638.14392,388.02097,1399.82593
297,2.467,-645.23328,387.81161,1399.21484
298,2.475,-653.26727,388.75876,1399.83899
299,2.483,-660.2135,389.40958,1398.45715
300,2.492,-669.19531,386.93167,1397.25342
301,2.5,-675.93567,389.84894,1396.36011
302,2.508,-684.19031,389.55551,1396.02319
303,2.517,-692.02875,390.40521,1393.61511
304,2.525,-699.16595,389.88351,1393.95581
305,2.533,-708.90436,390.94385,1391.85596
306,2.542,-716.09784,391.57693,1391.01526
307,2.55,-725.07813,389.86264,1390.45227
308,2.558,-731.20087,394.7807,1388.26501
309,2.567,-741.2547,392.04285,1387.53101
310,2.575,-748.16895,394.27271,1387.25195
311,2.583,-754.47778,396.34625,1384.98035
312,2.592,-765.44501,396.38406,1383.323
313,2.6,-773.3465,395.23831,1382.92615
314,2.608,-780.59113,398.61938,1381.54236
315,2.617,-787.3457,399.66055,1380.75671
316,2.625,-798.09485,398.47104,1379.67175
317,2.633,-806.37579,401.07278,1379.17273
318,2.642,-814.19751,402.12219,1377.30286
319,2.65,-822.55951,403.22491,1375.76025
320,2.658,-831.58154,406.34375,1375.19995
321,2.667,-840.82062,405.17282,1374.41992
322,2.675,-847.4425,409.18945,1372.71338
323,2.683,-855.46631,409.34113,1372.77222
324,2.692,-864.80121,413.3912,1372.65942
325,2.7,-874.4328,412.39587,1372.93384
326,2.708,-882.6084,415.88318,1373.29431
327,2.717,-892.23621,416.15356,1373.41516
328,2.725,-899.70654,417.27023,1373.13989
329,2.733,-907.54102,419.46634,1374.29724
330,2.742,-917.52887,419.13263,1375.57202
331,2.75,-925.22791,421.30933,1376.06311
332,2.758,-933.8797,423.61115,1377.57422
333,2.767,-942.65222,422.76059,1378.9884
334,2.775,-950.54901,426.26511,1379.62598
335,2.783,-960.06696,425.54944,1379.57214
336,2.792,-967.20807,427.10898,1381.12061
337,2.8,-976.19128,427.77884,1383.05432
338,2.808,-982.80231,429.9183,1383.16492
339,2.817,-992.13757,429.51205,1384.93896
340,2.825,-998.39105,432.70776,1386.07141
341,2.833,-1007.12799,431.48962,1386.75476
342,2.842,-1016.08429,433.36084,1387.63879
343,2.85,-1022.32452,435.02673,1388.85583
344,2.858,-1029.55383,436.12567,1389.38416
345,2.867,-1039.53967,435.26987,1390.49951
346,2.875,-1044.53931,435.36603,1391.86804
347,2.883,-1053.75598,437.46149,1392.56909
348,2.892,-1058.93213,438.16537,1392.55542
349,2.9,-1066.27185,438.4751,1395.14343
350,2.908,-1074.0249,437.80881,1396.12915
351,2.917,-1079.79163,441.1676,1397.30713
352,2.925,-1088.14673,439.12637,1397.73767
353,2.933,-1092.5426,441.25809,1397.73279
354,2.942,-1100.54041,441.94443,1398.97583
355,2.95,-1107.55615,441.39026,1399.62415
356,2.958,-1115.19336,442.81439,1398.70557
357,2.967,-1122.27917,442.03073,1399.67004
358,2.975,-1128.70752,441.85672,1399.83801
359,2.983,-1135.64868,445.44958,1399.97266
360,2.992,-1141.74792,445.75659,1399.85779
361,3,-1147.38257,444.42145,1401.18005
362,3.008,-1158.00024,445.31311,1401.23376
363,3.017,-1162.84399,445.07443,1399.95007
364,3.025,-1170.35315,446.55716,1399.93713
365,3.033,-1177.49792,447.3793,1400.71313
366,3.042,-1184.65918,446.69901,1400.16052
367,3.05,-1189.53027,446.04999,1398.84839
368,3.058,-1200.15491,447.01636,1399.40564
369,3.067,-1205.12463,446.37448,1398.38733
370,3.075,-1216.19287,448.69113,1396.48315
371,3.083,-1222.03186,447.84946,1395.35132
372,3.092,-1230.04675,447.44696,1393.23535
373,3.1,-1235.2467,446.22232,1392.37
374,3.108,-1242.42529,445.17624,1392.09167
375,3.117,-1249.77112,446.0556,1390.84705
376,3.125,-1257.53284,444.664,1388.43201
377,3.133,-1263.05371,443.58414,1388.32629
378,3.142,-1269.47644,441.35422,1386.36182
379,3.15,-1276.15271,439.04675,1384.4574
380,3.158,-1285.58862,439.95282,1383.6311
381,3.167,-1294.03381,437.68811,1383.16345
382,3.175,-1301.10669,436.677,1382.01465
383,3.183,-1308.38879,436.51813,1380.8031
384,3.192,-1315.0083,433.71967,1380.07678
385,3.2,-1320.97998,431.09106,1378.19568
386,3.208,-1328.56458,429.32062,1378.19507
387,3.217,-1341.10657,429.26764,1376.63879
388,3.225,-1346.37756,428.11731,1374.74951
389,3.233,-1353.36426,426.10822,1375.40527
390,3.242,-1362.45923,423.32413,1374.25928
391,3.25,-1368.03894,419.5148,1371.13452
392,3.258,-1377.16296,418.8291,1372.01599
393,3.267,-1382.13403,412.88477,1370.8468
394,3.275,-1389.17773,411.71982,1372.39258
395,3.283,-1400.7312,410.77115,1373.05554
396,3.292,-1406.94617,409.44452,1374.00757
397,3.3,-1414.88965,407.17191,1374.74341
