Frame#,Time,R.Forearm.x,R.Forearm.y,R.Forearm.z,R.Ulna.x,R.Ulna.y,R.Ulna.z,R.Radius.x,R.Radius.y,R.Radius.z
1,0,182.6743,-170.68045,1014.25018,261.03491,-215.48006,1024.86096,304.85114,-147.06487,1043.49463
2,0.008,183.02913,-169.5824,1015.01642,261.17142,-214.07417,1026.14087,304.69717,-144.19148,1044.46924
3,0.017,183.25578,-168.87729,1015.95117,262.35416,-210.83139,1027.19751,305.85452,-141.2338,1045.92896
4,0.025,183.23907,-166.6095,1017.2204,262.98059,-208.78477,1028.13989,305.85178,-139.71877,1047.04114
5,0.033,183.69084,-164.62404,1017.97845,263.20123,-207.87093,1030.49976,305.01947,-138.05338,1049.11353
6,0.042,183.85551,-163.56946,1018.7583,262.86282,-207.03433,1031.04089,305.45139,-137.43924,1049.90466
7,0.05,183.96851,-162.23912,1020.15137,262.92459,-204.42407,1032.32739,305.91623,-133.95747,1052.85303
8,0.058,184.5899,-161.41394,1021.60419,264.23779,-201.1916,1034.3739,305.51965,-131.71965,1053.26782
9,0.067,184.06282,-159.91151,1022.69861,264.98987,-201.76434,1036.11926,305.48688,-131.13107,1054.62744
10,0.075,184.50021,-157.26613,1023.30011,264.28015,-199.26474,1037.61731,305.12521,-129.54585,1056.68823
11,0.083,184.03938,-156.50574,1024.03381,263.89545,-197.79163,1039.77502,304.79224,-127.04876,1057.97998
12,0.092,184.28683,-156.00479,1024.91589,264.60202,-195.91365,1041.04553,304.83008,-124.96265,1060.04553
13,0.1,184.52902,-154.82182,1026.96069,265.33264,-194.15256,1041.88074,304.08328,-122.91104,1061.2948
14,0.108,184.495,-153.96446,1028.63367,264.44547,-191.22502,1043.7345,304.28049,-121.97109,1063.8291
15,0.117,184.226,-152.52315,1029.625,264.96176,-191.10818,1046.09204,302.92996,-119.63255,1064.91467
16,0.125,183.856,-151.26714,1029.8634,264.59265,-189.78108,1047.14453,302.53436,-116.67105,1066.62256
17,0.133,184.24142,-149.61015,1031.41541,264.46518,-188.91002,1049.57495,301.08331,-115.53145,1069.95508
18,0.142,184.15469,-147.90517,1033.26233,264.41034,-187.11278,1050.9635,301.5336,-114.8317,1070.63086
19,0.15,184.12198,-147.27623,1034.36621,264.89539,-186.1441,1053.52124,301.2962,-113.17831,1073.39832
20,0.158,184.24115,-146.82349,1035.80688,265.06476,-183.81032,1055.1167,301.21957,-110.52127,1075.1814
21,0.167,184.0519,-146.04681,1037.34424,265.06094,-183.45747,1056.66394,300.28354,-109.80135,1077.10059
22,0.175,183.896,-145.19437,1039.08423,264.16388,-181.00146,1058.80164,300.33499,-108.82963,1078.56018
23,0.183,183.58652,-143.66634,1040.47803,264.15057,-180.14009,1061.13843,298.47076,-106.39548,1081.50415
24,0.192,183.27194,-143.1322,1041.51941,263.55951,-179.1022,1063.21863,298.0166,-105.07779,1083.18335
25,0.2,182.79628,-141.26318,1042.96521,263.61392,-178.70352,1065.01294,297.48734,-102.77688,1085.61877
26,0.208,181.70941,-140.89058,1044.91809,262.83969,-176.19269,1066.64551,297.0983,-102.10596,1087.44141
27,0.217,181.72176,-140.2589,1046.01978,263.12805,-174.64633,1069.60315,296.11658,-102.11859,1089.34827
28,0.225,181.93307,-139.38606,1047.64294,263.1236,-173.36031,1071.80139,296.06897,-99.88266,1091.54187
29,0.233,181.23067,-138.90004,1049.51831,262.0549,-172.50294,1073.96472,295.62299,-99.13499,1093.9906
30,0.242,181.07269,-138.37454,1050.94739,261.67093,-171.32445,1075.70691,293.82257,-95.76763,1096.42908
31,0.25,180.7059,-137.55164,1052.7489,261.45145,-170.76712,1077.94812,293.38507,-96.07449,1098.6687
32,0.258,180.36,-136.3968,1054.47729,260.828,-169.81032,1080.92371,292.215,-94.57161,1101.36194
33,0.267,179.86545,-135.68401,1056.69421,260.62094,-169.13448,1082.86572,291.74225,-93.88183,1103.12842
34,0.275,179.28644,-134.81555,1058.15198,259.43103,-167.77029,1085.29846,290.72116,-92.73423,1106.38416
35,0.283,178.76411,-134.36075,1059.82776,259.68076,-167.03644,1087.81006,290.26364,-92.8659,1108.41187
36,0.292,178.92195,-133.53818,1062.16711,258.85602,-166.88535,1091.17871,289.80685,-92.97704,1110.41541
37,0.3,177.87839,-133.48364,1064.17004,258.32855,-165.52628,1093.47754,288.32944,-90.25,1114.32068
38,0.308,177.32756,-133.34547,1066.44238,257.38974,-165.16548,1095.95703,287.0954,-90.10534,1116.18823
39,0.317,177.19994,-133.30176,1068.7749,257.19003,-164.53566,1098.75085,286.67328,-88.64373,1120.97461
40,0.325,176.73911,-132.45706,1071.3219,256.65094,-165.12909,1102.28552,287.34042,-89.1741,1121.95886
41,0.333,176.10005,-132.66078,1073.07397,255.44202,-164.05626,1104.64746,285.89282,-87.80011,1126.60046
42,0.342,175.80913,-131.84032,1076.4873,255.50407,-163.54462,1108.36548,285.0087,-88.39441,1128.61365
43,0.35,175.73546,-130.74536,1078.15381,254.01134,-164.84622,1110.94653,282.7605,-87.1538,1132.11719
44,0.358,175.18382,-130.99976,1081.38831,252.98091,-163.99103,1114.25549,282.74866,-88.32887,1134.79724
45,0.367,175.4238,-130.35825,1083.28003,253.32298,-164.30132,1117.64063,282.21954,-87.57595,1138.5094
46,0.375,174.50844,-130.6561,1086.34705,252.44839,-164.24699,1120.56104,282.09335,-86.85645,1141.18823
47,0.383,174.71121,-130.69543,1088.97278,252.50783,-163.55141,1124.10022,281.4534,-88.42361,1144.73657
48,0.392,174.20009,-130.65816,1091.77454,250.77472,-163.89607,1126.53992,281.34055,-88.70535,1148.01501
49,0.4,174.1319,-131.14143,1094.32202,250.20436,-163.44847,1129.8197,279.30505,-88.89407,1151.72693
50,0.408,172.51483,-131.72807,1096.89905,250.14081,-164.02272,1133.47034,277.39893,-89.34393,1154.87
51,0.417,171.66504,-131.49298,1099.84351,249.11211,-164.52582,1136.15906,277.90344,-89.3465,1158.88574
52,0.425,171.69035,-132.1956,1102.64966,248.31277,-164.35355,1139.90369,277.07962,-89.86277,1161.2467
53,0.433,171.35123,-132.28546,1104.93103,247.21605,-164.74052,1141.83582,276.60953,-89.44296,1165.58789
54,0.442,170.27618,-132.68398,1107.42419,246.83998,-165.15277,1145.4823,276.2204,-89.80097,1168.34277
55,0.45,170.0574,-132.79427,1110.37244,246.11003,-165.84811,1148.25452,275.16327,-91.64983,1171.05444
56,0.458,169.18942,-133.84508,1112.6897,244.23347,-167.00844,1151.57166,274.15201,-93.77582,1174.83191
57,0.467,168.66301,-134.67949,1114.78003,244.15021,-168.0256,1154.34119,272.74564,-93.34155,1178.54492
58,0.475,168.08257,-134.62228,1117.96057,242.56796,-168.96198,1157.76172,271.5116,-94.91516,1181.71082
59,0.483,167.98978,-134.47871,1120.05444,241.3231,-169.31023,1160.40442,270.41406,-94.9672,1183.73633
60,0.492,166.23558,-135.45653,1122.79688,240.74388,-170.50305,1163.87292,270.76022,-96.87477,1188.16028
61,0.5,165.35178,-136.4601,1125.70496,239.4653,-170.95612,1165.40088,269.2193,-96.64311,1190.53284
62,0.508,164.78719,-136.60805,1127.52551,237.88182,-172.70944,1169.05664,267.65616,-98.23291,1193.62146
63,0.517,163.4724,-137.77492,1130.39001,236.79683,-173.20531,1171.54407,266.45151,-99.17844,1197.12793
64,0.525,162.8187,-138.52893,1132.42041,236.40178,-173.95815,1174.43567,265.67892,-99.20798,1199.13977
65,0.533,162.30209,-139.4599,1134.93811,234.76184,-175.2932,1176.88074,264.55386,-102.68291,1202.55371
66,0.542,161.07033,-139.7997,1137.05786,233.38777,-177.03174,1180.02185,263.06833,-102.83826,1205.64758
67,0.55,159.75803,-141.51486,1139.17468,231.98624,-178.72418,1181.8418,261.59406,-103.13393,1208.03357
68,0.558,159.18744,-142.47945,1140.80298,231.29346,-179.30992,1184.82031,260.9603,-106.19595,1210.1864
69,0.567,158.08977,-144.10551,1143.16309,229.18507,-180.85765,1187.49634,258.96375,-107.77625,1212.70447
70,0.575,157.95912,-144.63216,1144.70959,227.75519,-182.30266,1189.70752,259.13275,-109.46432,1215.49438
71,0.583,156.12619,-146.70148,1146.38843,226.66853,-183.64857,1191.81128,257.2894,-109.33707,1218.23218
72,0.592,155.14902,-147.44826,1148.85486,224.88416,-184.86443,1193.91833,254.39813,-110.60502,1221.12488
73,0.6,153.72435,-147.6931,1150.00317,223.29358,-186.08824,1196.02209,254.12204,-113.76597,1222.87109
74,0.608,152.95844,-149.06047,1151.88257,222.07472,-187.74983,1198.03687,253.39706,-114.41612,1225.30481
75,0.617,152.11725,-150.12805,1153.81287,219.96751,-188.29688,1199.52246,252.82262,-115.73278,1226.96106
76,0.625,151.12384,-151.25677,1155.12732,219.21202,-191.63419,1201.31274,250.73645,-118.34344,1228.71509
77,0.633,149.77643,-154.12848,1155.63293,217.08926,-193.23402,1203.27502,249.54539,-118.59116,1231.31921
78,0.642,148.5513,-153.91679,1157.54895,216.46336,-194.23044,1204.2959,247.62558,-121.79128,1233.59167
79,0.65,147.33777,-155.21423,1158.14758,214.89568,-196.38733,1205.98035,247.2776,-123.07877,1233.77747
80,0.658,146.93289,-156.92952,1159.94006,213.23938,-198.09557,1207.646,245.31819,-125.24943,1235.82886
81,0.667,146.02132,-158.02785,1160.69165,212.0448,-199.17102,1208.24231,243.0528,-126.96581,1237.91626
82,0.675,145.17107,-159.56056,1161.41638,210.035,-201.2755,1209.7157,243.06393,-129.2207,1239.25281
83,0.683,144.01596,-161.40256,1162.5647,209.4261,-204.14186,1210.64526,242.79196,-131.51588,1240.47827
84,0.692,142.92233,-163.45988,1163.57104,207.96962,-205.75748,1211.18042,239.90634,-133.96709,1241.14148
85,0.7,141.39432,-164.39922,1163.63904,206.40723,-207.64455,1211.6521,239.14241,-135.36905,1242.7605
86,0.708,140.94255,-164.96346,1163.9187,204.97559,-208.86865,1212.58838,237.90565,-138.11807,1243.98999
87,0.717,140.18187,-168.01456,1164.62964,203.63004,-210.09152,1213.58484,236.14957,-140.67033,1245.34875
88,0.725,138.45906,-170.02682,1166.00476,202.51886,-212.31497,1214.06458,236.09489,-141.89131,1245.74451
89,0.733,138.21541,-170.3394,1166.14795,202.18985,-215.37158,1214.03308,235.42564,-145.74878,1246.05859
90,0.742,137.32825,-172.56557,1165.94629,199.8508,-216.83659,1214.55225,234.13715,-147.01192,1246.44568
91,0.75,135.95215,-175.28,1165.18567,199.67975,-219.18156,1214.31787,233.95929,-150.29733,1246.37024
92,0.758,134.78485,-176.48206,1165.35645,198.18889,-221.31166,1214.30188,231.82167,-152.4276,1246.4762
93,0.767,133.75763,-177.94479,1165.49622,197.17909,-223.45113,1214.17407,231.26436,-153.38565,1246.80066
94,0.775,133.57529,-179.85309,1165.47083,196.91605,-225.06978,1213.78931,230.88885,-156.59904,1246.46802
95,0.783,133.43816,-181.53789,1164.55273,195.57654,-228.46556,1212.61292,229.84579,-158.8756,1246.68396
96,0.792,132.47105,-183.60117,1164.23474,194.69717,-229.57092,1212.38281,230.17755,-161.77914,1246.61438
97,0.8,132.02454,-185.98326,1163.53638,193.79562,-231.43446,1211.58508,229.30434,-163.59344,1245.32751
98,0.808,131.77579,-187.4991,1163.26819,193.99274,-234.07692,1210.37964,229.0742,-166.67198,1244.90332
99,0.817,131.47681,-189.12201,1162.2439,193.16551,-236.62352,1209.41406,230.04942,-169.16077,1243.65161
100,0.825,131.06728,-190.35832,1160.99719,192.8839,-238.11308,1207.89685,229.43015,-170.22374,1242.85608
101,0.833,130.68225,-192.40898,1159.87573,192.54703,-240.38763,1205.89526,229.07422,-173.95677,1241.29321
102,0.842,130.83067,-192.63525,1158.68152,192.60156,-243.05705,1205.573,228.68188,-176.00055,1239.78308
103,0.85,130.38138,-194.84468,1157.93347,192.66075,-244.22202,1203.3396,228.76201,-177.4882,1238.83459
104,0.858,130.46451,-196.10728,1156.2915,191.9326,-246.49181,1201.07825,230.21703,-181.2878,1236.71021
105,0.867,129.74924,-199.02696,1154.74805,191.29552,-247.91411,1199.37366,230.4455,-183.13118,1235.13745
106,0.875,130.10123,-199.68449,1153.3689,191.98328,-250.45413,1197.86926,231.24431,-184.42857,1233.3125
107,0.883,130.19618,-201.2402,1152.30762,191.59825,-252.57654,1195.71741,231.50729,-187.99475,1230.76099
108,0.892,129.90291,-203.44881,1149.95496,191.72322,-254.60956,1193.36987,231.69669,-188.99615,1229.07727
109,0.9,130.27596,-205.18251,1148.43787,192.59122,-255.87294,1190.9552,232.54767,-192.73015,1226.43188
110,0.908,130.32761,-206.45306,1146.60205,192.24536,-258.6806,1188.66455,232.70993,-194.12169,1224.42493
111,0.917,130.82097,-207.88347,1144.3988,192.63516,-259.50699,1186.44019,234.24113,-195.847,1221.20898
112,0.925,130.96964,-208.95006,1143.37048,193.66129,-261.84015,1183.45862,236.05789,-199.28181,1218.94116
113,0.933,132.04198,-210.38821,1141.01392,194.11261,-262.85886,1180.88818,235.22301,-201.0795,1216.06616
114,0.942,131.53305,-211.91777,1138.35022,193.90999,-265.13211,1178.35938,236.10007,-202.30209,1213.03699
115,0.95,132.62715,-212.99428,1136.82507,195.01897,-266.10547,1176.19849,238.24405,-203.14705,1209.90271
116,0.958,133.09917,-214.60953,1134.32727,195.64798,-267.98676,1173.36218,238.39418,-205.76183,1207.1488
117,0.967,133.38892,-215.72014,1132.19836,195.67993,-269.83591,1170.50073,240.82681,-207.3436,1203.0752
118,0.975,133.78003,-216.30841,1129.88391,196.99883,-272.04541,1167.24048,242.34602,-208.39197,1201.55908
119,0.983,133.94186,-218.41257,1127.47717,197.17668,-273.73068,1164.87695,243.54338,-209.69499,1197.18335
120,0.992,134.61098,-219.29097,1125.16406,197.74338,-273.8544,1161.11218,244.04404,-211.16493,1195.74915
121,1,135.136,-220.69049,1122.86511,198.61324,-275.93204,1159.021,246.39059,-213.5854,1192.22461
122,1.008,136.12068,-221.22536,1120.29468,198.76886,-276.35223,1155.12219,246.18372,-216.52289,1187.00171
123,1.017,137.02036,-221.54909,1118.38672,199.75259,-277.85257,1151.67236,246.72559,-216.65161,1184.79443
124,1.025,137.27762,-222.92822,1114.71033,200.65784,-279.22571,1148.58948,247.23831,-217.73361,1180.16235
125,1.033,137.306,-223.69507,1112.2218,201.31895,-280.0665,1144.85352,249.36601,-219.37962,1178.08911
126,1.042,138.39885,-224.11946,1109.99353,202.42169,-280.60687,1142.021,250.45439,-220.7885,1173.4469
127,1.05,138.96098,-224.882,1107.22742,203.36491,-281.5332,1138.49548,251.71448,-221.83601,1169.13806
128,1.058,139.59079,-225.77989,1104.49133,203.56119,-282.52692,1134.86133,252.82199,-222.27693,1167.12524
129,1.067,139.75845,-225.80211,1101.99512,204.42299,-283.63593,1131.8208,253.51314,-223.40749,1162.83984
130,1.075,140.17267,-226.43221,1099.14258,204.96051,-284.05508,1127.9281,255.77437,-224.21021,1158.34302
131,1.083,141.11356,-228.19217,1096.7511,206.08926,-283.93924,1124.80005,256.53387,-224.61995,1155.77295
132,1.092,141.76511,-228.23256,1093.39075,207.26738,-285.53458,1121.63,256.92621,-225.12854,1151.51978
133,1.1,142.43373,-228.04761,1091.18469,207.58536,-284.80145,1117.55725,258.63788,-225.52644,1147.05701
134,1.108,143.13992,-228.42438,1087.76624,209.07492,-285.44647,1114.21118,259.33679,-226.49301,1144.27832
135,1.117,144.07214,-227.39648,1085.50659,210.11374,-285.41931,1110.55237,261.42767,-226.3549,1140.90991
136,1.125,144.29504,-228.61208,1082.24109,210.55539,-285.54358,1107.25269,261.73654,-226.3045,1137.10352
137,1.133,144.87724,-228.38503,1079.89709,211.6449,-285.45938,1103.9314,262.83789,-226.58087,1133.04749
138,1.142,146.04916,-229.13873,1077.53967,212.74854,-285.38187,1101.1012,263.3129,-226.71591,1129.40552
139,1.15,146.87309,-228.03664,1074.48853,213.36183,-285.97238,1097.69324,265.53601,-226.83516,1126.20288
140,1.158,147.03172,-228.01791,1071.85254,213.70253,-285.57071,1094.99866,266.69174,-226.76848,1122.25085
141,1.167,147.99069,-227.99655,1069.94629,214.74687,-285.16354,1091.64063,267.34204,-225.93275,1119.20398
142,1.175,148.24266,-227.15964,1066.94897,215.46391,-285.42267,1088.78308,268.15411,-226.07976,1116.17896
143,1.183,148.36526,-227.99379,1064.15186,216.92203,-284.31183,1085.46252,268.40796,-224.57587,1111.76453
144,1.192,149.31949,-228.36826,1062.29126,217.09889,-283.94577,1082.73267,269.44543,-223.98193,1109.83508
145,1.2,149.92264,-226.08099,1059.99866,218.48305,-283.73288,1080.41919,270.92181,-224.19551,1106.54407
146,1.208,151.33167,-226.85439,1058.04114,220.334,-282.50348,1076.6803,272.18564,-223.23483,1102.8053
147,1.217,152.19963,-225.25893,1054.95837,219.96835,-282.09796,1074.29956,272.69101,-223.49898,1100.40308
148,1.225,152.87843,-224.81668,1053.42676,221.58017,-281.67291,1072.53552,273.22382,-222.77118,1097.73779
149,1.233,153.27744,-223.99226,1051.57178,222.03743,-281.28122,1068.91003,273.98608,-220.94049,1095.21997
150,1.242,153.9856,-223.54962,1048.7041,223.31693,-279.95386,1067.3656,274.57443,-219.47963,1092.17932
151,1.25,154.94742,-222.81757,1047.01123,224.27884,-277.98788,1064.48169,276.52048,-217.67329,1089.36365
152,1.258,155.21948,-222.12825,1045.27979,224.57854,-277.74887,1062.09595,276.80923,-218.23842,1086.78259
153,1.267,155.2019,-220.84892,1042.85889,225.84071,-276.66022,1060.43701,278.97,-215.85533,1084.27625
154,1.275,155.7104,-219.85919,1041.69165,226.46426,-274.96014,1057.06335,278.56857,-214.01271,1082.12939
155,1.283,156.35085,-218.56261,1040.00769,227.69437,-274.86426,1055.60535,279.46002,-213.31291,1079.28845
156,1.292,156.935,-217.9334,1037.83032,228.19241,-273.04852,1053.98486,279.48053,-211.68637,1078.48279
157,1.3,158.05511,-216.27605,1036.073,229.68054,-271.3555,1051.953,280.80905,-209.67795,1075.026
158,1.308,158.34511,-216.0072,1034.48682,229.45554,-269.5412,1049.48389,280.74094,-208.06871,1073.56726
159,1.317,159.44252,-214.47052,1033.01123,230.75572,-268.35678,1048.21448,282.33017,-207.31392,1071.04944
160,1.325,160.15854,-213.30855,1031.4541,231.22308,-267.46259,1046.82263,282.94165,-205.81427,1068.03735
161,1.333,160.96155,-212.82442,1029.97717,232.80179,-265.76016,1044.34973,284.01141,-202.93878,1067.61133
162,1.342,160.84618,-212.12053,1028.59253,232.71884,-263.26572,1043.15247,284.12997,-201.9778,1066.26282
163,1.35,161.0743,-209.97919,1027.03198,234.39217,-262.06036,1041.95166,284.84546,-199.94208,1063.83105
164,1.358,161.97182,-208.27179,1025.97888,235.40607,-261.04764,1040.38171,284.96237,-199.58893,1061.80823
165,1.367,162.32135,-207.19113,1024.88623,235.80519,-260.25168,1038.52283,286.19867,-195.04227,1061.02478
166,1.375,163.21501,-206.07756,1023.92963,236.53429,-258.55295,1037.87866,286.02576,-193.36755,1060.60779
167,1.383,163.84389,-205.07849,1022.63794,237.0027,-255.88132,1036.54102,286.90015,-192.61296,1057.84375
168,1.392,164.1427,-204.24394,1021.23621,238.39481,-254.4012,1035.91821,286.88101,-191.72917,1056.68713
169,1.4,164.09569,-202.13112,1020.52777,238.74854,-252.0098,1034.40625,286.86273,-189.33386,1054.88428
170,1.408,164.32069,-201.67471,1020.07751,239.66039,-251.14503,1033.52966,288.04578,-186.2149,1054.55652
171,1.417,164.9351,-200.50323,1019.43878,241.08508,-250.06387,1032.53088,289.54709,-184.59,1053.38171
172,1.425,166.19899,-198.70059,1018.53705,241.42104,-247.99147,1031.3573,288.77927,-182.9187,1052.52783
173,1.433,166.69731,-196.98384,1018.35889,242.09061,-245.43803,1030.73254,290.14838,-181.21454,1051.40283
174,1.442,167.3284,-196.34961,1018.07788,242.52237,-244.50816,1030.83093,290.01276,-178.32045,1050.96118
175,1.45,167.4626,-194.51805,1017.25818,243.51161,-242.90585,1030.09546,290.98611,-177.46767,1050.28894
176,1.458,168.06595,-192.87761,1016.75299,244.31757,-239.95044,1029.3739,291.95847,-175.39699,1049.55029
177,1.467,168.6927,-190.95273,1015.93512,244.81372,-239.06213,1029.25354,291.73499,-173.43161,1048.89001
178,1.475,169.46207,-189.77057,1015.57941,245.71965,-237.22717,1029.50012,291.72699,-170.76695,1049.46753
179,1.483,169.69762,-188.78275,1015.41754,246.83315,-235.31781,1029.43823,292.14066,-169.36108,1049.5802
180,1.492,170.54575,-187.26532,1015.34387,247.11885,-233.61586,1029.50488,292.51163,-164.75558,1048.92297
181,1.5,171.1013,-185.28908,1015.41974,247.87209,-232.4509,1029.78076,293.2215,-164.98483,1048.70703
182,1.508,171.52348,-184.77005,1015.56543,249.36591,-229.5403,1029.62122,293.62079,-164.08572,1048.62915
183,1.517,171.71605,-183.4277,1015.20282,249.65799,-228.40648,1030.22949,294.37027,-162.67854,1048.40491
184,1.525,171.88371,-182.36201,1015.53375,249.82996,-226.84453,1030.13477,294.3194,-159.49672,1049.16455
185,1.533,172.86023,-179.6046,1016.20715,250.20041,-223.85812,1029.44409,294.10315,-155.07622,1049.51819
186,1.542,173.37666,-177.84764,1016.51001,252.20842,-221.75557,1030.89978,294.48288,-154.15688,1049.26599
187,1.55,174.05255,-176.83586,1016.92413,252.55325,-221.32726,1031.1897,294.66669,-152.90865,1049.55627
188,1.558,174.2113,-175.44817,1017.65277,252.62794,-219.16985,1031.94238,295.86896,-147.62125,1050.52698
189,1.567,174.44379,-174.0247,1017.51105,253.16995,-216.79424,1031.7616,295.87247,-146.25702,1050.59119
190,1.575,174.93193,-172.30362,1018.03583,254.65402,-215.30444,1033.36316,295.77319,-145.55659,1051.54663
191,1.583,175.40581,-170.84895,1018.34766,255.29196,-213.9151,1034.25598,295.6582,-142.45024,1052.67029
