Frame#,Time,R.Forearm.x,R.Forearm.y,R.Forearm.z,R.Ulna.x,R.Ulna.y,R.Ulna.z,R.Radius.x,R.Radius.y,R.Radius.z
1,0,-197.53696,-324.08929,770.36182,-129.0433,-335.8566,672.84808,-75.95933,-227.99956,691.45526
2,0.008,-198.0007,-323.19763,770.67023,-128.92314,-336.52725,673.05896,-75.24804,-226.81789,691.5061
3,0.017,-198.0007,-323.19763,770.67023,-128.75584,-335.78708,673.25012,-75.26918,-227.04747,691.31464
4,0.025,-198.0007,-323.19763,770.67023,-128.51552,-335.67529,673.20874,-75.26918,-227.04747,691.31464
5,0.033,-198.0007,-323.19763,770.67023,-128.43744,-336.00177,673.2771,-75.26918,-227.04747,691.31464
6,0.042,-197.84155,-324.92984,771.07721,-128.46292,-336.48978,673.04425,-75.26918,-227.04747,691.31464
7,0.05,-197.84155,-324.92984,771.07721,-128.70323,-336.60147,673.08563,-75.26918,-227.04747,691.31464
8,0.058,-197.51706,-324.8179,770.78796,-128.64247,-336.79111,673.03876,-75.95933,-227.99956,691.45526
9,0.067,-197.43919,-324.74231,770.48706,-128.76262,-336.12057,672.82794,-75.64594,-227.08369,691.15509
10,0.075,-197.08424,-324.96994,770.27661,-129.29131,-336.38757,672.47742,-75.74282,-227.55301,690.96753
11,0.083,-197.29803,-324.92303,770.2937,-129.10785,-337.03262,672.53748,-74.93446,-227.29782,690.41174
12,0.092,-197.19231,-324.79099,770.17725,-129.51543,-337.02911,672.06891,-74.93446,-227.29782,690.41174
13,0.1,-197.60493,-325.00607,769.86133,-129.61699,-336.6358,671.50916,-75.29494,-226.84651,689.86157
14,0.108,-197.71632,-324.91623,769.26215,-129.76102,-336.50833,671.22443,-75.0994,-226.84038,687.20599
15,0.117,-197.79718,-324.96741,769.05493,-129.56383,-336.62601,670.93268,-74.91596,-226.92401,686.95563
16,0.125,-197.89061,-325.13724,768.79211,-129.79535,-336.41238,670.40778,-75.38243,-227.19426,686.33032
17,0.133,-197.86319,-325.34351,768.63885,-129.73543,-336.43414,670.20129,-75.57683,-228.02052,686.07446
18,0.142,-197.72864,-325.02463,768.13672,-129.73543,-336.43414,670.20129,-75.38243,-227.19426,686.33032
19,0.15,-197.21956,-324.81631,768.09637,-129.73543,-336.43414,670.20129,-74.91596,-226.92401,686.95563
20,0.158,-197.00386,-324.87341,768.11078,-129.61926,-336.44406,670.30688,-74.91596,-226.92401,686.95563
21,0.167,-196.95319,-325.11395,768.32477,-129.65601,-336.42767,670.95404,-74.37904,-226.19101,688.06769
22,0.175,-197.61526,-324.82843,769.05829,-129.78355,-336.14633,671.18774,-74.93446,-227.29782,690.41174
23,0.183,-198.00555,-324.60266,769.39899,-129.58304,-336.12833,671.80927,-75.14023,-227.0471,690.63824
24,0.192,-198.34526,-324.26184,769.6825,-129.43828,-336.0965,672.26862,-75.95933,-227.99956,691.45526
25,0.2,-198.6635,-323.59399,770.13745,-129.22397,-335.71976,672.6156,-75.77699,-227.34373,691.53888
26,0.208,-198.56339,-323.55695,770.25262,-129.10274,-335.54581,672.80536,-75.95933,-227.99956,691.45526
27,0.217,-198.33562,-323.31946,770.50336,-129.03951,-335.35138,673.03973,-75.77699,-227.34373,691.53888
28,0.225,-198.33562,-323.31946,770.50336,-129.03951,-335.35138,673.03973,-75.26918,-227.04747,691.31464
29,0.233,-198.33562,-323.31946,770.50336,-128.79916,-335.23959,672.99835,-75.26918,-227.04747,691.31464
30,0.242,-198.00922,-323.14377,770.50574,-128.41074,-335.39578,672.75537,-75.95933,-227.99956,691.45526
31,0.25,-197.44708,-323.19873,770.10931,-128.55875,-335.29694,672.57178,-75.77699,-227.34373,691.53888
32,0.258,-196.76234,-323.83087,769.94904,-128.50935,-335.55383,672.44226,-75.74282,-227.55301,690.96753
33,0.267,-196.8231,-323.76596,769.78943,-128.6235,-335.6456,672.26239,-75.14023,-227.0471,690.63824
34,0.275,-196.44159,-323.84406,769.68451,-128.7323,-335.84308,672.18152,-74.93446,-227.29782,690.41174
35,0.283,-196.25304,-324.21164,770.01422,-128.53305,-335.89822,672.16467,-74.93446,-227.29782,690.41174
36,0.292,-196.32416,-324.10962,769.48218,-128.5722,-335.96274,671.67511,-74.37904,-226.19101,688.06769
37,0.3,-196.33948,-324.21805,769.1076,-129.02388,-336.42377,671.10095,-74.73923,-225.73848,687.51764
38,0.308,-196.74841,-324.39578,768.8985,-128.98918,-336.70633,670.58911,-74.91596,-226.92401,686.95563
39,0.317,-196.65222,-324.19498,768.50873,-128.94092,-336.48761,670.38147,-74.91596,-226.92401,686.95563
40,0.325,-196.16969,-324.2287,768.16913,-128.78558,-336.50568,670.28363,-74.91596,-226.92401,686.95563
41,0.333,-195.98363,-324.29712,768.24225,-128.78558,-336.50568,670.28363,-74.91596,-226.92401,686.95563
42,0.342,-195.83855,-324.52084,768.08124,-128.51537,-336.36365,670.12891,-74.91596,-226.92401,686.95563
43,0.35,-195.98363,-324.29712,768.24225,-128.58092,-336.57324,670.30341,-74.12334,-226.59918,687.53326
44,0.358,-195.98363,-324.29712,768.24225,-128.8723,-336.58868,670.65448,-74.37904,-226.19101,688.06769
45,0.367,-196.6601,-324.49854,768.78485,-129.21809,-336.45035,671.3891,-74.50909,-227.2309,689.99725
46,0.375,-196.44159,-323.84406,769.68451,-128.97754,-336.08667,672.14301,-74.93446,-227.29782,690.41174
47,0.383,-196.76234,-323.83087,769.94904,-128.34813,-335.96487,672.20129,-75.35681,-227.49382,691.12604
48,0.392,-197.05058,-323.97797,770.13556,-128.30475,-335.97699,672.45648,-74.93175,-226.71658,691.3335
49,0.4,-197.84328,-324.03769,770.56964,-128.64868,-335.9274,672.68433,-75.26918,-227.04747,691.31464
50,0.408,-198.0007,-323.19763,770.67023,-128.46292,-336.48978,673.04425,-75.24804,-226.81789,691.5061
51,0.417,-198.15114,-323.54474,770.70782,-128.82335,-335.93088,672.87476,-75.26918,-227.04747,691.31464
52,0.425,-197.98524,-324.43854,770.77161,-128.46292,-336.48978,673.04425,-75.26918,-227.04747,691.31464
53,0.433,-197.85007,-324.8761,770.91284,-128.89145,-335.61926,672.83807,-75.95933,-227.99956,691.45526
54,0.442,-197.43919,-324.74231,770.48706,-128.97403,-335.31079,672.4801,-75.77699,-227.34373,691.53888
55,0.45,-196.97031,-324.21078,770.13556,-128.98792,-335.59314,672.50153,-75.74282,-227.55301,690.96753
56,0.458,-196.82721,-324.1665,770.37402,-128.86388,-335.75742,672.30383,-75.74282,-227.55301,690.96753
57,0.467,-196.60591,-323.91052,770.08081,-129.15718,-336.15414,672.18408,-74.93446,-227.29782,690.41174
58,0.475,-196.37448,-323.93671,769.98407,-129.15718,-336.15414,672.18408,-75.29494,-226.84651,689.86157
59,0.483,-196.353,-323.9136,769.63507,-129.23506,-336.0798,671.62732,-74.73923,-225.73848,687.51764
60,0.492,-196.549,-323.84888,769.58154,-129.43953,-336.31049,671.14203,-74.73923,-225.73848,687.51764
61,0.5,-196.86053,-323.72708,769.43573,-129.47995,-336.45941,670.85321,-75.12898,-226.58363,687.40082
62,0.508,-196.94498,-324.05551,769.06128,-129.47995,-336.45941,670.85321,-74.91596,-226.92401,686.95563
63,0.517,-196.62646,-324.2222,768.76404,-129.41313,-336.43817,670.71295,-74.91596,-226.92401,686.95563
64,0.525,-196.53813,-324.32495,768.65045,-129.41313,-336.43817,670.71295,-74.91596,-226.92401,686.95563
65,0.533,-196.33078,-324.09103,768.44092,-129.41313,-336.43817,670.71295,-74.91596,-226.92401,686.95563
66,0.542,-196.53813,-324.32495,768.65045,-129.47995,-336.45941,670.85321,-74.01367,-226.04019,687.76953
67,0.55,-196.54332,-324.02902,769.45648,-129.299,-336.38089,671.23688,-74.24768,-226.80745,689.06628
68,0.558,-196.24557,-323.90872,769.73804,-128.73296,-335.65601,671.66736,-74.93446,-227.29782,690.41174
69,0.567,-196.20695,-323.96344,769.8822,-128.34813,-335.96487,672.20129,-74.45966,-226.58864,690.34955
70,0.575,-196.81981,-323.86365,770.0979,-128.06441,-335.8653,672.41516,-74.45966,-226.58864,690.34955
71,0.583,-197.06342,-323.04581,770.33521,-128.19135,-335.50159,672.8894,-74.93175,-226.71658,691.3335
72,0.592,-197.23276,-323.02087,770.38715,-128.19135,-335.50159,672.8894,-74.93175,-226.71658,691.3335
73,0.6,-197.21873,-323.18286,770.57263,-128.14392,-335.64185,673.29791,-74.93175,-226.71658,691.3335
74,0.608,-197.06046,-324.37933,770.91248,-127.95649,-335.68774,673.26184,-75.24804,-226.81789,691.5061
75,0.617,-196.84251,-324.44135,770.94049,-127.95649,-335.68774,673.26184,-75.26918,-227.04747,691.31464
76,0.625,-196.84251,-324.44135,770.94049,-127.95649,-335.68774,673.26184,-75.24804,-226.81789,691.5061
77,0.633,-196.68719,-324.30426,770.70319,-127.95649,-335.68774,673.26184,-74.93175,-226.71658,691.3335
78,0.642,-196.37881,-324.33282,770.55457,-127.85077,-336.25397,673.15936,-74.80063,-226.45642,690.94965
79,0.65,-195.78453,-324.48541,770.52069,-127.90402,-336.5022,673.09729,-74.80063,-226.45642,690.94965
80,0.658,-195.78453,-324.48541,770.52069,-128.08127,-335.94818,672.71307,-75.14023,-227.0471,690.63824
81,0.667,-195.84721,-324.41498,770.34558,-128.06441,-335.8653,672.41516,-74.93446,-227.29782,690.41174
82,0.675,-196.25005,-324.30078,770.29584,-127.99893,-335.65567,672.24084,-74.93446,-227.29782,690.41174
83,0.683,-196.20695,-323.96344,769.8822,-128.53305,-335.89822,672.16467,-74.24768,-226.80745,689.06628
84,0.692,-196.20695,-323.96344,769.8822,-128.33212,-335.58505,671.63599,-74.37904,-226.19101,688.06769
85,0.7,-196.24557,-323.90872,769.73804,-128.33641,-335.7005,671.5661,-74.37904,-226.19101,688.06769
86,0.708,-196.05379,-323.94986,769.71954,-128.63338,-335.98465,671.09589,-74.01367,-226.04019,687.76953
87,0.717,-196.00755,-323.91156,769.56122,-128.56914,-336.3511,670.72174,-74.01367,-226.04019,687.76953
88,0.725,-195.85204,-323.7746,769.32397,-128.46034,-336.15366,670.80255,-74.01367,-226.04019,687.76953
89,0.733,-195.70135,-323.42755,769.28625,-128.0005,-335.54553,670.91193,-74.01367,-226.04019,687.76953
90,0.742,-195.47769,-323.4935,769.3219,-127.66321,-335.62079,671.1405,-73.90406,-225.48166,688.00604
91,0.75,-195.47769,-323.4935,769.3219,-127.72353,-335.49072,671.6228,-73.77292,-226.09819,689.00446
92,0.758,-196.02217,-322.67108,769.45935,-127.73198,-335.3056,671.74194,-74.45966,-226.58864,690.34955
93,0.767,-196.03644,-322.76477,769.7691,-127.89388,-335.27368,671.79926,-74.45966,-226.58864,690.34955
94,0.775,-196.22169,-322.72296,769.78052,-127.94344,-334.63086,672.1944,-74.45966,-226.58864,690.34955
95,0.783,-196.22169,-322.72296,769.78052,-127.7179,-335.02435,672.32098,-74.45966,-226.58864,690.34955
96,0.792,-196.25732,-322.75751,769.91809,-127.85313,-335.04367,672.52472,-74.66537,-226.33792,690.57599
97,0.8,-196.42491,-322.73068,770.0199,-127.64433,-334.99323,672.68585,-74.80063,-226.45642,690.94965
98,0.808,-196.24623,-322.5325,770.06537,-127.57193,-335.18469,672.71448,-74.7183,-225.75443,690.60425
99,0.817,-196.01486,-322.88629,770.13837,-127.39045,-335.22601,672.66876,-74.8819,-226.03064,691.01917
100,0.825,-195.94217,-323.28952,770.18079,-127.4158,-335.26703,672.83319,-74.66537,-226.33792,690.57599
101,0.833,-195.77701,-324.18268,770.24463,-127.4967,-335.15314,672.53082,-74.45966,-226.58864,690.34955
102,0.842,-195.84721,-324.41498,770.34558,-127.5938,-335.34134,672.31,-74.45966,-226.58864,690.34955
103,0.85,-195.84721,-324.41498,770.34558,-127.43045,-335.53958,672.19562,-74.45966,-226.58864,690.34955
104,0.858,-195.82675,-324.37216,770.19336,-127.82298,-335.68735,672.13995,-74.45966,-226.58864,690.34955
105,0.867,-195.82675,-324.37216,770.19336,-127.82298,-335.68735,672.13995,-74.45966,-226.58864,690.34955
106,0.875,-195.82675,-324.37216,770.19336,-127.82298,-335.68735,672.13995,-73.77292,-226.09819,689.00446
107,0.883,-195.81923,-324.06934,769.91724,-127.72353,-335.49072,671.6228,-73.77292,-226.09819,689.00446
108,0.892,-195.81923,-324.06934,769.91724,-127.83239,-335.6882,671.54193,-74.37904,-226.19101,688.06769
109,0.9,-195.81923,-324.06934,769.91724,-127.83239,-335.6882,671.54193,-74.37904,-226.19101,688.06769
110,0.908,-195.68748,-323.87756,769.5238,-127.50975,-335.77151,671.17609,-74.01367,-226.04019,687.76953
111,0.917,-195.35025,-323.57144,769.20532,-127.77346,-335.56009,670.5661,-74.01367,-226.04019,687.76953
112,0.925,-195.35185,-323.46094,768.80316,-127.77346,-335.56009,670.5661,-74.01367,-226.04019,687.76953
113,0.933,-195.25186,-323.44473,768.67346,-127.76613,-335.362,670.68579,-74.01367,-226.04019,687.76953
114,0.942,-195.35025,-323.57144,769.20532,-127.58273,-335.43588,670.74872,-74.37904,-226.19101,688.06769
115,0.95,-195.35025,-323.57144,769.20532,-127.65951,-335.47372,671.27374,-73.90406,-225.48166,688.00604
116,0.958,-195.47769,-323.4935,769.3219,-127.62684,-335.22476,671.4715,-73.77292,-226.09819,689.00446
117,0.967,-195.66852,-323.72238,769.87958,-127.73198,-335.3056,671.74194,-73.77292,-226.09819,689.00446
118,0.975,-195.66852,-323.72238,769.87958,-127.73198,-335.3056,671.74194,-74.45966,-226.58864,690.34955
119,0.983,-195.83374,-322.82907,769.81555,-127.55462,-335.37424,671.79291,-74.45966,-226.58864,690.34955
120,0.992,-195.85422,-322.87198,769.9679,-127.54446,-335.59818,672.18042,-74.45966,-226.58864,690.34955
121,1,-196.0049,-323.21896,770.00555,-127.33376,-335.92087,672.4303,-74.45966,-226.58864,690.34955
122,1.008,-195.83969,-324.11218,770.06946,-127.33376,-335.92087,672.4303,-74.45966,-226.58864,690.34955
123,1.017,-195.83969,-324.11218,770.06946,-127.33376,-335.92087,672.4303,-74.45966,-226.58864,690.34955
124,1.025,-195.84721,-324.41498,770.34558,-127.33376,-335.92087,672.4303,-74.45966,-226.58864,690.34955
125,1.033,-195.78453,-324.48541,770.52069,-127.33376,-335.92087,672.4303,-74.45966,-226.58864,690.34955
126,1.042,-195.71574,-324.47107,770.43506,-127.48375,-335.78784,672.13361,-74.45966,-226.58864,690.34955
127,1.05,-195.59726,-324.78577,770.1496,-127.27176,-336.65695,672.32324,-74.45966,-226.58864,690.34955
128,1.058,-195.31302,-325.09393,770.37421,-127.26333,-336.84189,672.2041,-74.45966,-226.58864,690.34955
129,1.067,-195.39522,-325.2699,769.85992,-127.37218,-337.03922,672.12323,-74.50909,-227.2309,689.99725
130,1.075,-195.39522,-325.2699,769.85992,-127.37218,-337.03922,672.12323,-74.24768,-226.80745,689.06628
131,1.083,-195.39522,-325.2699,769.85992,-127.43793,-337.26468,671.8382,-74.24768,-226.80745,689.06628
132,1.092,-195.41655,-325.55338,769.68585,-127.76809,-337.67734,671.7337,-74.24768,-226.80745,689.06628
133,1.1,-195.69429,-326.10947,769.64502,-127.8769,-337.87463,671.65283,-74.37904,-226.19101,688.06769
134,1.108,-195.69429,-326.10947,769.64502,-127.8769,-337.87463,671.65283,-74.37904,-226.19101,688.06769
135,1.117,-195.40694,-326.48962,769.45258,-127.89841,-337.71783,671.18256,-74.37904,-226.19101,688.06769
136,1.125,-195.40694,-326.48962,769.45258,-127.79661,-337.7114,671.05701,-74.40935,-226.63115,687.82092
137,1.133,-195.42906,-326.43051,769.28125,-127.79661,-337.7114,671.05701,-74.37904,-226.19101,688.06769
138,1.142,-195.15643,-325.91016,769.10913,-127.69486,-337.70502,670.93146,-74.37904,-226.19101,688.06769
139,1.15,-195.09665,-326.10916,769.18292,-127.86421,-336.77832,670.84979,-74.37904,-226.19101,688.06769
140,1.158,-195.18802,-325.20425,768.78668,-127.57076,-336.38153,670.96936,-74.37904,-226.19101,688.06769
141,1.167,-194.97464,-325.93561,769.04858,-127.425,-336.16782,671.03497,-74.24768,-226.80745,689.06628
142,1.175,-195.25562,-324.94757,768.92938,-127.43059,-337.06677,671.95782,-74.24768,-226.80745,689.06628
143,1.183,-195.61067,-325.048,769.4093,-127.25331,-337.13522,672.00879,-74.93446,-227.29782,690.41174
144,1.192,-195.58936,-324.76456,769.58331,-127.25331,-337.13522,672.00879,-74.45966,-226.58864,690.34955
145,1.2,-195.56723,-324.82373,769.75476,-126.82496,-336.99353,671.95117,-74.45966,-226.58864,690.34955
146,1.208,-195.40747,-324.79016,769.52271,-126.57237,-337.01062,671.74994,-74.45966,-226.58864,690.34955
147,1.217,-195.29391,-324.95532,769.38074,-126.57237,-337.01062,671.74994,-74.03439,-226.5217,689.93512
148,1.225,-194.84753,-325.72629,769.12708,-126.68127,-337.20789,671.66913,-74.03439,-226.5217,689.93512
149,1.233,-194.76038,-325.70975,769.0061,-126.5371,-337.57666,671.59991,-73.77292,-226.09819,689.00446
150,1.242,-194.80333,-326.13235,768.88055,-126.38558,-337.7478,671.65045,-73.77292,-226.09819,689.00446
151,1.25,-194.64967,-326.13754,768.77686,-126.38558,-337.7478,671.65045,-73.3858,-225.83586,688.7536
152,1.258,-194.67398,-326.33252,768.65686,-126.40696,-337.59088,671.18005,-73.3858,-225.83586,688.7536
153,1.267,-194.66641,-326.02954,768.38049,-126.40696,-337.59088,671.18005,-73.3858,-225.83586,688.7536
154,1.275,-194.66641,-326.02954,768.38049,-126.55273,-337.80438,671.11444,-73.88244,-226.6566,688.76825
155,1.283,-194.53741,-326.07541,768.28516,-126.66159,-338.00165,671.03363,-73.99201,-227.21545,688.53229
156,1.292,-194.53741,-326.07541,768.28516,-126.59833,-337.97632,670.88275,-73.99201,-227.21545,688.53229
157,1.3,-194.68808,-326.42221,768.32294,-126.59833,-337.97632,670.88275,-73.99201,-227.21545,688.53229
158,1.308,-194.53741,-326.07541,768.28516,-126.59833,-337.97632,670.88275,-73.99201,-227.21545,688.53229
159,1.317,-194.53741,-326.07541,768.28516,-126.39673,-337.81732,670.61456,-73.99201,-227.21545,688.53229
160,1.325,-194.53741,-326.07541,768.28516,-126.40673,-337.76364,670.44244,-73.99201,-227.21545,688.53229
161,1.333,-194.36626,-326.1424,768.3653,-126.40673,-337.76364,670.44244,-73.99201,-227.21545,688.53229
162,1.342,-194.05992,-326.41113,768.52917,-125.98793,-337.47324,670.72852,-73.88244,-226.6566,688.76825
163,1.35,-194.05992,-326.41113,768.52917,-126.13791,-337.44101,670.77289,-73.3858,-225.83586,688.7536
164,1.358,-193.74226,-326.43088,768.6557,-125.98504,-337.52115,670.88824,-73.3858,-225.83586,688.7536
165,1.367,-193.60201,-326.25156,768.70721,-125.85039,-337.26617,670.96021,-73.3858,-225.83586,688.7536
166,1.375,-193.60201,-326.25156,768.70721,-125.69794,-337.33899,671.05103,-73.3858,-225.83586,688.7536
167,1.383,-193.60201,-326.25156,768.70721,-125.30106,-337.58557,671.44006,-73.3858,-225.83586,688.7536
168,1.392,-193.60201,-326.25156,768.70721,-125.30106,-337.58557,671.44006,-73.3858,-225.83586,688.7536
169,1.4,-193.60201,-326.25156,768.70721,-125.48738,-337.40286,671.0517,-73.3858,-225.83586,688.7536
170,1.408,-193.41446,-326.28619,768.67096,-125.01711,-337.58176,671.1756,-73.3858,-225.83586,688.7536
171,1.417,-192.62378,-327.16318,769.48883,-124.87497,-337.63235,671.20105,-72.79652,-226.1223,688.85474
172,1.425,-192.46815,-327.18652,769.43384,-124.87497,-337.63235,671.20105,-72.79652,-226.1223,688.85474
173,1.433,-192.39409,-327.17914,769.32556,-124.87497,-337.63235,671.20105,-72.79652,-226.1223,688.85474
174,1.442,-192.39409,-327.17914,769.32556,-125.01874,-337.50488,670.91638,-72.79652,-226.1223,688.85474
175,1.45,-192.25142,-327.2077,769.23334,-124.88921,-337.32355,670.77338,-72.20698,-226.40767,688.95575
176,1.458,-192.71307,-327.07907,769.24927,-125.01874,-337.50488,670.91638,-72.79652,-226.1223,688.85474
177,1.467,-192.71307,-327.07907,769.24927,-124.72194,-337.3606,670.72699,-72.20698,-226.40767,688.95575
178,1.475,-192.71307,-327.07907,769.24927,-124.88921,-337.32355,670.77338,-72.20698,-226.40767,688.95575
179,1.483,-192.5468,-326.88779,769.01337,-124.88921,-337.32355,670.77338,-72.79652,-226.1223,688.85474
180,1.492,-192.5468,-326.88779,769.01337,-125.01874,-337.50488,670.91638,-72.79652,-226.1223,688.85474
181,1.5,-192.5468,-326.88779,769.01337,-124.90945,-337.57767,671.05103,-72.79652,-226.1223,688.85474
182,1.508,-192.5468,-326.88779,769.01337,-125.15348,-337.75986,670.84442,-72.97051,-226.72475,688.66058
183,1.517,-192.71307,-327.07907,769.24927,-125.15348,-337.75986,670.84442,-72.79652,-226.1223,688.85474
184,1.525,-192.85574,-327.05051,769.34149,-125.15348,-337.75986,670.84442,-72.97051,-226.72475,688.66058
185,1.533,-192.94275,-327.06314,769.41254,-125.15348,-337.75986,670.84442,-73.55994,-226.43832,688.55939
186,1.542,-192.85574,-327.05051,769.34149,-125.15348,-337.75986,670.84442,-73.55994,-226.43832,688.55939
187,1.55,-192.92979,-327.05786,769.44977,-125.15348,-337.75986,670.84442,-73.55994,-226.43832,688.55939
188,1.558,-193.00041,-327.02786,769.38867,-125.15348,-337.75986,670.84442,-73.55994,-226.43832,688.55939
189,1.567,-193.00041,-327.02786,769.38867,-125.15348,-337.75986,670.84442,-73.3858,-225.83586,688.7536
190,1.575,-192.85574,-327.05051,769.34149,-125.15348,-337.75986,670.84442,-73.3858,-225.83586,688.7536
191,1.583,-192.71307,-327.07907,769.24927,-125.15348,-337.75986,670.84442,-73.3858,-225.83586,688.7536
192,1.592,-192.85574,-327.05051,769.34149,-125.15348,-337.75986,670.84442,-73.55994,-226.43832,688.55939
