Frame#,Time,R.Forearm.x,R.Forearm.y,R.Forearm.z,R.Ulna.x,R.Ulna.y,R.Ulna.z,R.Radius.x,R.Radius.y,R.Radius.z
1,0,-1164.07446,-217.81631,1144.85107,-1204.625,-254.1198,1036.70715,-1161.12256,-184.40025,960.64368
2,0.008,-1162.50464,-218.12921,1143.32568,-1201.96326,-254.39954,1037.28577,-1154.21411,-186.34889,962.79633
3,0.017,-1156.07251,-218.42101,1143.51416,-1196.37305,-252.47005,1035.89563,-1147.73218,-185.5239,961.40125
4,0.025,-1150.93457,-220.52089,1142.80664,-1191.20557,-251.50575,1034.62244,-1139.47131,-187.27692,960.81732
5,0.033,-1146.18066,-216.95277,1143.40686,-1186.07507,-252.16673,1034.18457,-1135.08765,-188.86298,959.83423
6,0.042,-1141.3302,-218.32025,1141.91687,-1181.46204,-252.06218,1033.36768,-1129.88879,-189.95145,959.13837
7,0.05,-1135.78516,-219.36472,1141.08679,-1174.89063,-250.99011,1033.32935,-1122.86475,-187.95985,958.29291
8,0.058,-1129.78528,-217.85367,1140.82886,-1169.75671,-252.09256,1031.81836,-1117.41199,-190.35089,957.58319
9,0.067,-1124.12451,-219.51012,1139.53027,-1164.29822,-254.96033,1030.91882,-1113.96301,-191.52864,957.45685
10,0.075,-1118.30786,-220.58376,1138.81946,-1158.96313,-254.00378,1030.48853,-1110.92456,-188.04335,955.91217
11,0.083,-1112.04846,-220.99065,1137.6543,-1154.57739,-254.21631,1030.02979,-1102.77161,-189.41914,955.06708
12,0.092,-1106.45398,-220.47057,1136.71082,-1148.23889,-255.54922,1028.02454,-1104.17944,-186.64793,953.85724
13,0.1,-1100.65808,-221.36899,1135.72791,-1143.43982,-256.15384,1027.92236,-1097.60144,-183.94841,952.95544
14,0.108,-1095.46375,-221.16977,1134.57764,-1136.08716,-252.70915,1025.61169,-1095.24048,-182.88579,952.78387
15,0.117,-1089.729,-219.51923,1134.41565,-1129.59912,-252.3138,1024.55127,-1088.15869,-180.35667,952.58734
16,0.125,-1083.16382,-217.03702,1132.15247,-1123.52539,-251.88026,1024.51416,-1086.47424,-179.92549,951.68616
17,0.133,-1078.1626,-217.78122,1131.82104,-1117.86365,-251.85422,1023.23993,-1076.11304,-177.62799,950.26129
18,0.142,-1072.72034,-214.82246,1129.53979,-1111.0321,-251.4955,1021.71106,-1075.33875,-176.88063,949.90857
19,0.15,-1066.8866,-214.87743,1129.31213,-1105.96973,-249.87964,1021.76874,-1067.3241,-174.69662,948.70569
20,0.158,-1062.7959,-215.63992,1128.0896,-1100.10803,-246.55666,1018.77625,-1063.20081,-175.33194,947.17938
21,0.167,-1055.75708,-213.75137,1127.72998,-1094.14368,-247.25304,1018.44684,-1054.85083,-174.14709,946.04132
22,0.175,-1051.43176,-214.61896,1126.06482,-1091.17957,-247.40555,1017.08136,-1054.95825,-172.5014,944.01324
23,0.183,-1043.35327,-213.27904,1123.36499,-1084.85999,-248.31076,1015.06201,-1042.49353,-175.50264,943.0379
24,0.192,-1038.08459,-215.37024,1123.72522,-1079.71765,-247.13657,1014.27856,-1032.3584,-176.4236,941.46069
25,0.2,-1032.08447,-216.17316,1120.82129,-1075.06189,-245.95782,1012.11096,-1021.6958,-177.03876,940.58441
26,0.208,-1025.5481,-216.43147,1120.32104,-1067.47437,-244.78777,1009.99347,-1010.85529,-180.49448,937.83856
27,0.217,-1018.65637,-216.86958,1118.62695,-1061.60107,-246.59747,1008.34949,-1000.25928,-186.27991,936.65216
28,0.225,-1011.91272,-218.68083,1115.82458,-1054.18799,-246.69649,1006.80164,-992.98584,-185.9624,935.91443
29,0.233,-1004.53107,-218.8147,1113.7981,-1046.89563,-246.57874,1004.2063,-986.19482,-185.65247,933.60474
30,0.242,-998.47546,-220.41077,1111.797,-1041.06299,-248.32022,1002.56519,-981.84064,-187.90395,930.80389
31,0.25,-990.69055,-222.4713,1110.62463,-1034.17444,-248.05708,1001.82178,-975.09094,-187.22282,930.79077
32,0.258,-982.04553,-222.36191,1109.35913,-1026.41785,-248.48277,999.62317,-969.15918,-186.75146,928.33643
33,0.267,-975.38519,-224.58047,1108.49512,-1019.28528,-250.57298,998.33112,-962.26715,-189.54126,926.68433
34,0.275,-967.42896,-227.65939,1106.57861,-1011.45276,-251.9377,996.75195,-952.54736,-193.34723,925.60834
35,0.283,-958.6532,-227.24069,1105.57629,-1003.38599,-253.89494,995.34082,-942.71863,-197.00041,925.26965
36,0.292,-951.40625,-230.24979,1104.46558,-996.47192,-255.90729,994.73895,-937.12335,-199.27644,923.94397
37,0.3,-942.54785,-234.8652,1103.97363,-989.36914,-259.84,995.72192,-927.81091,-203.88148,923.82294
38,0.308,-935.28247,-238.25131,1102.94385,-982.04022,-262.3006,994.21082,-918.7569,-205.59132,923.05542
39,0.317,-925.81763,-238.34375,1102.4552,-972.87842,-262.28534,992.98071,-911.97571,-207.88957,921.92487
40,0.325,-915.72302,-241.91689,1103.60938,-964.71796,-267.09177,993.90521,-903.05408,-209.03798,921.53424
41,0.333,-908.78131,-244.33685,1102.9917,-956.98218,-267.50891,993.19873,-896.27179,-211.94495,921.54486
42,0.342,-900.03662,-246.28061,1103.58008,-946.78015,-269.20309,993.1449,-887.18219,-210.5285,921.41949
43,0.35,-890.91974,-246.95244,1103.84485,-938.19794,-270.94113,994.14093,-881.90808,-212.33798,922.47693
44,0.358,-883.07568,-250.19746,1105.09924,-928.93579,-273.50296,995.1109,-874.76727,-211.46693,922.65131
45,0.367,-873.68323,-248.39468,1105.43701,-919.4046,-274.91888,996.45685,-867.44391,-212.65474,923.61481
46,0.375,-865.56201,-250.49655,1106.13599,-911.33362,-278.98401,997.83252,-862.08673,-212.92322,925.6358
47,0.383,-856.60907,-250.67822,1109.37219,-901.49164,-279.13321,998.94415,-853.32269,-212.18724,926.55182
48,0.392,-848.15833,-251.15886,1109.44421,-892.23157,-281.55643,1001.55762,-844.97131,-213.84555,928.27325
49,0.4,-840.98944,-254.62532,1112.48792,-883.14087,-284.23056,1002.97992,-837.87817,-214.88828,927.93658
50,0.408,-831.21472,-254.89482,1112.93262,-873.33569,-285.70859,1004.25677,-827.13525,-217.66072,929.56482
51,0.417,-822.34686,-256.19083,1114.53918,-865.68835,-286.82437,1005.27252,-819.086,-218.72803,932.93506
52,0.425,-814.95673,-259.07562,1117.47253,-854.46393,-288.11499,1007.1236,-808.60931,-221.08067,935.06494
53,0.433,-805.40649,-262.18835,1117.83472,-847.11591,-292.98059,1008.96082,-798.95197,-221.28497,935.85522
54,0.442,-796.73242,-264.24774,1121.05688,-837.47839,-293.90121,1009.51086,-787.28558,-226.52473,939.64197
55,0.45,-788.91187,-266.63757,1121.46899,-827.91711,-296.4957,1012.00562,-777.00903,-230.28827,941.82806
56,0.458,-780.24219,-270.52289,1123.5719,-819.38251,-299.57523,1012.5943,-764.20374,-233.7397,942.53546
57,0.467,-770.36517,-272.75919,1124.91858,-808.47241,-300.40601,1014.17944,-749.12445,-239.45059,945.24182
58,0.475,-761.82819,-275.03326,1126.79358,-800.29449,-304.95462,1015.8335,-739.69617,-244.7724,946.87445
59,0.483,-753.11505,-278.77484,1128.53699,-791.28021,-307.00009,1016.89594,-728.69684,-247.63081,948.76508
60,0.492,-744.2583,-282.01434,1128.96802,-781.27905,-310.42023,1018.59033,-717.36646,-249.81186,949.92706
61,0.5,-736.12073,-286.12085,1131.26172,-771.06012,-311.97949,1019.22717,-706.80652,-254.50049,952.4248
62,0.508,-726.23694,-288.35611,1133.42041,-762.26593,-315.6983,1019.97552,-696.64099,-259.97708,955.59607
63,0.517,-716.36426,-290.5687,1134.65979,-751.99225,-317.22156,1021.63184,-685.94751,-263.03732,956.80273
64,0.525,-706.67175,-293.58328,1135.95361,-742.51556,-318.66678,1023.50781,-674.22186,-264.41022,957.60339
65,0.533,-697.91943,-295.47943,1137.16443,-734.4743,-321.24564,1024.11743,-665.7793,-266.17032,959.4024
66,0.542,-687.33704,-296.44012,1139.5448,-723.5647,-321.92563,1026.06384,-656.59991,-264.32358,961.79456
67,0.55,-679.12567,-296.63696,1140.26624,-714.20081,-324.79849,1027.30823,-647.95276,-265.17368,963.37329
68,0.558,-671.9248,-297.84329,1142.52429,-701.58112,-325.35779,1029.33557,-638.78668,-263.4194,966.12012
69,0.567,-662.47467,-297.15164,1144.83533,-691.84576,-327.92538,1031.29858,-629.82385,-263.08545,967.57892
70,0.575,-655.73315,-296.87878,1145.98291,-680.79047,-327.9144,1033.51257,-621.97437,-262.0014,968.67596
71,0.583,-645.36652,-296.4996,1147.02112,-670.64539,-327.52695,1035.01746,-612.54901,-259.89624,969.78101
72,0.592,-636.31049,-296.96402,1149.17798,-661.01532,-330.25824,1036.12317,-603.63123,-261.75595,972.52667
73,0.6,-628.80664,-295.39868,1150.56067,-651.86334,-329.89178,1037.68628,-594.86609,-260.61981,973.89172
74,0.608,-619.83807,-298.0419,1150.453,-641.96533,-331.63013,1038.0979,-584.71613,-260.1954,974.90051
75,0.617,-610.52594,-297.289,1152.04102,-632.64343,-330.88904,1039.53894,-576.24072,-262.53854,975.50073
76,0.625,-603.13049,-298.97644,1153.69812,-622.63635,-333.01743,1040.50928,-566.33331,-261.47147,977.44733
77,0.633,-593.93848,-299.38318,1154.85693,-613.49908,-332.94012,1040.19678,-555.18658,-261.79831,977.89935
78,0.642,-585.82562,-299.7998,1155.43091,-604.7135,-334.9516,1041.93127,-546.69507,-263.62415,977.95605
79,0.65,-575.05408,-299.82703,1155.28687,-593.30859,-335.12973,1041.63953,-535.48602,-263.85773,978.55798
80,0.658,-569.28748,-301.46515,1154.53564,-585.98712,-336.19202,1041.05542,-526.25354,-264.64551,979.01489
81,0.667,-557.8717,-303.43463,1155.26111,-575.43347,-336.56158,1042.04993,-515.86023,-267.1413,979.70258
82,0.675,-549.34674,-304.08209,1155.20325,-566.69873,-337.32947,1041.37451,-505.36255,-267.90808,979.81384
83,0.683,-539.90491,-303.51511,1155.19897,-557.13989,-338.32935,1041.4165,-494.3963,-270.45419,980.47626
84,0.692,-530.77405,-304.64368,1155.41882,-548.29822,-339.07507,1041.15601,-483.99573,-270.59146,980.82861
85,0.7,-520.47803,-306.09406,1154.8678,-538.57617,-339.69241,1040.6355,-473.6665,-273.54565,980.37109
86,0.708,-511.60339,-306.92123,1154.8219,-529.19373,-341.42871,1040.04712,-462.90775,-276.27307,980.70679
87,0.717,-502.7793,-307.23712,1154.58179,-519.6955,-340.61823,1040.2406,-451.13303,-275.63327,980.85468
88,0.725,-492.82782,-308.96524,1154.69629,-509.82755,-342.64496,1039.2854,-441.59009,-280.21085,980.09979
89,0.733,-482.45703,-307.54532,1152.83923,-501.26852,-342.49896,1039.5719,-431.53894,-281.83087,980.02985
90,0.742,-472.75528,-310.30521,1152.83716,-490.90231,-343.67078,1038.60901,-421.87161,-285.57187,980.13684
91,0.75,-464.13733,-309.98145,1152.21008,-482.81201,-345.6886,1037.78613,-412.03677,-285.91406,979.11676
92,0.758,-455.68192,-312.43912,1151.79639,-473.3367,-347.03821,1037.25525,-402.75119,-287.20581,978.39532
93,0.767,-447.88321,-313.11893,1150.89478,-464.95523,-346.32217,1035.52551,-394.34375,-288.67075,977.07452
94,0.775,-439.2746,-309.9537,1149.51086,-457.75006,-347.72641,1035.59424,-387.42108,-287.47052,974.93481
95,0.783,-430.37369,-313.79169,1149.60376,-449.25134,-348.78378,1035.08472,-380.95145,-285.492,973.85565
96,0.792,-421.70169,-313.00882,1148.37695,-439.82104,-347.68231,1033.33435,-374.65619,-284.31403,972.4848
97,0.8,-413.98718,-309.83774,1147.073,-432.50693,-348.32465,1034.11682,-367.73181,-282.26373,970.60303
98,0.808,-406.26675,-309.19504,1146.16772,-423.59006,-347.33231,1033.37512,-361.23404,-279.534,969.62732
99,0.817,-398.88464,-307.36469,1146.04773,-414.62201,-346.11215,1031.93677,-354.12167,-277.32108,969.31171
100,0.825,-390.79483,-305.22867,1144.78638,-405.23618,-345.14206,1031.64575,-348.40445,-275.64886,967.75812
101,0.833,-382.35867,-302.87872,1143.53467,-397.58163,-343.84082,1031.49377,-342.48315,-274.29526,965.72369
102,0.842,-374.90039,-301.23889,1142.84509,-389.79297,-343.84573,1030.57764,-334.42322,-273.1138,964.64148
103,0.85,-367.45197,-298.67206,1141.95483,-383.3157,-342.83731,1029.91174,-326.93784,-271.68652,964.63806
104,0.858,-360.50024,-297.22339,1141.81934,-375.01099,-341.05264,1029.64014,-319.65955,-271.34622,964.10724
105,0.867,-353.76733,-296.5007,1141.76575,-367.59155,-339.35831,1028.92224,-312.05051,-268.47855,963.84625
106,0.875,-347.31473,-296.19293,1140.92468,-362.21735,-338.16339,1028.46094,-305.52417,-268.37292,962.35309
107,0.883,-339.29388,-294.23151,1139.29321,-354.95831,-335.77936,1028.07104,-298.22345,-267.2554,962.64471
108,0.892,-332.30862,-292.63824,1140.17053,-347.96558,-333.04395,1027.91455,-290.02316,-265.24106,962.14337
109,0.9,-325.54315,-292.32391,1139.86816,-341.60776,-332.90976,1028.34473,-284.20364,-263.85635,962.28455
110,0.908,-318.67194,-289.61331,1139.89441,-335.74738,-331.07535,1028.9585,-276.76511,-263.30762,962.05542
111,0.917,-311.75909,-288.71747,1139.82483,-328.98486,-328.11041,1029.37024,-269.06073,-262.07693,964.1908
112,0.925,-303.41269,-286.17035,1141.1366,-324.30634,-325.95309,1029.31848,-262.39282,-260.92825,963.88312
113,0.933,-296.49838,-284.36581,1141.59985,-318.44073,-323.92963,1030.50818,-255.7645,-260.65247,964.3783
114,0.942,-289.61975,-283.11224,1142.38,-312.15012,-322.59122,1030.83484,-249.09724,-260.39688,965.80249
115,0.95,-283.10635,-280.41934,1143.56909,-305.67392,-320.4769,1033.06812,-242.07469,-258.90082,966.68848
116,0.958,-275.93143,-277.84381,1145.17175,-301.46939,-318.38928,1034.41199,-236.681,-259.88071,967.05066
117,0.967,-268.46072,-276.90228,1145.89539,-296.40594,-317.07184,1036.06323,-230.68729,-259.47379,967.59088
118,0.975,-265.31793,-275.14819,1147.68384,-289.7951,-314.54352,1036.4093,-225.24724,-259.95105,969.11481
119,0.983,-257.96286,-273.96802,1148.53882,-286.15582,-313.42123,1039.23193,-221.12561,-258.80771,970.31799
120,0.992,-250.61787,-270.88403,1150.40906,-281.77069,-311.22308,1039.91956,-216.45934,-257.99319,970.32281
121,1,-244.54381,-271.07733,1151.38428,-277.78778,-310.87433,1041.05591,-214.08414,-256.45618,971.26196
122,1.008,-239.22278,-270.27505,1152.40015,-273.41611,-308.55734,1042.0061,-211.02705,-252.15349,971.59955
123,1.017,-233.20068,-268.11728,1154.39258,-268.18094,-307.63022,1044.70068,-209.40599,-248.97375,971.67242
124,1.025,-227.10193,-265.30823,1154.26843,-262.94693,-305.76266,1045.30701,-206.08192,-247.22418,972.17542
125,1.033,-221.48927,-264.39301,1155.78174,-257.38928,-303.94632,1046.32629,-203.00569,-243.0513,972.95398
126,1.042,-216.93642,-261.43991,1155.93762,-251.91779,-302.39816,1048.22717,-199.25916,-239.69557,973.34186
127,1.05,-211.3528,-258.41031,1157.01379,-244.38519,-300.65869,1049.34705,-195.27083,-236.67845,974.39972
128,1.058,-204.26956,-254.0518,1156.10938,-238.87341,-299.51996,1050.13025,-192.56796,-233.72914,974.70721
129,1.067,-202.29059,-251.77704,1157.14624,-234.38068,-297.52469,1050.79773,-189.44228,-230.46904,974.77026
130,1.075,-195.69743,-250.23193,1158.22302,-228.48822,-296.17752,1051.6499,-185.99597,-228.69914,974.92792
131,1.083,-189.59401,-247.87744,1158.19653,-222.53662,-293.83337,1052.36597,-180.62328,-226.55165,975.36304
132,1.092,-184.56175,-245.30049,1158.2251,-216.75671,-292.61475,1052.89404,-177.1956,-223.63795,974.68341
133,1.1,-178.45441,-243.82162,1158.70972,-212.05112,-290.38016,1053.99915,-171.77574,-221.60789,975.74677
134,1.108,-173.10692,-242.20831,1159.94336,-206.54861,-288.15656,1054.35278,-167.10422,-220.16747,975.91174
135,1.117,-167.22539,-241.09875,1159.74915,-201.25998,-287.98959,1054.13574,-162.42239,-218.24446,976.31311
136,1.125,-160.75107,-241.68231,1160.49048,-197.09602,-285.08502,1054.06421,-157.06984,-217.5304,976.62921
137,1.133,-154.40553,-240.73297,1161.66687,-191.20535,-283.85501,1054.85193,-150.91362,-215.77571,977.15747
138,1.142,-150.96558,-239.41037,1161.31458,-185.93539,-283.39639,1054.84839,-144.10666,-215.23883,977.74323
139,1.15,-143.31841,-239.88995,1162.92078,-181.57646,-281.86197,1055.85071,-137.83467,-216.05017,978.62683
140,1.158,-136.42577,-239.25111,1163.37891,-176.72891,-280.82547,1056.77759,-131.16389,-214.48566,979.03027
141,1.167,-131.45822,-239.21402,1164.32788,-170.64954,-280.0585,1057.36438,-124.29465,-214.75772,979.60474
142,1.175,-124.84796,-238.20538,1164.53357,-165.14444,-278.7132,1057.65332,-117.63799,-215.43848,981.38092
143,1.183,-118.55215,-237.68411,1164.69373,-159.62282,-279.66797,1058.50122,-111.7618,-214.90533,980.8598
144,1.192,-113.20321,-237.65492,1166.16858,-156.59773,-278.40234,1057.38184,-105.01347,-215.92839,981.51147
145,1.2,-106.66451,-237.13631,1165.50195,-146.20381,-278.10132,1059.09167,-98.97038,-216.23283,981.50433
146,1.208,-100.92168,-236.62621,1165.69385,-143.10956,-276.67911,1059.44666,-92.38367,-216.96785,982.52356
147,1.217,-95.28481,-236.36871,1165.50281,-140.95142,-276.76373,1058.88,-87.08216,-217.39961,982.21527
148,1.225,-91.04262,-237.45398,1164.56006,-133.20023,-275.6701,1058.10718,-83.06853,-216.85201,981.59467
149,1.233,-85.89585,-237.27898,1164.59534,-130.37067,-276.07602,1057.71411,-78.5218,-215.52061,981.15753
150,1.242,-79.2555,-236.41496,1163.89355,-125.17995,-274.56754,1057.45337,-75.43052,-214.08185,980.25891
151,1.25,-73.85812,-235.55173,1163.73755,-119.71362,-274.58505,1056.75403,-69.72447,-212.46303,980.07007
152,1.258,-69.14171,-234.64311,1163.16296,-112.43466,-272.80508,1055.27039,-66.82121,-210.25935,979.23474
153,1.267,-63.51049,-234.10753,1162.24658,-109.82471,-272.36108,1055.49866,-62.86995,-208.6068,978.5954
154,1.275,-57.54201,-230.97806,1161.21765,-103.3558,-271.01328,1055.30042,-59.66531,-205.33427,978.30096
155,1.283,-53.5975,-229.41159,1159.96692,-96.68932,-269.49976,1053.77332,-55.12136,-203.36839,977.2583
156,1.292,-48.23297,-228.99908,1159.3374,-89.18688,-268.55795,1053.68701,-49.58604,-201.52022,975.72937
157,1.3,-42.45977,-226.101,1158.65076,-83.43673,-268.9895,1053.24097,-44.72002,-199.76732,974.57214
158,1.308,-35.74501,-225.96643,1157.42834,-76.35805,-268.57239,1051.93115,-40.32036,-198.39731,973.27588
159,1.317,-28.1705,-226.01917,1157.00122,-71.10172,-266.5321,1050.29443,-35.56861,-196.42088,971.88538
160,1.325,-22.52502,-224.86903,1154.63501,-65.06608,-265.74176,1050.07629,-28.18405,-194.14035,972.12482
161,1.333,-16.11294,-224.11794,1154.16797,-58.24579,-266.00787,1048.65051,-20.96167,-193.04834,970.35114
162,1.342,-9.53945,-223.93712,1153.42834,-51.21826,-265.3212,1047.98657,-14.79373,-192.61423,969.59882
163,1.35,-1.80262,-225.25374,1152.55896,-43.42749,-264.11591,1045.62317,-6.56154,-191.79222,968.79474
164,1.358,5.68277,-226.08904,1151.18677,-36.93739,-263.09589,1044.25842,-0.04249,-191.43806,967.49768
165,1.367,12.67596,-225.86682,1149.48584,-30.1937,-263.85919,1043.30994,10.42852,-191.0959,966.78888
166,1.375,19.80136,-226.18469,1148.28442,-22.67813,-263.80258,1041.81982,16.40032,-191.33513,965.50476
167,1.383,28.36748,-226.43825,1147.8551,-14.72571,-262.64883,1040.77551,26.47547,-193.85895,965.22815
168,1.392,36.72287,-227.4424,1146.09924,-7.48316,-262.00647,1038.30847,34.59677,-192.80086,963.35468
169,1.4,42.81294,-228.65457,1144.97559,-1.87757,-263.26709,1037.72595,44.26109,-194.91895,962.40088
170,1.408,50.77259,-228.65601,1143.87305,7.04087,-263.12274,1035.8501,52.46224,-196.05771,961.23108
171,1.417,57.6727,-228.56714,1141.77319,14.79001,-263.06769,1033.93176,61.81085,-197.56554,959.06268
172,1.425,67.32001,-231.02588,1140.88806,22.01899,-264.11444,1032.00964,70.85378,-200.52386,958.05078
173,1.433,75.43135,-232.00725,1138.03271,29.44361,-264.10452,1030.82361,78.58696,-201.09077,956.8111
174,1.442,83.48113,-231.6093,1136.59607,37.34761,-265.27844,1029.19031,85.53178,-203.05042,954.62317
175,1.45,91.99831,-234.39299,1135.25732,44.81547,-265.41327,1026.84924,91.90549,-202.32431,951.37079
176,1.458,99.93522,-235.88213,1132.80933,52.05334,-265.95401,1024.2052,99.8429,-200.90878,949.74927
177,1.467,108.57097,-235.70627,1130.31274,61.45183,-266.67038,1022.44232,108.89819,-200.07735,949.17926
178,1.475,118.22629,-236.06187,1128.87866,70.41521,-266.1142,1019.89178,115.3696,-199.8075,945.33569
179,1.483,126.59563,-235.58418,1126.48376,80.88449,-266.70984,1017.41193,122.44144,-198.87506,944.3316
180,1.492,135.21529,-235.10889,1125.24316,89.77183,-266.56812,1016.20435,130.94595,-196.39775,941.37476
181,1.5,144.07141,-234.75841,1122.22363,100.67574,-268.49753,1014.06519,137.76558,-194.10359,940.43884
182,1.508,152.16068,-233.52672,1120.81335,109.96884,-268.992,1011.8786,146.4155,-193.1839,938.89777
183,1.517,162.21031,-233.91522,1118.97009,121.69691,-269.7291,1010.25708,154.63101,-193.31152,937.48773
184,1.525,172.59097,-234.77484,1117.44092,130.5992,-270.1853,1008.76532,164.25745,-193.30923,934.90027
185,1.533,181.45142,-235.01582,1115.78638,142.27402,-270.79785,1007.04828,175.53539,-193.19536,933.94354
186,1.542,192.0444,-236.63316,1114.64941,151.59854,-272.10324,1005.32977,184.51265,-194.16528,932.20911
187,1.55,202.36946,-236.66122,1113.35107,162.00595,-271.91071,1005.06335,196.80659,-194.42569,930.61151
188,1.558,211.60428,-238.39937,1112.94336,173.01006,-272.79214,1003.52435,205.7496,-195.38496,930.34998
