Frame#,Time,R.Forearm.x,R.Forearm.y,R.Forearm.z,R.Ulna.x,R.Ulna.y,R.Ulna.z,R.Radius.x,R.Radius.y,R.Radius.z
1,0,-0.09311,-260.37631,966.5047,67.57019,-224.70335,938.89941,46.60905,-164.98509,989.46948
2,0.008,0.47162,-260.6441,966.35883,67.57019,-224.70335,938.89941,46.22286,-164.54442,988.92651
3,0.017,-0.09311,-260.37631,966.5047,67.57019,-224.70335,938.89941,46.94043,-164.77457,989.35498
4,0.025,0.27166,-260.27646,966.38318,67.57019,-224.70335,938.89941,47.41254,-165.28952,989.47687
5,0.033,0.27166,-260.27646,966.38318,67.57019,-224.70335,938.89941,47.05025,-164.97513,989.72479
6,0.042,0.27166,-260.27646,966.38318,67.57019,-224.70335,938.89941,46.85854,-164.84508,989.59149
7,0.05,0.27166,-260.27646,966.38318,67.65911,-224.57916,939.0567,46.58134,-164.49989,989.11914
8,0.058,0.27166,-260.27646,966.38318,67.65911,-224.57916,939.0567,46.64852,-164.71632,989.39429
9,0.067,0.27166,-260.27646,966.38318,67.91187,-224.32185,938.9776,47.03807,-164.66029,989.50397
10,0.075,0.4109,-259.9476,966.54401,67.84776,-224.19182,939.12555,46.72673,-164.58482,989.56213
11,0.083,0.4109,-259.9476,966.54401,67.91187,-224.32185,938.9776,46.74548,-164.28304,989.50024
12,0.092,0.4109,-259.9476,966.54401,67.96871,-224.25389,939.43011,46.94043,-164.77457,989.35498
13,0.1,0.4109,-259.9476,966.54401,68.03284,-224.38394,939.28217,47.03807,-164.66029,989.50397
14,0.108,0.4109,-259.9476,966.54401,67.91187,-224.32185,938.9776,47.03807,-164.66029,989.50397
15,0.117,0.4109,-259.9476,966.54401,67.96871,-224.25389,939.43011,47.03807,-164.66029,989.50397
16,0.125,0.4109,-259.9476,966.54401,67.96871,-224.25389,939.43011,47.13648,-164.83783,989.82904
17,0.133,0.4109,-259.9476,966.54401,67.96871,-224.25389,939.43011,47.0076,-164.57788,989.85651
18,0.142,0.4109,-259.9476,966.54401,67.96871,-224.25389,939.43011,47.13648,-164.83783,989.82904
19,0.15,0.4109,-259.9476,966.54401,67.96871,-224.25389,939.43011,47.13648,-164.83783,989.82904
20,0.158,0.59341,-260.41492,967.09064,68.27931,-224.24886,939.48175,47.13648,-164.83783,989.82904
21,0.167,0.23903,-260.39081,967.06647,68.21517,-224.11876,939.6297,47.13648,-164.83783,989.82904
22,0.175,0.59341,-260.41492,967.09064,68.21517,-224.11876,939.6297,47.13648,-164.83783,989.82904
23,0.183,0.6037,-260.14981,966.77917,68.21517,-224.11876,939.6297,47.13648,-164.83783,989.82904
24,0.192,0.59341,-260.41492,967.09064,68.55228,-224.53651,939.95453,47.48391,-164.54662,990.58282
25,0.2,0.59341,-260.41492,967.09064,68.55228,-224.53651,939.95453,47.44909,-164.03677,990.71545
26,0.208,0.59341,-260.41492,967.09064,68.50935,-224.38358,940.61737,47.57793,-164.29684,990.68793
27,0.217,0.59341,-260.41492,967.09064,68.50935,-224.38358,940.61737,47.44909,-164.03677,990.71545
28,0.225,0.59341,-260.41492,967.09064,68.50935,-224.38358,940.61737,47.44909,-164.03677,990.71545
29,0.233,0.4578,-260.07813,967.15039,68.50935,-224.38358,940.61737,47.70736,-163.60928,990.6618
30,0.242,0.3358,-260.65231,967.55493,68.81448,-224.31543,940.73096,47.70736,-163.60928,990.6618
31,0.25,0.3358,-260.65231,967.55493,69.06319,-224.21333,940.87909,47.44909,-164.03677,990.71545
32,0.258,0.3358,-260.65231,967.55493,69.06319,-224.21333,940.87909,47.6687,-163.48111,990.78949
33,0.267,0.3358,-260.65231,967.55493,69.06319,-224.21333,940.87909,48.19384,-163.22609,991.19537
34,0.275,0.55495,-260.30862,967.96387,69.06319,-224.21333,940.87909,47.98676,-163.37341,991.11279
35,0.283,0.55495,-260.30862,967.96387,69.06319,-224.21333,940.87909,48.24853,-163.05858,991.33557
36,0.292,0.55495,-260.30862,967.96387,69.21562,-223.91568,941.12616,48.24853,-163.05858,991.33557
37,0.3,0.707,-260.61429,967.95038,69.3338,-224.01585,941.01947,48.24853,-163.05858,991.33557
38,0.308,1.08329,-260.21027,967.94617,69.21562,-223.91568,941.12616,48.24853,-163.05858,991.33557
39,0.317,0.95278,-260.17065,968.13971,69.3338,-224.01585,941.01947,48.24853,-163.05858,991.33557
40,0.325,1.08329,-260.21027,967.94617,69.3338,-224.01585,941.01947,48.24853,-163.05858,991.33557
41,0.333,1.35524,-260.10251,967.995,69.3338,-224.01585,941.01947,48.22175,-162.6656,991.39374
42,0.342,1.08329,-260.21027,967.94617,69.3338,-224.01585,941.01947,48.22175,-162.6656,991.39374
43,0.35,0.95278,-260.17065,968.13971,69.21562,-223.91568,941.12616,48.01724,-162.66098,991.45038
44,0.358,1.50726,-260.40817,967.98151,69.09956,-224.06834,941.3454,48.22175,-162.6656,991.39374
45,0.367,1.35524,-260.10251,967.995,68.98136,-223.96814,941.45203,48.22175,-162.6656,991.39374
46,0.375,1.22474,-260.0629,968.18854,69.21562,-223.91568,941.12616,48.22175,-162.6656,991.39374
47,0.383,0.97406,-260.14865,968.15723,68.98136,-223.96814,941.45203,48.22175,-162.6656,991.39374
48,0.392,1.22474,-260.0629,968.18854,68.98136,-223.96814,941.45203,48.22175,-162.6656,991.39374
49,0.4,1.22474,-260.0629,968.18854,69.21562,-223.91568,941.12616,48.22175,-162.6656,991.39374
50,0.408,1.22474,-260.0629,968.18854,68.98136,-223.96814,941.45203,48.22175,-162.6656,991.39374
51,0.417,1.22474,-260.0629,968.18854,68.98136,-223.96814,941.45203,48.22175,-162.6656,991.39374
52,0.425,1.4549,-259.91064,968.29163,68.98136,-223.96814,941.45203,48.15467,-162.63336,991.13489
53,0.433,1.4549,-259.91064,968.29163,69.33752,-223.95416,941.50677,48.15467,-162.63336,991.13489
54,0.442,1.35261,-259.7684,968.54065,69.33752,-223.95416,941.50677,48.15467,-162.63336,991.13489
55,0.45,1.59545,-259.61624,968.64087,68.84492,-223.69421,941.63861,48.01724,-162.66098,991.45038
56,0.458,1.80162,-259.64413,969.0191,69.20113,-223.68028,941.69336,48.15467,-162.63336,991.13489
57,0.467,1.86141,-259.27716,969.37964,69.20113,-223.68028,941.69336,48.22175,-162.6656,991.39374
58,0.475,1.64048,-259.09149,969.16431,69.20113,-223.68028,941.69336,48.22175,-162.6656,991.39374
59,0.483,1.64048,-259.09149,969.16431,68.84492,-223.69421,941.63861,48.01724,-162.66098,991.45038
60,0.492,1.86141,-259.27716,969.37964,69.20113,-223.68028,941.69336,48.13996,-162.82909,991.41046
61,0.5,1.87627,-259.43506,969.21698,68.84492,-223.69421,941.63861,48.20706,-162.86125,991.66931
62,0.508,1.86141,-259.27716,969.37964,69.20113,-223.68028,941.69336,48.20706,-162.86125,991.66931
63,0.517,1.86141,-259.27716,969.37964,68.84492,-223.69421,941.63861,48.15556,-162.76111,991.77484
64,0.525,1.86141,-259.27716,969.37964,68.84492,-223.69421,941.63861,48.20706,-162.86125,991.66931
65,0.533,1.86141,-259.27716,969.37964,69.20113,-223.68028,941.69336,48.15556,-162.76111,991.77484
66,0.542,1.86141,-259.27716,969.37964,68.84492,-223.69421,941.63861,48.20706,-162.86125,991.66931
67,0.55,1.07401,-259.23761,969.59399,68.84492,-223.69421,941.63861,48.05285,-162.80539,991.76038
68,0.558,1.4034,-259.37729,969.3797,68.84492,-223.69421,941.63861,48.20706,-162.86125,991.66931
69,0.567,1.11714,-259.44,969.37976,68.84492,-223.69421,941.63861,48.20706,-162.86125,991.66931
70,0.575,1.54377,-259.73737,969.56702,68.84492,-223.69421,941.63861,48.20706,-162.86125,991.66931
71,0.583,1.25756,-259.80008,969.56708,69.2704,-224.15543,941.81573,48.20706,-162.86125,991.66931
72,0.592,1.77524,-259.76727,969.4856,68.84492,-223.69421,941.63861,48.20706,-162.86125,991.66931
73,0.6,2.00169,-259.63721,969.56696,68.84492,-223.69421,941.63861,48.13996,-162.82909,991.41046
74,0.608,1.2613,-259.60327,969.76526,69.2704,-224.15543,941.81573,48.20706,-162.86125,991.66931
75,0.617,1.25756,-259.80008,969.56708,69.2704,-224.15543,941.81573,48.20706,-162.86125,991.66931
76,0.625,1.54377,-259.73737,969.56702,69.2704,-224.15543,941.81573,48.13996,-162.82909,991.41046
77,0.633,1.25756,-259.80008,969.56708,69.2704,-224.15543,941.81573,48.13996,-162.82909,991.41046
78,0.642,1.25756,-259.80008,969.56708,69.2704,-224.15543,941.81573,48.20706,-162.86125,991.66931
79,0.65,1.25756,-259.80008,969.56708,69.2704,-224.15543,941.81573,48.20706,-162.86125,991.66931
80,0.658,1.54377,-259.73737,969.56702,69.40678,-224.42935,941.62915,48.13996,-162.82909,991.41046
81,0.667,1.23928,-259.97751,969.39197,69.2704,-224.15543,941.81573,48.16674,-163.22203,991.35229
82,0.675,1.4465,-260.27347,969.0437,69.40678,-224.42935,941.62915,48.18144,-163.02635,991.07678
83,0.683,1.43983,-260.26419,969.05457,69.40678,-224.42935,941.62915,47.95015,-162.62874,991.19153
84,0.692,1.66012,-260.46835,968.79974,68.98136,-223.96814,941.45203,48.20706,-162.86125,991.66931
85,0.7,1.46317,-260.29663,969.01666,68.98136,-223.96814,941.45203,48.20706,-162.86125,991.66931
86,0.708,1.77524,-259.76727,969.4856,68.98136,-223.96814,941.45203,48.20706,-162.86125,991.66931
87,0.717,1.11714,-259.44,969.37976,68.84492,-223.69421,941.63861,48.20706,-162.86125,991.66931
88,0.725,1.77524,-259.76727,969.4856,68.84492,-223.69421,941.63861,48.20706,-162.86125,991.66931
89,0.733,2.01655,-259.79507,969.4043,68.84492,-223.69421,941.63861,48.20706,-162.86125,991.66931
90,0.742,2.00169,-259.63721,969.56696,68.84492,-223.69421,941.63861,48.20706,-162.86125,991.66931
91,0.75,1.87627,-259.43506,969.21698,68.84492,-223.69421,941.63861,48.01724,-162.66098,991.45038
92,0.758,1.87627,-259.43506,969.21698,69.20113,-223.68028,941.69336,48.20706,-162.86125,991.66931
93,0.767,1.86141,-259.27716,969.37964,68.84492,-223.69421,941.63861,48.01724,-162.66098,991.45038
94,0.775,1.86141,-259.27716,969.37964,68.84492,-223.69421,941.63861,48.20706,-162.86125,991.66931
95,0.783,1.86141,-259.27716,969.37964,69.20113,-223.68028,941.69336,48.01724,-162.66098,991.45038
96,0.792,1.86141,-259.27716,969.37964,69.20113,-223.68028,941.69336,48.01724,-162.66098,991.45038
97,0.8,1.86141,-259.27716,969.37964,68.84492,-223.69421,941.63861,48.01724,-162.66098,991.45038
98,0.808,1.87627,-259.43506,969.21698,69.20113,-223.68028,941.69336,48.01724,-162.66098,991.45038
99,0.817,1.87627,-259.43506,969.21698,69.20113,-223.68028,941.69336,48.01724,-162.66098,991.45038
100,0.825,2.21378,-260.13385,969.42969,69.20113,-223.68028,941.69336,48.01724,-162.66098,991.45038
101,0.833,2.01655,-259.79507,969.4043,69.20113,-223.68028,941.69336,48.01724,-162.66098,991.45038
102,0.842,2.01655,-259.79507,969.4043,69.20113,-223.68028,941.69336,48.01724,-162.66098,991.45038
103,0.85,1.95674,-260.16193,969.0437,69.33752,-223.95416,941.50677,48.41156,-162.86586,991.61267
104,0.858,1.95674,-260.16193,969.0437,69.20113,-223.68028,941.69336,48.41156,-162.86586,991.61267
105,0.867,1.8902,-260.31607,968.90277,69.33752,-223.95416,941.50677,48.41156,-162.86586,991.61267
106,0.875,2.15396,-260.50061,969.06909,69.33752,-223.95416,941.50677,48.41156,-162.86586,991.61267
107,0.883,2.08743,-260.65469,968.9281,68.98136,-223.96814,941.45203,48.41156,-162.86586,991.61267
108,0.892,2.15396,-260.50061,969.06909,69.89799,-224.50735,941.58875,48.41156,-162.86586,991.61267
109,0.9,2.15396,-260.50061,969.06909,69.89799,-224.50735,941.58875,48.41156,-162.86586,991.61267
110,0.908,2.15396,-260.50061,969.06909,70.2159,-224.54326,941.58008,48.66817,-163.21292,991.67395
111,0.917,2.15396,-260.50061,969.06909,70.13218,-224.45483,941.26288,48.6949,-163.60576,991.61578
112,0.925,2.42001,-260.73996,968.87262,70.13218,-224.45483,941.26288,48.66817,-163.21292,991.67395
113,0.933,2.15396,-260.50061,969.06909,70.13218,-224.45483,941.26288,48.66817,-163.21292,991.67395
114,0.942,2.42001,-260.73996,968.87262,70.13218,-224.45483,941.26288,48.34447,-162.83368,991.35388
115,0.95,2.35348,-260.89401,968.73163,69.70696,-223.9937,941.08575,48.60111,-163.18077,991.41522
116,0.958,2.42001,-260.73996,968.87262,69.3338,-224.01585,941.01947,48.60111,-163.18077,991.41522
117,0.967,2.42001,-260.73996,968.87262,70.13218,-224.45483,941.26288,48.60111,-163.18077,991.41522
118,0.975,2.42001,-260.73996,968.87262,69.76283,-224.41533,941.68384,48.60111,-163.18077,991.41522
119,0.983,1.8902,-260.31607,968.90277,69.33752,-223.95416,941.50677,48.34447,-162.83368,991.35388
120,0.992,2.35348,-260.89401,968.73163,68.98136,-223.96814,941.45203,48.15467,-162.63336,991.13489
121,1,2.35348,-260.89401,968.73163,69.3338,-224.01585,941.01947,48.15467,-162.63336,991.13489
122,1.008,1.96824,-260.76199,968.68103,69.33752,-223.95416,941.50677,48.15467,-162.63336,991.13489
123,1.017,1.67593,-260.09631,968.50714,69.21562,-223.91568,941.12616,48.15467,-162.63336,991.13489
124,1.025,1.57632,-260.28818,968.21063,69.21562,-223.91568,941.12616,48.15467,-162.63336,991.13489
125,1.033,1.5854,-259.95026,968.09808,69.21562,-223.91568,941.12616,48.15467,-162.63336,991.13489
126,1.042,1.5854,-259.95026,968.09808,69.21562,-223.91568,941.12616,48.15467,-162.63336,991.13489
127,1.05,1.5854,-259.95026,968.09808,69.21562,-223.91568,941.12616,48.15467,-162.63336,991.13489
128,1.058,1.36431,-259.4744,967.7392,69.14584,-223.18643,940.7522,48.15467,-162.63336,991.13489
129,1.067,1.35524,-260.10251,967.995,68.87888,-223.49794,940.80164,48.15467,-162.63336,991.13489
130,1.075,1.36431,-259.4744,967.7392,68.99709,-223.59816,940.69495,47.95015,-162.62874,991.19153
131,1.083,1.08329,-260.21027,967.94617,68.87888,-223.49794,940.80164,48.15467,-162.63336,991.13489
132,1.092,1.34995,-259.34464,967.22601,68.7934,-223.05055,940.65161,47.95015,-162.62874,991.19153
133,1.1,1.62197,-259.23679,967.27484,68.53889,-222.53117,940.6626,47.61,-162.38985,991.14093
134,1.108,1.11559,-259.19492,967.00806,69.13383,-222.70471,940.39789,47.95015,-162.62874,991.19153
135,1.117,1.4344,-258.48563,966.35046,68.68752,-222.11928,940.71979,47.61,-162.38985,991.14093
136,1.125,1.11559,-259.19492,967.00806,68.68752,-222.11928,940.71979,47.61,-162.38985,991.14093
137,1.133,1.06472,-258.5813,966.28845,68.87939,-222.18533,940.40881,47.1283,-162.23463,990.92291
138,1.142,1.06472,-258.5813,966.28845,68.87939,-222.18533,940.40881,47.61,-162.38985,991.14093
139,1.15,1.06472,-258.5813,966.28845,68.87939,-222.18533,940.40881,47.81451,-162.39452,991.08429
140,1.158,1.06472,-258.5813,966.28845,68.87939,-222.18533,940.40881,47.81451,-162.39452,991.08429
141,1.167,1.4344,-258.48563,966.35046,68.87939,-222.18533,940.40881,47.61,-162.38985,991.14093
142,1.175,1.74662,-258.35278,966.47571,69.25208,-222.80496,940.2912,47.61,-162.38985,991.14093
143,1.183,1.4344,-258.48563,966.35046,69.25208,-222.80496,940.2912,47.95015,-162.62874,991.19153
144,1.192,1.74662,-258.35278,966.47571,69.25208,-222.80496,940.2912,48.15467,-162.63336,991.13489
145,1.2,1.4344,-258.48563,966.35046,69.25208,-222.80496,940.2912,48.15467,-162.63336,991.13489
146,1.208,1.74662,-258.35278,966.47571,69.00618,-222.39351,939.96094,48.15467,-162.63336,991.13489
147,1.217,2.08335,-258.58948,966.79456,69.00618,-222.39351,939.96094,48.15467,-162.63336,991.13489
148,1.225,2.08335,-258.58948,966.79456,69.00618,-222.39351,939.96094,48.15467,-162.63336,991.13489
149,1.233,1.86259,-258.8194,967.06665,69.00618,-222.39351,939.96094,48.15467,-162.63336,991.13489
150,1.242,1.86259,-258.8194,967.06665,68.6334,-221.77388,940.07855,48.15467,-162.63336,991.13489
151,1.25,2.14629,-259.04178,967.35632,69.00697,-221.75188,940.14496,48.15467,-162.63336,991.13489
152,1.258,1.91198,-258.89215,967.13843,68.51505,-221.67355,940.18524,47.81451,-162.39452,991.08429
153,1.267,1.61785,-258.93478,967.1601,68.92474,-221.42502,940.08362,48.15467,-162.63336,991.13489
154,1.275,2.15674,-258.77673,967.04498,68.43275,-221.34665,940.1239,47.61,-162.38985,991.14093
155,1.283,1.92242,-258.62708,966.82703,68.92474,-221.42502,940.08362,48.15467,-162.63336,991.13489
156,1.292,2.15674,-258.77673,967.04498,68.92474,-221.42502,940.08362,47.61,-162.38985,991.14093
157,1.3,1.86259,-258.8194,967.06665,69.76288,-220.89224,939.94641,47.81451,-162.39452,991.08429
158,1.308,1.62825,-258.66974,966.84869,69.76288,-220.89224,939.94641,47.61,-162.38985,991.14093
159,1.317,1.77745,-258.10672,966.44922,69.34911,-221.11505,940.08569,47.61,-162.38985,991.14093
160,1.325,1.77745,-258.10672,966.44922,69.76288,-220.89224,939.94641,47.81451,-162.39452,991.08429
161,1.333,1.77745,-258.10672,966.44922,69.76288,-220.89224,939.94641,47.81451,-162.39452,991.08429
162,1.342,1.90891,-257.62109,965.87811,69.76288,-220.89224,939.94641,47.81451,-162.39452,991.08429
163,1.35,1.90891,-257.62109,965.87811,69.76288,-220.89224,939.94641,48.07285,-161.96692,991.0307
164,1.358,1.90891,-257.62109,965.87811,69.76288,-220.89224,939.94641,47.81451,-162.39452,991.08429
165,1.367,1.90891,-257.62109,965.87811,69.76288,-220.89224,939.94641,47.81451,-162.39452,991.08429
166,1.375,1.90891,-257.62109,965.87811,69.76288,-220.89224,939.94641,47.81451,-162.39452,991.08429
167,1.383,1.90891,-257.62109,965.87811,69.76288,-220.89224,939.94641,47.51591,-162.13448,990.91595
168,1.392,1.90891,-257.62109,965.87811,70.23199,-220.67111,939.71027,47.77423,-161.7068,990.8623
169,1.4,1.90891,-257.62109,965.87811,69.89259,-220.62231,939.73163,47.711,-161.51997,990.44659
170,1.408,1.90891,-257.62109,965.87811,70.1362,-220.46762,939.52924,47.77423,-161.7068,990.8623
171,1.417,1.90891,-257.62109,965.87811,70.47558,-220.51637,939.50781,47.711,-161.51997,990.44659
172,1.425,1.90891,-257.62109,965.87811,70.47558,-220.51637,939.50781,47.711,-161.51997,990.44659
173,1.433,1.90891,-257.62109,965.87811,70.47558,-220.51637,939.50781,47.711,-161.51997,990.44659
174,1.442,1.95616,-257.91467,966.22186,70.54653,-220.36168,939.21515,47.77423,-161.7068,990.8623
175,1.45,1.95616,-257.91467,966.22186,70.47558,-220.51637,939.50781,47.77423,-161.7068,990.8623
176,1.458,1.90891,-257.62109,965.87811,70.47558,-220.51637,939.50781,47.95321,-161.3278,990.33606
177,1.467,1.90891,-257.62109,965.87811,70.47558,-220.51637,939.50781,48.25186,-161.58807,990.50458
178,1.475,1.90891,-257.62109,965.87811,70.54653,-220.36168,939.21515,47.95321,-161.3278,990.33606
179,1.483,1.90891,-257.62109,965.87811,70.54653,-220.36168,939.21515,47.95321,-161.3278,990.33606
180,1.492,2.16123,-257.47284,965.31152,70.94431,-220.35435,939.26685,47.95321,-161.3278,990.33606
181,1.5,2.17563,-257.18314,965.18555,70.94431,-220.35435,939.26685,47.95321,-161.3278,990.33606
182,1.508,2.74687,-256.86765,965.08636,70.94431,-220.35435,939.26685,48.4093,-161.49483,989.94666
183,1.517,2.32326,-258.06696,965.70306,70.94431,-220.35435,939.26685,48.78033,-161.98151,989.92645
184,1.525,2.37563,-257.55093,965.16095,70.94431,-220.35435,939.26685,48.78033,-161.98151,989.92645
185,1.533,2.37563,-257.55093,965.16095,71.00945,-220.12599,939.00952,48.94565,-161.7411,989.7558
186,1.542,2.74687,-256.86765,965.08636,71.00945,-220.12599,939.00952,48.78033,-161.98151,989.92645
187,1.55,2.37563,-257.55093,965.16095,71.14881,-220.15619,938.62341,49.01868,-161.60257,989.40717
188,1.558,2.99968,-256.92648,964.95557,71.14881,-220.15619,938.62341,49.04129,-161.51123,989.10394
189,1.567,2.99968,-256.92648,964.95557,71.14881,-220.15619,938.62341,48.74255,-161.25089,988.9353
190,1.575,3.43285,-256.22662,964.61694,71.14881,-220.15619,938.62341,48.74255,-161.25089,988.9353
191,1.583,3.43285,-256.22662,964.61694,71.14881,-220.15619,938.62341,48.74255,-161.25089,988.9353
192,1.592,3.43285,-256.22662,964.61694,71.14881,-220.15619,938.62341,48.73952,-161.40514,988.79407
193,1.6,3.43285,-256.22662,964.61694,71.14881,-220.15619,938.62341,48.74255,-161.25089,988.9353
194,1.608,3.09217,-256.90106,964.55902,71.14881,-220.15619,938.62341,48.55868,-161.34027,988.62952
195,1.617,3.43285,-256.22662,964.61694,71.14881,-220.15619,938.62341,48.55868,-161.34027,988.62952
196,1.625,3.09217,-256.90106,964.55902,70.84862,-219.9402,937.85699,48.55868,-161.34027,988.62952
197,1.633,3.09217,-256.90106,964.55902,70.84862,-219.9402,937.85699,48.55868,-161.34027,988.62952
198,1.642,3.09217,-256.90106,964.55902,70.84862,-219.9402,937.85699,48.55868,-161.34027,988.62952
199,1.65,3.09217,-256.90106,964.55902,70.84862,-219.9402,937.85699,48.55868,-161.34027,988.62952
200,1.658,3.29213,-257.26929,964.53467,70.45976,-219.9408,937.81403,48.55868,-161.34027,988.62952
201,1.667,3.29213,-257.26929,964.53467,70.84862,-219.9402,937.85699,48.55868,-161.34027,988.62952
202,1.675,2.61144,-257.99741,965.03101,70.84862,-219.9402,937.85699,48.37247,-161.12462,988.35974
203,1.683,2.84285,-257.08795,964.78052,70.45976,-219.9408,937.81403,48.67365,-161.26147,988.38953
204,1.692,2.61144,-257.99741,965.03101,71.27903,-221.02859,937.76587,48.67365,-161.26147,988.38953
