Frame#,Time,L.Forearm.x,L.Forearm.y,L.Forearm.z,L.Ulna.x,L.Ulna.y,L.Ulna.z,L.Radius.x,L.Radius.y,L.Radius.z
1,0,67.57435,325.72543,1000.12323,172.59306,318.17923,1022.29742,165.31903,222.30925,1067.0791
2,0.008,67.54043,324.4595,1000.83099,172.6523,315.78564,1023.84076,165.79297,221.58063,1068.39502
3,0.017,68.53198,323.29572,1001.86017,173.73572,314.91687,1024.45276,168.0918,219.34532,1069.34741
4,0.025,69.17654,322.71378,1002.96155,174.55396,314.37744,1025.42065,169.34216,220.26178,1069.8562
5,0.033,70.04526,320.94528,1004.47083,174.94206,313.75787,1026.49585,169.85446,219.22003,1071.98047
6,0.042,70.90863,320.8237,1005.15112,176.04668,313.30267,1027.43201,170.14188,218.811,1072.81689
7,0.05,71.61287,319.40033,1005.96246,176.83897,313.28412,1028.77356,172.43329,217.57265,1074.15515
8,0.058,72.22591,319.02557,1007.49365,178.26202,312.38852,1029.57983,174.72449,217.51884,1074.72424
9,0.067,73.79291,317.26758,1008.46411,178.95995,312.45453,1030.57104,175.85468,217.45935,1074.8606
10,0.075,74.74524,316.8187,1009.22345,180.39626,311.36502,1031.57922,177.00043,217.49883,1075.61218
11,0.083,75.99283,315.93097,1011.28668,180.82686,310.97495,1032.90283,178.78981,215.19101,1076.49561
12,0.092,75.95992,315.61069,1012.8584,182.09312,310.36877,1033.23755,181.0701,214.36095,1078.11377
13,0.1,76.87533,315.42804,1013.98309,182.93594,309.64532,1034.74463,181.89304,214.66312,1079.60364
14,0.108,78.33768,314.00204,1016.04944,184.14532,309.70612,1036.09265,182.47153,213.90862,1080.29504
15,0.117,79.64396,313.26059,1018.12,185.69739,310.17929,1036.99695,185.89165,213.4398,1080.58118
16,0.125,80.24606,312.90283,1019.52557,186.48433,309.76819,1037.91602,187.85159,214.27205,1081.42798
17,0.133,80.60316,313.09152,1020.80707,188.47267,309.77313,1038.73645,188.50804,213.47815,1081.63611
18,0.142,81.60293,312.80106,1022.59399,189.32822,309.46567,1039.19067,190.84302,212.74017,1082.65002
19,0.15,82.31144,312.74875,1024.76501,190.61543,309.55637,1041.25769,193.048,212.44182,1083.41333
20,0.158,83.02299,312.77087,1026.28296,190.70467,309.59052,1042.83252,194.47794,210.82289,1083.73865
21,0.167,83.89083,311.34924,1027.83521,192.42574,308.92737,1043.58008,195.14874,211.42249,1084.03113
22,0.175,85.10041,310.60336,1028.72266,192.95644,308.51587,1044.13489,197.16206,210.4724,1084.79504
23,0.183,85.79349,309.86234,1029.63647,194.03233,308.30383,1045.46106,198.91403,209.22366,1085.00378
24,0.192,86.03269,308.87476,1031.57849,194.66837,308.85394,1046.18054,200.90939,209.56824,1085.55579
25,0.2,86.84747,309.50165,1032.85266,194.61287,307.67029,1047.49963,201.28661,209.59569,1086.27222
26,0.208,87.1864,309.16635,1033.95874,195.3681,307.76465,1048.25049,201.94571,209.43391,1086.20142
27,0.217,87.54719,308.5723,1034.90552,196.11415,307.26178,1049.09558,203.86888,209.56111,1086.63208
28,0.225,88.4191,307.23688,1035.5929,196.78455,307.30637,1049.41406,204.80304,209.96573,1086.89771
29,0.233,89.3239,306.72324,1036.28992,197.4924,307.31705,1049.98669,206.47656,208.2742,1087.73499
30,0.242,90.12279,306.9595,1037.25159,197.96284,306.59186,1050.42664,207.42776,207.49016,1088.14014
31,0.25,90.40529,306.66541,1038.24011,198.43243,307.06345,1051.23584,207.24965,207.9874,1089.16577
32,0.258,90.70065,306.62167,1038.82153,198.95961,305.91397,1051.96301,207.54677,207.50464,1089.86292
33,0.267,90.77676,306.14493,1039.41199,199.34557,305.88242,1052.1593,208.15872,207.59879,1090.05457
34,0.275,90.8904,305.93527,1040.23694,199.83417,305.43164,1053.10132,208.42534,207.4698,1090.57556
35,0.283,91.22484,305.56616,1041.03088,200.31215,305.68292,1053.83398,208.84666,207.6644,1090.63428
36,0.292,91.61012,305.64883,1041.61194,200.22694,305.1937,1054.49829,208.45094,207.50581,1090.99548
37,0.3,91.36345,305.41663,1042.13062,200.15347,304.95062,1054.99683,208.89713,207.74446,1091.6593
38,0.308,91.38271,305.31879,1042.21387,200.0713,304.96719,1055.00537,209.11334,207.82668,1092.57007
39,0.317,91.20657,304.27844,1042.71423,199.91922,304.22333,1055.78418,209.43529,207.5829,1093.17334
40,0.325,91.19714,304.03339,1042.87683,199.96161,304.12402,1056.40759,209.27408,207.19604,1093.24304
41,0.333,91.19968,303.40021,1043.36353,200.38588,303.75009,1057.20398,209.39267,205.33768,1094.51099
42,0.342,91.32288,303.53284,1044.4314,200.83,302.78342,1057.73645,209.34544,205.0609,1094.61182
43,0.35,92.04736,302.24701,1045.90515,200.99577,302.66205,1058.146,210.70117,204.27126,1095.74158
44,0.358,92.4302,301.30331,1046.97266,201.22531,302.27719,1059.9574,210.69763,203.59697,1096.14368
45,0.367,93.02036,300.46191,1047.9552,201.8513,301.48361,1060.68213,210.63586,203.25487,1096.37073
46,0.375,93.02579,299.99976,1048.50818,201.48276,301.34106,1061.25488,212.17711,202.24516,1096.59668
47,0.383,93.34313,299.58942,1049.08923,200.9848,301.35715,1062.57898,212.17711,202.24516,1096.59668
48,0.392,93.51427,299.51721,1050.32751,201.80652,301.09598,1063.66003,213.12863,202.42715,1097.00073
49,0.4,93.34248,299.02356,1051.16052,201.78697,301.07697,1064.98865,213.12775,202.03331,1097.76172
50,0.408,93.38818,298.42599,1052.36377,201.93488,300.68167,1065.61279,213.75682,200.59157,1098.17725
51,0.417,93.70141,297.89545,1052.95569,202.24677,300.15927,1066.23926,214.10777,200.85783,1098.88855
52,0.425,93.6967,297.67413,1054.01575,202.4622,300.14328,1066.94922,215.90652,200.34813,1099.43958
53,0.433,93.59351,296.96936,1054.72705,202.77914,299.57736,1067.43384,216.57796,197.8278,1100.41736
54,0.442,93.83894,296.7854,1055.03369,202.86821,298.98834,1068.13684,216.47951,198.15894,1101.15894
55,0.45,94.02816,296.69662,1055.76575,203.7,298.27866,1068.38086,216.47951,198.15894,1101.15894
56,0.458,94.11389,296.41144,1056.5686,203.11897,299.00647,1069.0835,216.82191,198.27682,1101.44385
57,0.467,93.79536,295.44901,1056.58252,203.18207,298.31522,1069.15686,216.60321,198.45535,1101.62268
58,0.475,93.86575,295.10815,1056.96936,203.17613,298.29559,1070.04907,216.87982,198.93625,1101.60779
59,0.483,93.8064,295.10944,1057.10205,203.14412,298.54538,1070.18286,216.73277,199.15855,1102.2832
60,0.492,95.10698,294.12582,1057.30554,203.86696,298.51651,1070.60986,217.60034,198.27124,1103.59216
61,0.5,94.85149,294.08514,1057.57104,203.69284,298.54944,1070.81848,217.29424,197.41295,1104.27734
62,0.508,95.12004,293.7804,1057.82849,203.97437,298.3873,1071.05615,217.52962,197.60182,1104.92725
63,0.517,95.06967,293.23209,1058.38135,204.18517,298.37201,1071.41174,217.71086,198.06136,1105.10071
64,0.525,94.64632,293.39133,1059.35034,204.51584,298.34161,1072.44446,217.49207,197.54704,1105.29407
65,0.533,95.66637,292.89499,1060.11951,204.49309,298.24844,1072.57654,217.72112,197.79564,1105.26306
66,0.542,95.76265,292.46228,1060.16223,205.06926,297.63702,1073.13928,218.66475,197.71239,1105.37354
67,0.55,95.81059,292.19662,1061.20984,205.13739,297.41422,1073.28113,219.17108,197.93948,1105.40833
68,0.558,95.98802,292.1698,1061.30371,205.2164,297.02881,1073.57129,219.59685,197.47006,1105.61108
69,0.567,96.1236,291.87027,1061.82251,205.35748,296.68201,1073.98303,220.57088,196.26033,1105.70288
70,0.575,96.26643,291.58817,1062.18054,205.57828,295.91605,1074.02466,221.90523,194.54041,1105.87781
71,0.583,96.8896,291.66788,1062.34082,205.47386,295.80475,1075.15674,222.65089,195.06836,1106.14612
72,0.592,97.07425,291.60013,1062.82007,205.66379,295.87625,1075.28247,222.90355,195.50943,1106.19128
73,0.6,97.11892,291.33432,1063.8772,206.1825,295.52103,1075.20898,222.90355,195.50943,1106.19128
74,0.608,97.06558,291.28391,1063.93335,206.71605,295.45938,1075.30139,223.20964,195.89462,1106.30164
75,0.617,97.21984,291.10229,1064.68225,206.71605,295.45938,1075.30139,223.29947,195.05711,1106.63892
76,0.625,97.61954,290.45135,1065.56372,207.08519,295.24179,1075.53003,223.29947,195.05711,1106.63892
77,0.633,97.62049,289.85452,1065.89453,207.43922,294.91934,1075.68848,223.29947,195.05711,1106.63892
78,0.642,97.69808,289.60004,1065.94849,207.68587,294.91855,1075.8009,223.51036,194.68625,1106.57422
79,0.65,98.13722,289.41153,1066.59888,207.93462,294.09521,1076.33228,223.51036,194.68625,1106.57422
80,0.658,98.58449,288.9126,1066.99597,208.34291,293.92889,1076.35876,224.85808,194.31889,1106.65674
81,0.667,98.91636,288.1618,1067.37219,208.62599,293.23254,1076.60852,225.08452,194.49443,1106.81848
82,0.675,99.00941,288.1084,1067.52527,208.9693,293.61856,1077.02222,225.31212,194.17064,1107.27795
83,0.683,99.08353,288.03552,1067.5741,209.39618,293.38904,1077.12048,227.44603,194.60036,1107.79297
84,0.692,99.35949,287.56314,1068.04565,209.39618,293.38904,1077.12048,227.44603,194.60036,1107.79297
85,0.7,99.55768,287.25549,1068.70959,209.5201,292.97424,1077.61108,228.05074,194.27977,1108.35327
86,0.708,99.87432,286.9808,1069.2843,209.99539,293.12851,1078.49548,229.17627,193.32249,1109.00623
87,0.717,100.00447,286.33844,1069.37793,210.24519,292.94797,1078.67212,229.31575,192.99985,1108.87073
88,0.725,100.33408,286.22134,1069.7605,210.55142,292.73947,1079.01465,230.07971,194.12036,1109.58105
89,0.733,100.90799,286.22757,1070.4314,210.63733,292.67764,1079.10217,230.08031,192.67032,1109.50574
90,0.742,101.12606,286.04358,1070.61511,211.09671,291.88892,1079.59033,230.57608,193.57521,1109.8219
91,0.75,101.41454,285.75711,1071.29431,211.06796,292.16431,1079.84668,230.78908,193.36711,1109.95703
92,0.758,101.52007,285.68173,1071.58313,211.52792,291.63623,1079.71521,231.16141,193.43559,1109.89478
93,0.767,101.71132,285.54169,1071.70459,211.52792,291.63623,1079.71521,231.16141,193.43559,1109.89478
94,0.775,101.75566,285.59393,1071.96265,212.39813,291.52051,1080.21021,231.16141,193.43559,1109.89478
95,0.783,102.18548,285.19855,1072.67554,212.72531,291.18576,1080.20313,231.42622,193.07358,1109.93884
96,0.792,102.0126,284.93491,1072.87756,212.81361,291.12183,1080.26599,231.82536,192.18513,1110.62183
97,0.8,102.40567,284.41772,1073.27405,212.85591,291.05219,1080.34863,231.82536,192.18513,1110.62183
98,0.808,102.40073,284.17044,1073.57837,212.85591,291.05219,1080.34863,231.56023,190.62996,1110.63928
99,0.817,102.82946,283.51682,1074.02246,213.17145,290.31918,1080.32849,232.14841,191.65982,1110.47388
100,0.825,103.02678,283.11377,1074.06799,213.66611,289.83081,1080.46252,232.6649,191.57207,1110.38611
101,0.833,103.04273,282.52139,1074.25696,213.18948,289.53818,1080.67053,232.71584,191.37091,1110.11096
102,0.842,103.50726,282.10214,1074.22974,213.62939,288.51065,1080.16724,232.71584,191.37091,1110.11096
103,0.85,103.67282,281.97903,1074.70496,213.7952,288.315,1080.1106,233.78386,189.76971,1109.89197
104,0.858,103.95741,281.50693,1074.88904,213.8679,288.11359,1080.24609,234.01546,189.59273,1109.65369
105,0.867,103.87759,281.27493,1074.97217,213.93893,287.69977,1080.15137,234.46191,189.16988,1109.32434
106,0.875,103.88053,280.43948,1075.06299,213.94418,287.25397,1080.14355,234.78442,188.6781,1109.31653
107,0.883,103.52902,279.56677,1075.57715,214.26933,286.85788,1080.26428,234.78442,188.6781,1109.31653
108,0.892,103.87309,278.94617,1075.93494,214.26454,286.40451,1080.35339,234.38062,187.43222,1109.05359
109,0.9,103.98933,279.02396,1076.03699,214.51633,286.32126,1080.23462,234.98389,187.9684,1108.83826
110,0.908,103.95491,278.93692,1076.35815,215.0616,286.40921,1080.42407,235.19708,187.77872,1108.99548
111,0.917,103.95491,278.93692,1076.35815,215.4366,286.80115,1080.33215,235.82414,187.37413,1108.88745
112,0.925,104.17951,278.79993,1076.34668,215.74011,286.79257,1080.44666,235.82414,187.37413,1108.88745
113,0.933,104.66774,279.08374,1076.30017,216.20184,286.77173,1080.53699,236.48729,187.28595,1108.83337
114,0.942,104.81493,279.03247,1076.50146,216.16806,286.71399,1080.62329,236.48729,187.28595,1108.83337
115,0.95,105.01978,279.41956,1076.48901,216.20184,286.77173,1080.53699,237.45682,186.0757,1108.92371
116,0.958,105.23331,279.26801,1076.20117,216.41985,286.63083,1080.50464,237.99255,186.04176,1108.71509
117,0.967,106.27984,278.66437,1076.26599,216.45361,286.68854,1080.41833,237.99255,186.04176,1108.71509
118,0.975,106.32555,278.73877,1076.51074,216.5898,286.61768,1080.47827,237.99255,186.04176,1108.71509
119,0.983,106.41242,278.75684,1076.47595,216.80475,286.63159,1080.40405,238.48546,186.12515,1108.93933
120,0.992,106.51251,278.99463,1076.63184,217.06822,286.80081,1080.66382,238.48546,186.12515,1108.93933
121,1,106.51251,278.99463,1076.63184,216.96281,286.53363,1080.495,239.45404,184.91405,1109.02966
122,1.008,106.76475,279.03641,1076.61914,217.07245,286.74097,1080.74316,238.73013,186.0697,1109.29602
123,1.017,106.69516,278.89359,1076.76233,217.4427,286.67996,1080.74036,239.54222,185.19902,1109.51196
124,1.025,106.94349,278.72586,1077.08118,217.4427,286.67996,1080.74036,239.94354,184.80383,1109.74365
125,1.033,107.08459,278.58362,1077.245,217.4427,286.67996,1080.74036,239.94354,184.80383,1109.74365
126,1.042,107.20021,278.48672,1077.38599,217.4427,286.67996,1080.74036,240.0237,185.49695,1110.01843
127,1.05,107.75464,278.10977,1077.6123,217.4427,286.67996,1080.74036,239.82399,184.46194,1110.1051
128,1.058,107.7644,278.26373,1077.75989,217.60626,286.64819,1080.94421,240.1804,185.15636,1109.89294
129,1.067,107.7644,278.26373,1077.75989,217.60626,286.64819,1080.94421,240.1804,185.15636,1109.89294
130,1.075,107.7644,278.26373,1077.75989,217.60626,286.64819,1080.94421,240.1804,185.15636,1109.89294
131,1.083,107.89693,278.07291,1078.04297,217.60626,286.64819,1080.94421,240.17728,184.76166,1109.62817
132,1.092,107.81914,277.96481,1077.5625,217.4427,286.67996,1080.74036,239.93396,185.26332,1109.39063
133,1.1,107.88795,278.01526,1077.50256,217.58408,286.57953,1080.62305,239.93396,185.26332,1109.39063
134,1.108,107.81078,277.8996,1077.33545,217.57983,286.63937,1080.54382,239.56664,185.34637,1108.85535
135,1.117,107.76233,277.97833,1077.20911,217.57983,286.63937,1080.54382,239.56664,185.34637,1108.85535
136,1.125,107.60487,278.14523,1076.39429,217.57973,286.39578,1080.1615,239.59828,185.07072,1108.59375
137,1.133,107.17458,278.75912,1075.78625,217.58875,286.31937,1079.95105,239.43787,185.17894,1108.43408
138,1.142,107.07095,278.78458,1075.34607,217.72006,286.3378,1079.89246,239.43787,185.17894,1108.43408
139,1.15,107.08285,278.86844,1075.26831,217.58087,285.62225,1079.44836,238.4693,186.38989,1108.34375
140,1.158,107.5203,279.07611,1074.7926,217.86929,285.49994,1079.23547,238.0155,185.93147,1108.07727
141,1.167,106.86443,279.57169,1074.62537,217.40181,285.55484,1079.11377,238.0155,185.93147,1108.07727
142,1.175,107.35327,278.65118,1073.50037,217.46774,285.47174,1078.43396,237.8551,186.03972,1107.9176
143,1.183,107.52734,278.81085,1073.25684,217.39763,285.29974,1077.68689,237.8551,186.03972,1107.9176
144,1.192,107.49179,278.88321,1073.01477,217.71986,285.40335,1077.44324,238.22044,186.2625,1107.38
145,1.2,106.94485,279.78671,1072.18774,217.45193,285.49802,1077.18176,237.25107,187.47203,1107.28943
146,1.208,107.00251,279.78244,1071.40942,217.55804,285.36404,1076.71912,236.69861,187.50407,1106.87061
147,1.217,106.83365,280.13037,1070.349,217.75003,285.80289,1075.84961,236.75836,187.61557,1106.07043
148,1.225,106.17355,280.57919,1069.90771,217.80824,286.01126,1075.15503,236.01581,187.03819,1105.88525
149,1.233,106.49704,281.46408,1069.39453,217.30988,286.65536,1074.18042,235.70776,186.65077,1105.77417
150,1.242,106.44911,281.30203,1069.15442,217.44086,286.79205,1073.6626,234.78598,187.09613,1103.53003
151,1.25,106.10903,281.61398,1068.5365,217.18077,287.04623,1073.66553,234.1635,187.82428,1102.84082
152,1.258,105.55716,282.29663,1067.12134,216.47137,287.00763,1072.47473,234.2103,187.35442,1102.37549
153,1.267,105.96305,284.06308,1064.88049,215.6711,287.43335,1071.81299,233.87193,187.39285,1102.01294
154,1.275,105.72339,284.78909,1064.19287,215.49812,287.59024,1070.56958,233.52933,187.24712,1101.68469
155,1.283,105.00671,284.11169,1063.01807,215.06931,287.3512,1069.45618,230.47389,188.34727,1100.21802
156,1.292,104.06567,286.02209,1061.73279,213.75793,288.37863,1068.13757,228.88951,187.75206,1099.93494
157,1.3,103.40829,286.94803,1059.80713,213.78728,289.53589,1067.8905,227.83589,188.50862,1098.84119
158,1.308,103.3327,287.16553,1058.42078,213.45087,289.73608,1066.47095,227.80669,190.09206,1098.67004
159,1.317,102.40271,289.02747,1056.98352,212.77391,290.36887,1064.65063,225.50906,191.19432,1097.53003
160,1.325,102.35812,288.40283,1055.51318,212.3091,290.56332,1063.6283,225.50906,191.19432,1097.53003
161,1.333,102.32401,289.1149,1054.7312,211.2962,290.78372,1062.47913,224.38533,191.84717,1095.90015
162,1.342,101.56461,289.50491,1053.88342,211.12596,291.05194,1061.87024,223.25447,192.24171,1094.75452
163,1.35,101.02156,290.37247,1052.36853,210.77586,291.55524,1061.08826,222.57277,192.4726,1094.16077
164,1.358,101.30894,290.91608,1050.85669,210.12863,292.0592,1059.64465,222.43059,191.80415,1093.42957
165,1.367,100.68536,291.6723,1050.19958,210.03065,291.7059,1058.35754,221.87375,191.22858,1092.95068
166,1.375,100.43304,291.82861,1049.52209,210.14136,291.58951,1057.60413,221.66254,191.34187,1092.40723
167,1.383,100.03431,292.51971,1048.85095,210.07071,291.82788,1057.46472,220.73155,191.47899,1092.75293
168,1.392,99.69807,292.92554,1048.74048,209.93988,291.87332,1057.03796,220.98843,192.19859,1092.41858
169,1.4,99.72918,293.12729,1048.49097,209.92336,291.91086,1056.49121,221.22519,192.73265,1092.18469
170,1.408,99.39021,293.17819,1047.81714,209.44316,291.9931,1055.96021,219.96359,192.96762,1091.83557
171,1.417,99.34379,293.99533,1047.02466,209.27696,292.19269,1055.34009,219.14987,193.98828,1091.51672
172,1.425,99.01894,293.64227,1046.63184,208.80116,292.17151,1054.8429,218.93446,192.95473,1090.56543
173,1.433,99.10744,293.8718,1046.04639,208.46841,292.41455,1054.82751,217.5625,193.12422,1090.74487
174,1.442,98.86672,294.48376,1044.79993,208.4463,292.79633,1053.97205,217.57986,194.38176,1088.68652
175,1.45,98.71903,294.76108,1044.18713,207.01413,293.02988,1052.73254,216.14189,194.15738,1088.2782
176,1.458,98.42072,296.23334,1043.86328,206.93173,293.52118,1052.0614,215.55687,194.17876,1087.27344
177,1.467,97.04942,297.35068,1042.9939,206.23383,293.66074,1052.04663,215.34503,194.23056,1087.28503
178,1.475,96.0724,298.03183,1041.69043,205.46049,294.61847,1051.61914,212.5563,196.06148,1086.43042
179,1.483,95.09343,299.04312,1040.63611,204.25778,294.91632,1051.47986,210.20647,196.43674,1086.62012
180,1.492,95.16412,299.29715,1039.29541,203.67136,295.38974,1050.57813,209.50777,196.20906,1086.70264
181,1.5,94.33978,299.33954,1037.84009,202.75627,295.54639,1050.54626,208.47031,195.70554,1086.54395
182,1.508,93.69839,300.12323,1036.93701,201.56192,295.67413,1050.02637,205.97385,197.24026,1085.85754
183,1.517,91.72617,300.78836,1035.25342,200.12434,295.61975,1049.37097,204.11314,198.29912,1085.52478
184,1.525,90.92512,301.92548,1034.68909,199.28758,296.00235,1049.08154,203.38846,197.86119,1085.35925
185,1.533,90.63263,302.67047,1034.0885,198.34399,296.74319,1048.06799,201.65991,198.00641,1085.18896
186,1.542,90.39549,303.14609,1033.06006,197.70149,298.22897,1047.23096,200.94051,197.96252,1085.03516
187,1.55,89.58099,303.85501,1031.82007,197.68581,298.16177,1046.68469,199.68228,199.24779,1084.74438
188,1.558,89.21719,304.08627,1031.02112,197.6067,298.53732,1045.84875,198.58849,199.74577,1084.43604
189,1.567,88.82596,304.41519,1030.06201,197.68364,299.14948,1044.77942,197.29562,200.2204,1084.17944
190,1.575,88.39754,304.99164,1028.92566,196.47855,300.11063,1044.20679,197.12479,200.37833,1084.08765
191,1.583,87.93109,306.26245,1028.53015,196.19041,300.27707,1043.01782,196.90936,200.65681,1084.06238
192,1.592,87.25327,306.83911,1027.66638,194.81047,299.91251,1042.51929,195.83678,201.39653,1083.5249
193,1.6,86.79524,306.52133,1026.52283,194.54866,300.22571,1041.73743,194.84834,202.60507,1083.03821
194,1.608,86.73448,306.87222,1025.82776,194.53186,301.36438,1040.17725,194.54568,202.70126,1082.29553
195,1.617,86.45171,308.00681,1024.24133,194.36205,301.58588,1039.36072,192.87949,204.82109,1081.81726
196,1.625,85.98003,308.62436,1023.15485,194.3163,302.9393,1038.87036,191.98155,204.73505,1081.64893
197,1.633,85.71941,308.97491,1021.909,193.89957,303.62421,1038.30164,191.00389,205.16959,1081.44312
