Frame#,Time,R.Forearm.x,R.Forearm.y,R.Forearm.z,R.Ulna.x,R.Ulna.y,R.Ulna.z,R.Radius.x,R.Radius.y,R.Radius.z
1,0,239.75087,-115.96113,1138.42188,322.51901,-177.44781,1144.81104,383.96167,-95.5304,1115.39063
2,0.008,239.75087,-115.96113,1138.42188,322.51901,-177.44781,1144.81104,384.65356,-95.40657,1115.21912
3,0.017,239.75087,-115.96113,1138.42188,322.5018,-177.29745,1145.01477,384.25995,-95.30991,1116.36072
4,0.025,239.75087,-115.96113,1138.42188,322.35321,-177.40228,1145.14856,384.95172,-95.18608,1116.18945
5,0.033,239.75087,-115.96113,1138.42188,322.35321,-177.40228,1145.14856,384.25995,-95.30991,1116.36072
6,0.042,239.75087,-115.96113,1138.42188,322.35321,-177.40228,1145.14856,385.44717,-95.14971,1116.1908
7,0.05,239.75087,-115.96113,1138.42188,322.35321,-177.40228,1145.14856,385.44717,-95.14971,1116.1908
8,0.058,239.75087,-115.96113,1138.42188,322.35321,-177.40228,1145.14856,385.44717,-95.14971,1116.1908
9,0.067,239.75087,-115.96113,1138.42188,322.55539,-177.37605,1145.16174,385.44717,-95.14971,1116.1908
10,0.075,239.75087,-115.96113,1138.42188,322.89035,-177.35506,1145.1189,385.44717,-95.14971,1116.1908
11,0.083,239.75087,-115.96113,1138.42188,322.35321,-177.40228,1145.14856,385.44717,-95.14971,1116.1908
12,0.092,239.75087,-115.96113,1138.42188,323.00687,-177.51483,1145.29663,385.44717,-95.14971,1116.1908
13,0.1,239.75087,-115.96113,1138.42188,323.11966,-177.32466,1145.45398,386.1041,-96.66963,1115.19592
14,0.108,239.75087,-115.96113,1138.42188,323.00345,-177.56494,1145.61292,386.1041,-96.66963,1115.19592
15,0.117,239.75087,-115.96113,1138.42188,322.81735,-177.57848,1145.83655,386.5777,-97.1861,1114.94812
16,0.125,239.75087,-115.96113,1138.42188,323.89517,-176.99844,1145.74341,385.1185,-94.75743,1116.93689
17,0.133,239.75087,-115.96113,1138.42188,323.75879,-177.03406,1145.93713,385.13135,-93.85699,1117.33557
18,0.142,239.75087,-115.96113,1138.42188,323.82361,-176.82675,1146.0437,385.04758,-93.05762,1117.18152
19,0.15,239.75087,-115.96113,1138.42188,323.82361,-176.82675,1146.0437,385.04758,-93.05762,1117.18152
20,0.158,239.75087,-115.96113,1138.42188,323.64819,-176.77849,1146.12158,385.9415,-92.49715,1117.49316
21,0.167,239.75087,-115.96113,1138.42188,324.01086,-176.56036,1146.02393,385.9415,-92.49715,1117.49316
22,0.175,239.75087,-115.96113,1138.42188,324.24072,-176.28838,1145.94385,385.9415,-92.49715,1117.49316
23,0.183,240.1042,-115.24078,1138.92908,324.24072,-176.28838,1145.94385,385.9415,-92.49715,1117.49316
24,0.192,240.1042,-115.24078,1138.92908,324.59018,-175.81917,1145.87207,385.9415,-92.49715,1117.49316
25,0.2,240.1042,-115.24078,1138.92908,324.64142,-175.74771,1146.23767,386.03152,-92.78592,1116.57483
26,0.208,239.47282,-113.61736,1139.18396,324.68332,-175.58534,1146.15588,386.03152,-92.78592,1116.57483
27,0.217,240.09071,-113.38724,1139.01819,324.60455,-175.44168,1145.94238,386.03152,-92.78592,1116.57483
28,0.225,240.09071,-113.38724,1139.01819,324.60223,-175.26828,1145.79089,386.03152,-92.78592,1116.57483
29,0.233,240.09071,-113.38724,1139.01819,324.48566,-175.10826,1145.61292,386.03152,-92.78592,1116.57483
30,0.242,240.09071,-113.38724,1139.01819,324.78055,-174.79247,1145.66064,385.94247,-92.61679,1116.22473
31,0.25,240.25706,-112.67607,1138.84741,324.60999,-174.82251,1145.43408,385.42752,-91.77254,1116.85437
32,0.258,240.25706,-112.67607,1138.84741,324.60999,-174.82251,1145.43408,385.69434,-91.68028,1116.61011
33,0.267,240.25706,-112.67607,1138.84741,324.60999,-174.82251,1145.43408,385.69434,-91.68028,1116.61011
34,0.275,240.60016,-111.77787,1138.93091,324.60999,-174.82251,1145.43408,385.38831,-91.22314,1116.72571
35,0.283,240.60016,-111.77787,1138.93091,324.56326,-174.59232,1145.28699,384.71594,-90.76453,1115.99402
36,0.292,240.25706,-112.67607,1138.84741,324.71695,-174.3766,1145.31104,384.38651,-90.68453,1115.85242
37,0.3,240.60016,-111.77787,1138.93091,324.71695,-174.3766,1145.31104,384.08063,-90.22745,1115.96802
38,0.308,240.60016,-111.77787,1138.93091,324.78802,-174.47202,1145.0011,384.08063,-90.22745,1115.96802
39,0.317,240.17551,-111.78394,1138.68359,324.76508,-174.32501,1145.07373,384.01276,-90.0128,1115.18958
40,0.325,240.17551,-111.78394,1138.68359,324.69037,-174.21829,1144.85254,383.78757,-89.17648,1115.44519
41,0.333,240.3531,-112.06535,1138.2793,324.76917,-174.0578,1144.71887,383.67206,-88.85331,1114.95386
42,0.342,240.3531,-112.06535,1138.2793,324.9982,-173.86572,1144.54785,383.67206,-88.85331,1114.95386
43,0.35,240.3531,-112.06535,1138.2793,325.03104,-173.55272,1144.54297,384.49121,-90.45005,1112.49402
44,0.358,240.3531,-112.06535,1138.2793,325.03104,-173.55272,1144.54297,385.5253,-89.06234,1112.86011
45,0.367,240.3531,-112.06535,1138.2793,325.21246,-173.13499,1144.40442,385.5253,-89.06234,1112.86011
46,0.375,240.49786,-111.89718,1137.9696,325.2106,-172.99892,1144.48511,385.5253,-89.06234,1112.86011
47,0.383,240.49786,-111.89718,1137.9696,324.76855,-172.70862,1144.00061,385.5253,-89.06234,1112.86011
48,0.392,240.49786,-111.89718,1137.9696,324.87436,-172.41341,1143.76794,385.41931,-90.41038,1111.27271
49,0.4,239.57745,-111.26871,1136.93604,325.01099,-172.37833,1143.57446,384.66443,-88.07627,1113.24658
50,0.408,239.57253,-113.95791,1134.6991,324.495,-171.97845,1143.36963,386.12445,-90.56839,1110.87476
51,0.417,239.40761,-112.55811,1134.30347,324.58704,-171.89212,1143.27795,385.16391,-90.21423,1111.04468
52,0.425,239.8512,-113.65176,1134.15491,324.58704,-171.89212,1143.27795,385.16391,-90.21423,1111.04468
53,0.433,240.49332,-113.39296,1133.93799,324.38681,-171.56523,1142.83472,385.16391,-90.21423,1111.04468
54,0.442,240.04962,-112.29958,1134.08667,324.38681,-171.56523,1142.83472,385.16391,-90.21423,1111.04468
55,0.45,240.04962,-112.29958,1134.08667,324.38681,-171.56523,1142.83472,385.16391,-90.21423,1111.04468
56,0.458,240.04962,-112.29958,1134.08667,324.38681,-171.56523,1142.83472,384.52179,-90.91483,1109.9303
57,0.467,240.04962,-112.29958,1134.08667,324.43384,-171.4384,1142.65918,384.52179,-90.91483,1109.9303
58,0.475,240.04962,-112.29958,1134.08667,324.52875,-171.48563,1142.58472,384.52179,-90.91483,1109.9303
59,0.483,240.04962,-112.29958,1134.08667,324.52875,-171.48563,1142.58472,384.52179,-90.91483,1109.9303
60,0.492,239.60022,-112.33371,1133.89063,324.52875,-171.48563,1142.58472,384.52179,-90.91483,1109.9303
61,0.5,239.60022,-112.33371,1133.89063,324.52875,-171.48563,1142.58472,384.52179,-90.91483,1109.9303
62,0.508,240.31067,-111.99106,1133.92651,324.52875,-171.48563,1142.58472,385.4523,-91.19029,1109.58533
63,0.517,240.48849,-112.27261,1133.52197,324.83771,-171.80244,1142.77356,384.52179,-90.91483,1109.9303
64,0.525,239.8613,-112.02516,1133.73047,324.75876,-171.65897,1142.55981,385.4523,-91.19029,1109.58533
65,0.533,240.04962,-112.29958,1134.08667,324.75876,-171.65897,1142.55981,384.52179,-90.91483,1109.9303
66,0.542,240.04962,-112.29958,1134.08667,324.75876,-171.65897,1142.55981,384.52179,-90.91483,1109.9303
67,0.55,240.08096,-112.59016,1133.87024,324.83771,-171.80244,1142.77356,384.52179,-90.91483,1109.9303
68,0.558,240.04962,-112.29958,1134.08667,324.80927,-172.0535,1142.82532,384.52179,-90.91483,1109.9303
69,0.567,240.04962,-112.29958,1134.08667,324.80927,-172.0535,1142.82532,384.52179,-90.91483,1109.9303
70,0.575,240.04962,-112.29958,1134.08667,324.9259,-172.21367,1143.00342,385.4523,-91.19029,1109.58533
71,0.583,239.77129,-112.60531,1134.63074,324.9259,-172.21367,1143.00342,384.42978,-91.05741,1110.41895
72,0.592,240.56253,-112.99951,1134.42297,325.30704,-172.64784,1143.22156,384.42978,-91.05741,1110.41895
73,0.6,240.56253,-112.99951,1134.42297,325.30704,-172.64784,1143.22156,385.47397,-91.34774,1109.9812
74,0.608,240.36301,-114.35231,1134.49121,325.30704,-172.64784,1143.22156,385.47397,-91.34774,1109.9812
75,0.617,240.39386,-114.6431,1134.27478,325.40881,-172.71283,1143.51184,385.39023,-91.41133,1110.24915
76,0.625,239.87712,-115.83182,1134.14429,325.38324,-172.85645,1143.69458,385.39023,-91.41133,1110.24915
77,0.633,239.50127,-116.4404,1134.27625,325.32706,-173.35274,1143.70398,385.39023,-91.41133,1110.24915
78,0.642,239.50127,-116.4404,1134.27625,325.17969,-173.47643,1143.70117,385.39023,-91.41133,1110.24915
79,0.65,239.50127,-116.4404,1134.27625,325.20947,-173.97501,1143.93018,385.39023,-91.41133,1110.24915
80,0.658,239.50127,-116.4404,1134.27625,325.20947,-173.97501,1143.93018,385.39023,-91.41133,1110.24915
81,0.667,239.50127,-116.4404,1134.27625,325.20947,-173.97501,1143.93018,385.39023,-91.41133,1110.24915
82,0.675,239.88571,-116.05064,1135.14465,325.30643,-173.87299,1144.14807,385.39023,-91.41133,1110.24915
83,0.683,239.88571,-116.05064,1135.14465,325.30643,-173.87299,1144.14807,385.52335,-91.65659,1111.39478
84,0.692,239.88571,-116.05064,1135.14465,325.30643,-173.87299,1144.14807,385.52335,-91.65659,1111.39478
85,0.7,239.74112,-116.21888,1135.45483,325.38391,-174.07687,1144.0907,386.3671,-91.88228,1111.01807
86,0.708,239.74112,-116.21888,1135.45483,325.30643,-173.87299,1144.14807,385.52335,-91.65659,1111.39478
87,0.717,239.74112,-116.21888,1135.45483,325.38391,-174.07687,1144.0907,386.3671,-91.88228,1111.01807
88,0.725,240.10455,-115.43807,1136.72815,325.1539,-174.34839,1144.17053,385.52335,-91.65659,1111.39478
89,0.733,240.10455,-115.43807,1136.72815,325.1539,-174.34839,1144.17053,385.52335,-91.65659,1111.39478
90,0.742,240.10455,-115.43807,1136.72815,325.1539,-174.34839,1144.17053,386.3671,-91.88228,1111.01807
91,0.75,240.10455,-115.43807,1136.72815,325.22861,-174.45517,1144.39185,386.3671,-91.88228,1111.01807
92,0.758,240.62813,-115.4758,1137.10815,325.22861,-174.45517,1144.39185,385.52335,-91.65659,1111.39478
93,0.767,240.62813,-115.4758,1137.10815,325.39389,-174.95488,1144.54663,386.3671,-91.88228,1111.01807
94,0.775,240.62813,-115.4758,1137.10815,325.39389,-174.95488,1144.54663,386.6803,-92.6104,1111.21716
95,0.783,240.62813,-115.4758,1137.10815,325.56589,-175.33437,1144.60657,386.6803,-92.6104,1111.21716
96,0.792,240.62813,-115.4758,1137.10815,325.56589,-175.33437,1144.60657,386.6803,-92.6104,1111.21716
97,0.8,240.62813,-115.4758,1137.10815,325.83762,-175.56747,1144.62024,386.6803,-92.6104,1111.21716
98,0.808,241.55679,-116.30029,1136.77795,325.99771,-175.59219,1144.69092,386.6803,-92.6104,1111.21716
99,0.817,242.25575,-116.2831,1137.09949,326.13733,-175.64001,1144.82288,386.80435,-91.98033,1113.13184
100,0.825,243.23996,-116.1264,1137.1864,326.18936,-175.40277,1144.83289,386.80435,-91.98033,1113.13184
101,0.833,243.23996,-116.1264,1137.1864,326.13733,-175.64001,1144.82288,387.31662,-92.04158,1113.20874
102,0.842,243.23996,-116.1264,1137.1864,326.13733,-175.64001,1144.82288,387.31662,-92.04158,1113.20874
103,0.85,244.22412,-115.96957,1137.27332,326.3335,-175.85732,1144.98438,387.31662,-92.04158,1113.20874
104,0.858,243.23996,-116.1264,1137.1864,326.3335,-175.85732,1144.98438,387.31662,-92.04158,1113.20874
105,0.867,244.22412,-115.96957,1137.27332,326.3335,-175.85732,1144.98438,386.80435,-91.98033,1113.13184
106,0.875,244.04044,-115.91532,1137.02612,326.3335,-175.85732,1144.98438,387.31662,-92.04158,1113.20874
107,0.883,244.22412,-115.96957,1137.27332,326.3335,-175.85732,1144.98438,386.80435,-91.98033,1113.13184
108,0.892,244.22412,-115.96957,1137.27332,326.27133,-176.01332,1144.79517,386.80435,-91.98033,1113.13184
109,0.9,244.22412,-115.96957,1137.27332,326.27133,-176.01332,1144.79517,386.80435,-91.98033,1113.13184
110,0.908,245.00151,-115.75166,1137.0824,326.16357,-176.21953,1144.57874,387.31662,-92.04158,1113.20874
111,0.917,245.00151,-115.75166,1137.0824,326.18362,-176.02884,1144.35205,386.80435,-91.98033,1113.13184
112,0.925,245.00151,-115.75166,1137.0824,326.18362,-176.02884,1144.35205,386.80435,-91.98033,1113.13184
113,0.933,245.00151,-115.75166,1137.0824,325.96747,-176.00223,1144.41724,386.80435,-91.98033,1113.13184
114,0.942,245.00151,-115.75166,1137.0824,326.11508,-176.20683,1144.198,386.80435,-91.98033,1113.13184
115,0.95,245.00151,-115.75166,1137.0824,326.39551,-175.99385,1144.35645,386.80435,-91.98033,1113.13184
116,0.958,245.00151,-115.75166,1137.0824,326.72815,-176.51126,1144.25586,386.80435,-91.98033,1113.13184
117,0.967,244.41551,-116.60661,1136.1792,326.59091,-176.75409,1143.85144,386.79141,-92.88079,1112.73254
118,0.975,244.41551,-116.60661,1136.1792,326.68814,-176.62503,1143.96533,386.79141,-92.88079,1112.73254
119,0.983,244.41551,-116.60661,1136.1792,326.65137,-176.53955,1143.70032,386.39001,-92.80691,1112.61377
120,0.992,244.41551,-116.60661,1136.1792,326.80289,-176.71912,1143.85596,387.88394,-94.83981,1110.39307
121,1,244.41551,-116.60661,1136.1792,326.65137,-176.53955,1143.70032,387.32928,-94.5497,1110.26318
122,1.008,244.41551,-116.60661,1136.1792,326.73694,-176.38039,1143.59387,387.88394,-94.83981,1110.39307
123,1.017,244.41551,-116.60661,1136.1792,326.73694,-176.38039,1143.59387,387.88394,-94.83981,1110.39307
124,1.025,244.41551,-116.60661,1136.1792,326.73694,-176.38039,1143.59387,387.88394,-94.83981,1110.39307
125,1.033,244.41551,-116.60661,1136.1792,326.95483,-176.40169,1143.39148,387.88394,-94.83981,1110.39307
126,1.042,245.04019,-116.38607,1135.90039,326.89066,-176.51497,1143.0636,387.88394,-94.83981,1110.39307
127,1.05,245.04019,-116.38607,1135.90039,326.89066,-176.51497,1143.0636,387.32928,-94.5497,1110.26318
128,1.058,245.04019,-116.38607,1135.90039,326.89066,-176.51497,1143.0636,387.32928,-94.5497,1110.26318
129,1.067,245.04019,-116.38607,1135.90039,326.9136,-176.66171,1142.99097,387.32928,-94.5497,1110.26318
130,1.075,245.04019,-116.38607,1135.90039,326.9136,-176.66171,1142.99097,388.04062,-94.87868,1110.3147
131,1.083,245.04019,-116.38607,1135.90039,326.9136,-176.66171,1142.99097,388.04062,-94.87868,1110.3147
132,1.092,245.04019,-116.38607,1135.90039,326.99463,-176.64505,1142.66284,388.04062,-94.87868,1110.3147
133,1.1,245.04019,-116.38607,1135.90039,326.82385,-176.67542,1142.4364,387.32928,-94.5497,1110.26318
134,1.108,245.04019,-116.38607,1135.90039,326.70792,-176.8909,1142.3855,388.12411,-94.8147,1110.04675
135,1.117,245.10771,-116.21376,1135.4613,326.64288,-177.09828,1142.27893,387.32928,-94.5497,1110.26318
136,1.125,245.10771,-116.21376,1135.4613,326.64288,-177.09828,1142.27893,388.12411,-94.8147,1110.04675
137,1.133,245.10771,-116.21376,1135.4613,326.80167,-177.15616,1142.09705,388.12411,-94.8147,1110.04675
138,1.142,245.17525,-116.04105,1135.02234,326.71945,-177.26025,1141.9071,387.37659,-93.55942,1111.1637
139,1.15,245.17525,-116.04105,1135.02234,326.71945,-177.26025,1141.9071,387.37659,-93.55942,1111.1637
140,1.158,244.65193,-116.00282,1134.64258,326.6452,-177.18431,1141.78931,386.76596,-93.57479,1111.27393
141,1.167,244.65193,-116.00282,1134.64258,326.6452,-177.18431,1141.78931,387.30777,-93.34387,1110.38464
142,1.175,245.17525,-116.04105,1135.02234,326.82968,-176.92444,1141.54956,387.30777,-93.34387,1110.38464
143,1.183,244.65193,-116.00282,1134.64258,326.82968,-176.92444,1141.54956,387.30777,-93.34387,1110.38464
144,1.192,244.09747,-115.70564,1133.55322,327.00177,-176.76065,1141.44409,386.69708,-93.35926,1110.495
145,1.2,244.09747,-115.70564,1133.55322,326.85144,-177.0723,1141.18005,387.30777,-93.34387,1110.38464
146,1.208,244.09747,-115.70564,1133.55322,326.85144,-177.0723,1141.18005,387.30777,-93.34387,1110.38464
147,1.217,244.09747,-115.70564,1133.55322,326.64758,-176.98453,1141.01611,387.19611,-94.30447,1109.11658
148,1.225,244.09747,-115.70564,1133.55322,326.12766,-176.5024,1140.83472,387.19611,-94.30447,1109.11658
149,1.233,244.09747,-115.70564,1133.55322,326.41504,-176.54668,1140.86475,387.19611,-94.30447,1109.11658
150,1.242,244.47411,-115.86534,1132.72803,326.12766,-176.5024,1140.83472,387.19611,-94.30447,1109.11658
151,1.25,244.47411,-115.86534,1132.72803,326.40381,-176.67621,1140.71277,387.53156,-94.28632,1108.67725
152,1.258,244.47411,-115.86534,1132.72803,326.1615,-176.79561,1140.64612,387.42181,-94.13203,1108.39294
153,1.267,244.47411,-115.86534,1132.72803,326.1615,-176.79561,1140.64612,387.42181,-94.13203,1108.39294
154,1.275,243.48991,-116.02193,1132.64075,326.1615,-176.79561,1140.64612,387.42181,-94.13203,1108.39294
155,1.283,243.48991,-116.02193,1132.64075,326.33734,-176.81557,1140.41821,387.42181,-94.13203,1108.39294
156,1.292,243.48991,-116.02193,1132.64075,326.33734,-176.81557,1140.41821,387.42181,-94.13203,1108.39294
157,1.3,243.48991,-116.02193,1132.64075,326.26883,-176.99376,1140.26428,387.42181,-94.13203,1108.39294
158,1.308,243.27466,-117.35883,1132.40942,326.33734,-176.81557,1140.41821,386.68677,-94.97424,1107.76709
159,1.317,243.48991,-116.02193,1132.64075,326.22845,-176.98718,1140.10168,386.68677,-94.97424,1107.76709
160,1.325,243.48991,-116.02193,1132.64075,326.05283,-176.93884,1140.17957,386.68677,-94.97424,1107.76709
161,1.333,243.48991,-116.02193,1132.64075,326.22845,-176.98718,1140.10168,386.19107,-94.35844,1107.92761
162,1.342,243.27466,-117.35883,1132.40942,326.28473,-177.03897,1139.94531,385.94077,-93.22192,1107.86316
163,1.35,243.48991,-116.02193,1132.64075,326.15146,-176.77875,1139.89612,386.19107,-94.35844,1107.92761
164,1.358,243.48991,-116.02193,1132.64075,326.39957,-177.13321,1139.83594,386.19107,-94.35844,1107.92761
165,1.367,243.27466,-117.35883,1132.40942,326.12659,-177.00232,1139.85974,386.19107,-94.35844,1107.92761
166,1.375,242.99574,-116.64419,1132.52441,326.24142,-177.09657,1139.75037,386.19107,-94.35844,1107.92761
167,1.383,243.27466,-117.35883,1132.40942,326.10815,-176.83638,1139.70117,386.19107,-94.35844,1107.92761
168,1.392,242.99574,-116.64419,1132.52441,326.24142,-177.09657,1139.75037,386.19107,-94.35844,1107.92761
169,1.4,242.99574,-116.64419,1132.52441,326.24142,-177.09657,1139.75037,386.30594,-95.73,1107.27014
170,1.408,242.99574,-116.64419,1132.52441,326.4462,-177.21886,1139.64233,386.82428,-95.20509,1107.80249
171,1.417,242.99574,-116.64419,1132.52441,326.24142,-177.09657,1139.75037,386.93939,-96.5772,1107.14465
172,1.425,242.99574,-116.64419,1132.52441,326.24142,-177.09657,1139.75037,386.93939,-96.5772,1107.14465
173,1.433,243.27466,-117.35883,1132.40942,326.24142,-177.09657,1139.75037,386.93939,-96.5772,1107.14465
174,1.442,242.99574,-116.64419,1132.52441,326.24142,-177.09657,1139.75037,386.93939,-96.5772,1107.14465
175,1.45,242.99574,-116.64419,1132.52441,326.24142,-177.09657,1139.75037,386.93939,-96.5772,1107.14465
176,1.458,242.99574,-116.64419,1132.52441,326.24142,-177.09657,1139.75037,386.09634,-96.66447,1106.72009
177,1.467,242.99574,-116.64419,1132.52441,326.24142,-177.09657,1139.75037,386.17166,-96.67131,1106.57544
178,1.475,242.99574,-116.64419,1132.52441,326.28772,-177.37836,1139.59863,386.09634,-96.66447,1106.72009
179,1.483,242.99574,-116.64419,1132.52441,326.28772,-177.37836,1139.59863,386.09634,-96.66447,1106.72009
180,1.492,242.99574,-116.64419,1132.52441,326.4462,-177.21886,1139.64233,386.09634,-96.66447,1106.72009
181,1.5,242.99574,-116.64419,1132.52441,326.28772,-177.37836,1139.59863,386.09634,-96.66447,1106.72009
182,1.508,242.99574,-116.64419,1132.52441,326.28772,-177.37836,1139.59863,386.17166,-96.67131,1106.57544
183,1.517,242.99574,-116.64419,1132.52441,326.24142,-177.09657,1139.75037,386.17166,-96.67131,1106.57544
184,1.525,242.99574,-116.64419,1132.52441,326.36221,-177.20821,1139.43921,386.09634,-96.66447,1106.72009
185,1.533,242.08054,-116.87161,1132.4978,326.28772,-177.37836,1139.59863,386.09634,-96.66447,1106.72009
186,1.542,242.99574,-116.64419,1132.52441,326.28772,-177.37836,1139.59863,386.17166,-96.67131,1106.57544
187,1.55,242.99574,-116.64419,1132.52441,326.28772,-177.37836,1139.59863,386.17166,-96.67131,1106.57544
188,1.558,242.08054,-116.87161,1132.4978,326.28772,-177.37836,1139.59863,386.17166,-96.67131,1106.57544
189,1.567,242.08054,-116.87161,1132.4978,326.28772,-177.37836,1139.59863,386.17166,-96.67131,1106.57544
190,1.575,242.08054,-116.87161,1132.4978,326.11969,-177.58154,1139.5238,386.17166,-96.67131,1106.57544
191,1.583,242.99574,-116.64419,1132.52441,326.11969,-177.58154,1139.5238,386.09634,-96.66447,1106.72009
192,1.592,242.99574,-116.64419,1132.52441,325.94672,-177.82501,1139.53845,386.17166,-96.67131,1106.57544
