Frame#,Time,L.Forearm.x,L.Forearm.y,L.Forearm.z,L.Ulna.x,L.Ulna.y,L.Ulna.z,L.Radius.x,L.Radius.y,L.Radius.z
1,0,141.90065,302.60358,973.05048,238.05811,344.05997,926.02826,312.91495,293.00278,975.95404
2,0.008,142.72476,302.00958,973.16681,238.70276,343.08344,926.33423,311.76343,291.73413,976.20984
3,0.017,143.17799,300.5412,973.32288,238.84029,342.50391,926.46771,311.29102,291.20184,976.4649
4,0.025,143.34753,299.56421,973.76727,239.30156,342.10556,927.01715,311.75769,290.34915,976.63348
5,0.033,143.6106,298.9642,974.10498,239.35281,341.29434,927.61804,312.72,289.7027,976.97552
6,0.042,143.65991,298.70721,974.46295,239.97746,341.20239,928.021,313.26761,289.6355,977.11548
7,0.05,144.66821,298.74075,974.92261,240.3658,341.29541,928.65729,314.39908,290.29144,977.60156
8,0.058,145.46809,298.13773,976.10632,240.32794,341.11383,928.91901,315.42334,292.26709,977.90845
9,0.067,146.02213,297.84134,976.08893,240.43402,341.33633,928.83417,315.63208,293.36215,977.9032
10,0.075,146.77364,297.77524,976.61163,240.43402,341.33633,928.83417,316.33038,296.8399,978.59674
11,0.083,147.55359,297.961,977.45349,240.37198,342.20227,929.06323,317.12567,297.54541,978.65173
12,0.092,148.03314,299.03635,978.21289,240.61308,343.01297,927.79456,316.99622,301.69107,978.26532
13,0.1,148.55179,299.79282,978.7688,240.81416,343.18332,927.55927,318.49609,302.43765,978.94812
14,0.108,148.33662,301.66693,979.45135,240.89951,343.22641,927.49017,318.91409,303.76697,978.85889
15,0.117,148.50424,302.74475,979.35449,241.19208,344.67068,927.04767,318.74933,305.14813,978.82867
16,0.125,148.46666,303.40286,979.20715,241.24648,346.5343,927.13452,317.9046,306.86151,978.80371
17,0.133,148.43674,304.21115,979.32495,241.16267,347.03171,927.16138,318.05823,307.53159,978.6424
18,0.142,148.43674,304.21115,979.32495,241.14221,347.9028,927.43945,317.77728,307.60547,978.70068
19,0.15,148.18643,304.39496,979.50293,241.23534,347.82953,927.49902,317.68335,307.53671,978.73767
20,0.158,147.81363,304.5849,979.39697,241.24052,348.04507,927.72437,316.79785,307.43954,978.86304
21,0.167,146.82185,305.24121,979.30774,240.50584,348.5199,929.0058,317.07635,306.11688,979.05585
22,0.175,146.23863,305.30933,979.19202,240.4407,348.30414,929.34979,316.37854,306.16321,979.24396
23,0.183,145.63051,304.94122,978.89575,239.64983,348.44345,930.08417,316.3371,302.96732,979.59576
24,0.192,145.02287,304.61084,979.07587,239.64983,348.44345,930.08417,315.95755,301.46387,979.20532
25,0.2,144.70921,304.35477,978.52588,239.32819,347.73166,930.33209,314.80014,300.27502,979.40259
26,0.208,144.63005,303.71704,977.84436,238.34193,346.84683,930.34338,314.48569,298.65436,978.98749
27,0.217,144.29077,302.71161,977.32007,238.06921,345.93884,929.91791,314.10583,294.87317,978.49365
28,0.225,143.99205,301.45309,977.42029,238.56921,344.73065,930.125,314.03705,293.82028,978.24554
29,0.233,143.58795,300.51624,976.59906,238.72614,344.38168,930.15686,314.51669,290.51981,977.33533
30,0.242,143.56158,299.73282,975.552,238.88074,343.60474,929.5401,314.10101,289.31882,977.28284
31,0.25,143.52878,299.28616,975.25653,239.03638,343.11133,928.68719,314.59064,290.16864,977.23169
32,0.258,144.38071,299.15744,974.50208,239.41277,341.3017,927.53223,315.17548,292.18326,976.71143
33,0.267,144.69336,298.58466,974.19794,239.8683,340.86673,927.39111,315.36792,292.6138,976.50427
34,0.275,144.88495,298.60742,974.01288,239.85538,341.21863,926.57898,315.37213,293.37006,976.25525
35,0.283,145.9615,298.19702,974.17084,240.31982,341.26428,926.3999,314.62921,296.97577,976.22162
36,0.292,146.36252,297.91122,974.41187,240.41017,341.47302,926.27032,315.62851,296.4747,977.1687
37,0.3,147.15067,297.51373,974.6709,240.71902,341.35919,926.15912,315.57867,299.18942,977.02765
38,0.308,147.36978,297.98715,975.23785,240.97737,341.24969,926.02557,316.37952,301.5202,977.36292
39,0.317,148.19467,298.034,975.97266,241.28639,341.2146,926.13501,317.01321,301.866,977.84143
40,0.325,148.34593,299.50922,976.84906,240.968,342.06711,926.51495,317.71036,303.49991,978.39868
41,0.333,148.52736,299.78787,977.44354,240.57196,342.7561,926.51508,318.26425,304.61191,978.48126
42,0.342,148.29781,302.88657,979.03186,240.72261,344.03363,926.66467,318.2681,305.487,978.49829
43,0.35,148.51685,303.13339,979.18311,240.83897,345.12653,926.77423,318.59747,305.60278,978.82135
44,0.358,148.33543,304.04953,979.4751,241.16267,347.03171,927.16138,317.9325,307.10617,978.83069
45,0.367,148.51575,304.35577,980.18219,241.04655,348.15085,929.14148,317.94348,306.89529,979.23248
46,0.375,148.24084,304.80621,980.7334,241.08885,348.56689,930.67578,318.16788,306.61987,979.67535
47,0.383,147.61237,304.15881,981.80847,240.74902,348.33636,932.18182,318.18274,304.63205,980.43024
48,0.392,147.02936,304.44345,981.87817,240.39757,348.92081,932.78296,317.30823,304.05795,980.81537
49,0.4,146.52557,303.61041,982.26849,240.30136,348.78552,933.54706,317.42633,302.83524,980.89301
50,0.408,146.2301,303.56943,982.09741,240.46164,348.72131,933.77698,316.89969,301.8862,980.3407
51,0.417,145.88084,303.46323,981.51385,240.44031,348.22482,933.9787,316.48218,300.86185,979.63257
52,0.425,145.47612,303.41882,980.22797,239.75,347.58331,933.11206,315.8985,300.66623,979.17084
53,0.433,145.50079,303.00031,979.3725,239.35561,347.09186,932.52063,315.78601,297.86307,979.42517
54,0.442,144.80981,303.19431,978.22113,238.23524,346.30597,930.65399,315.25284,297.32233,978.49652
55,0.45,144.47749,302.0285,977.36664,238.09659,345.53696,929.85577,314.10538,297.64539,977.42969
56,0.458,143.93318,301.66928,976.06433,238.18684,344.92804,927.56458,313.69296,297.52216,976.81219
57,0.467,143.91106,301.46884,974.31885,238.63477,344.07083,926.18677,313.18985,297.12421,976.10992
58,0.475,143.7106,300.18698,973.30658,238.32257,343.18356,925.37695,312.89288,297.41766,974.85559
59,0.483,144.00194,299.6937,972.60907,238.94427,341.39774,922.8634,313.35745,295.69705,974.47626
60,0.492,144.07109,299.6828,971.53668,238.09775,339.5907,921.81891,313.66357,295.11514,973.91644
61,0.5,144.0248,298.67361,970.71875,238.42163,338.75479,921.58258,313.69803,295.6467,973.36304
62,0.508,144.43755,298.12527,970.06891,238.80841,337.55362,921.01868,314.58682,293.54041,973.5896
63,0.517,144.69655,297.77069,970.02869,238.96507,337.43073,920.84375,315.05838,293.39673,973.59778
64,0.525,144.89055,297.47699,970.01538,239.60861,336.93698,920.74475,314.75415,294.64914,973.65643
65,0.533,145.4043,297.1384,969.91931,239.60861,336.93698,920.74475,314.56952,296.00507,973.47205
66,0.542,146.18048,296.80533,970.69885,239.94005,337.74292,921.28735,314.97684,296.42459,973.70557
67,0.55,146.12766,296.51947,971.94751,240.39519,337.61505,921.79376,315.44794,297.49002,973.66357
68,0.558,147.47368,296.81918,973.20593,240.82614,337.19415,922.24774,315.75024,297.91388,973.85352
69,0.567,147.50737,297.17468,974.22614,240.76392,339.3811,923.02234,316.43607,299.16595,974.27435
70,0.575,147.59952,297.84845,975.13623,241.00414,340.56384,924.05542,316.63901,299.93381,974.836
71,0.583,148.82042,297.48511,975.88794,241.07759,341.12521,925.59576,317.0972,300.06235,975.02863
72,0.592,147.5244,299.57004,977.19354,241.4229,341.86224,926.45795,317.25763,300.09698,975.32593
73,0.6,147.90501,299.36667,977.65796,240.65675,342.83649,927.08954,317.4444,299.92072,975.48132
74,0.608,148.09734,299.72528,978.58252,240.67255,343.07541,927.71228,317.42844,300.03152,975.63745
75,0.617,147.60622,300.42102,978.71606,240.16722,343.30447,928.92542,317.60287,300.05606,975.47174
76,0.625,147.10487,301.32117,978.60272,239.01053,344.70145,929.26715,317.18008,300.01584,975.00879
77,0.633,146.72523,301.55948,977.61584,238.99715,345.39264,928.83313,316.98672,300.18515,974.58936
78,0.642,146.54836,301.39868,977.11749,239.42377,345.36694,927.41541,316.73657,300.73734,973.71954
79,0.65,146.33363,301.931,976.10565,239.32466,345.71555,926.55432,316.51889,300.65805,973.00781
80,0.658,145.66902,302.72537,974.51233,239.00136,344.58655,925.57135,316.02014,300.50504,972.4494
81,0.667,145.08177,303.4772,973.59772,238.90578,344.22397,922.59296,316.38098,300.37717,971.71179
82,0.675,144.92374,302.7677,972.68652,238.80054,343.91925,921.15601,314.26782,298.89337,970.91541
83,0.683,144.46431,302.49985,971.03699,238.54028,344.16812,920.74817,313.74234,297.54953,970.40729
84,0.692,144.20203,301.39273,969.87219,237.22754,343.04749,919.62445,313.36301,297.10629,969.68567
85,0.7,143.68166,300.79361,968.55322,236.94228,340.586,918.58551,312.86346,296.50186,969.35773
86,0.708,143.27863,299.60004,967.36829,237.20865,339.22791,917.4884,312.36905,295.81821,968.75507
87,0.717,143.46561,299.41394,967.24469,237.49957,338.83691,917.31012,312.34158,296.03687,968.46783
88,0.725,143.69885,299.07391,967.06769,238.24301,337.92288,917.3432,312.33633,295.5791,968.4234
89,0.733,143.6434,298.50354,966.91241,238.24725,336.77982,916.58319,312.548,295.36279,968.37274
90,0.742,143.7153,298.11371,966.84253,238.24725,336.77982,916.58319,313.10498,293.22839,968.24091
91,0.75,143.92996,298.01019,967.0282,238.49275,336.80756,916.82141,313.13004,294.21844,968.33173
92,0.758,144.21944,297.10345,967.75287,238.38321,337.31177,917.77789,314.32739,293.35318,968.90961
93,0.767,144.96655,296.55069,968.41559,238.81445,337.12552,917.86255,314.6409,294.43622,969.12231
94,0.775,145.73038,295.46164,969.31482,238.92525,336.7597,918.30383,314.63074,294.84006,969.06207
95,0.783,146.32683,295.59573,969.5517,239.41927,336.86606,919.63562,314.58627,295.65744,969.21045
96,0.792,146.65636,295.77481,970.78687,239.37148,337.21561,919.80939,315.90521,295.50876,970.35498
97,0.8,147.0139,295.82309,972.01019,238.95575,338.72888,921.47101,316.11371,296.04337,970.47339
98,0.808,147.57558,295.64987,973.47906,239.40715,339.21109,921.40961,316.38528,297.5116,970.92804
99,0.817,147.59636,296.86487,974.1131,239.09697,341.06183,921.87085,317.09476,299.09995,971.04175
100,0.825,147.22769,297.70468,974.79498,238.81148,342.34579,921.89453,317.44943,300.24838,971.26428
101,0.833,147.08722,298.41367,974.87933,238.93419,343.66751,922.43689,317.47867,302.44623,970.75311
102,0.842,146.74033,300.55313,975.21515,238.93887,343.83588,922.25952,317.0524,303.10178,970.75751
103,0.85,146.91866,301.54428,974.92279,239.09868,344.259,921.69696,317.02347,303.43631,970.68591
104,0.858,146.56209,303.1568,974.10205,238.88139,344.62674,921.48853,316.69147,304.20209,970.07892
105,0.867,145.83789,304.1185,973.57794,237.8728,345.84442,921.40851,316.18042,304.73022,969.52307
106,0.875,145.51131,303.08475,973.04529,238.06813,345.51846,921.16949,316.00446,304.91565,969.46252
107,0.883,145.11542,305.07162,972.81329,237.94728,345.85883,920.53192,314.81732,304.20255,968.50793
108,0.892,144.55182,305.07129,971.55841,237.31812,346.04254,920.16412,314.90097,304.93967,968.12598
109,0.9,143.5023,305.14276,970.35181,236.79497,345.81622,918.94122,313.76105,304.45859,968.27808
110,0.908,142.72165,305.37128,968.54913,236.71854,345.90915,918.86633,312.97882,302.42401,967.44348
111,0.917,141.71715,304.21777,968.17334,236.31375,344.59335,918.45227,311.88101,298.30966,967.33881
112,0.925,140.9113,303.98199,967.31519,235.8882,344.46713,918.47284,310.61401,296.92706,967.32739
113,0.933,140.70453,302.37015,966.61664,235.48804,342.3819,918.87091,309.87198,294.004,967.29095
114,0.942,140.42421,301.10065,966.14948,235.64746,340.83731,919.01929,309.81412,291.49716,966.65491
115,0.95,140.02672,300.29663,965.65692,235.84947,339.92966,919.45148,309.37039,289.40463,966.64429
116,0.958,140.24956,298.85965,965.4754,235.93034,339.96951,919.61914,309.78079,286.21167,967.21057
117,0.967,140.51765,297.60767,965.49188,236.17365,337.97922,919.04742,309.80917,285.14468,967.35388
118,0.975,141.00388,296.44885,965.73248,237.16991,336.99719,919.3584,310.48813,283.00092,968.18665
119,0.983,141.69702,294.42258,965.9187,238.1852,335.93015,919.3446,311.19919,281.88214,968.49469
120,0.992,142.3091,293.59604,966.42206,238.23907,334.88748,919.34277,311.00687,283.67249,968.43756
121,1,142.83586,293.05902,967.23975,238.65309,334.85806,919.48792,311.85831,283.7225,968.78009
122,1.008,142.98502,292.79175,967.6532,239.5452,334.13959,919.94843,313.16577,284.16577,969.85822
123,1.017,143.74663,292.48724,967.96283,239.35594,332.91968,920.5434,313.90033,284.13199,970.67944
124,1.025,144.80511,292.09393,968.73145,239.7045,332.77499,920.82495,313.69348,287.56448,971.20093
125,1.033,145.29727,292.7677,969.8504,240.33389,333.30902,920.89319,314.66443,287.71869,972.51593
126,1.042,145.60219,292.90604,970.19165,240.5097,333.77103,921.74725,315.03009,290.16736,973.16559
127,1.05,145.96086,293.64478,971.55322,240.35329,333.89438,921.92236,314.72955,294.44345,972.80035
128,1.058,147.02249,294.53574,972.38635,240.02049,334.91586,921.90875,315.76782,294.78299,973.71509
129,1.067,147.35056,295.66507,973.53235,239.21324,336.44293,922.06537,316.35904,298.35358,974.39893
130,1.075,146.89162,297.48993,974.53857,239.43445,337.62024,922.15814,316.77774,299.82928,973.80029
131,1.083,146.45638,298.69382,975.02533,239.05946,338.21213,921.88263,316.66376,301.79865,973.85504
132,1.092,146.41655,300.50531,975.5976,239.43361,340.70795,921.90637,316.64981,302.17062,973.94202
133,1.1,146.48109,301.86395,975.62518,238.81752,342.25723,921.64905,316.56747,302.51056,973.8739
134,1.108,146.02884,302.98352,975.33868,238.84142,343.35388,921.90607,316.56509,302.74295,973.64453
135,1.117,145.43695,303.89792,975.11884,239.17767,344.07025,921.87164,315.90454,303.30725,973.07983
136,1.125,144.65245,304.30295,974.46027,239.14458,344.45837,922.20508,315.92343,302.4342,972.5481
137,1.133,144.40251,304.52286,973.90552,238.47334,344.81555,922.51385,315.68167,301.56424,971.96619
138,1.142,144.13208,304.81186,973.65851,238.07953,344.64557,922.8783,314.71771,298.18713,971.36133
139,1.15,144.15102,304.10132,972.70911,237.51932,344.78015,922.87769,313.76837,296.6441,970.99646
140,1.158,143.26599,302.98068,971.33893,237.38127,344.86139,922.83209,312.7236,294.98923,969.56525
141,1.167,142.43318,301.81128,970.13519,237.28596,343.95288,921.68994,311.81628,293.6821,968.82111
142,1.175,141.68771,301.47549,968.67627,237.28854,344.04599,921.59216,310.97363,293.8653,967.98828
143,1.183,140.9498,300.53836,967.6369,236.09779,342.47598,920.89514,311.12485,292.23605,967.85663
144,1.192,140.96555,299.60745,967.17688,235.82138,340.62875,919.80676,311.02567,292.51343,967.40729
145,1.2,140.74672,299.99277,966.03558,235.84947,339.92966,919.45148,309.62668,290.25412,966.18201
146,1.208,140.69936,298.61386,965.40955,235.58875,338.99326,918.11725,309.6319,291.49869,965.7442
147,1.217,141.22548,298.22067,965.01593,236.28986,337.67184,916.31415,309.86371,289.67236,965.73682
148,1.225,141.53329,297.04504,964.13892,236.37325,336.60864,915.79346,310.00012,290.71268,965.54266
149,1.233,141.73737,296.77734,963.81189,236.64296,334.68118,914.84296,310.05099,290.61124,965.66199
150,1.242,142.51282,296.48294,963.69788,237.33372,334.57217,914.77393,311.56464,287.31769,966.34985
151,1.25,143.07985,295.54526,963.75537,237.3299,332.99438,914.33075,312.09152,287.97061,966.9657
152,1.258,143.29897,294.65427,964.31531,237.69673,332.33243,914.29828,312.99146,288.09695,967.32703
153,1.267,143.95853,293.78809,964.95648,238.19537,332.1394,914.37085,312.71793,289.58859,967.36267
154,1.275,144.62976,293.63446,966.26111,239.5528,331.89417,914.75793,313.77448,290.46729,967.85059
155,1.283,145.85538,293.43436,966.85455,240.52933,332.33447,915.58466,314.81189,292.3277,968.25928
156,1.292,146.43176,294.18848,967.82245,240.28244,332.78738,915.62427,315.14923,293.54779,968.70673
157,1.3,147.26529,294.7269,968.99011,239.97113,334.79688,916.75208,315.59048,296.13278,968.75653
158,1.308,147.02332,295.38556,969.65704,240.1987,334.95541,917.50043,316.14728,297.65652,968.97845
159,1.317,147.34674,295.79224,971.44476,239.25864,337.03732,917.82922,316.94025,299.92523,969.93524
160,1.325,147.74042,297.09323,972.61145,239.47406,337.43448,918.43536,317.41724,302.05789,970.2915
161,1.333,147.31743,298.32242,973.48956,238.62801,338.20422,918.97357,317.57913,303.05206,969.99597
162,1.342,147.39984,300.58389,973.70807,239.00578,341.70105,919.95471,317.12888,304.29187,969.75983
163,1.35,146.85036,302.38617,973.81702,238.92371,343.78055,920.51978,316.99149,305.8927,969.15051
164,1.358,146.5309,304.004,973.64606,238.87619,344.12927,920.69336,316.76498,306.09424,968.62482
165,1.367,146.33588,304.14188,973.52155,238.11055,344.63916,920.42957,316.67224,306.16553,968.5827
166,1.375,145.75154,305.11722,973.11774,237.50215,346.05811,919.24963,315.94861,306.79321,967.27301
167,1.383,145.40422,305.40738,972.62524,236.89429,346.83176,918.62067,316.07315,307.79617,966.80481
168,1.392,144.5733,305.89401,970.83856,236.91913,347.06888,918.35101,315.80069,306.24896,966.44653
169,1.4,143.57181,306.90771,968.81335,236.55054,347.18103,917.45013,314.08777,305.17688,965.77557
170,1.408,143.3008,306.68243,967.83606,236.28345,347.25043,916.13623,313.19098,306.1615,964.56647
171,1.417,142.67688,305.77747,966.87189,236.25627,346.54391,915.47583,312.6142,304.22415,963.95233
172,1.425,141.40466,305.09647,965.40912,235.46849,345.45459,914.75012,311.21844,303.59854,963.78131
173,1.433,140.77228,304.31674,964.20215,235.2205,344.93625,913.7113,310.41916,300.36157,963.20093
174,1.442,140.47105,303.36179,962.69824,233.99261,343.22464,913.36407,309.51212,298.67465,963.01581
175,1.45,139.77277,303.05707,961.85455,233.88786,342.44788,912.58765,308.92639,299.38962,962.39954
176,1.458,139.7065,302.67841,961.43231,233.83266,342.21844,911.88147,307.45068,297.67828,962.71771
177,1.467,139.56902,302.27451,961.51099,234.08794,339.40009,911.56323,307.49301,296.25156,962.60211
178,1.475,140.0376,300.90189,961.28503,234.66103,337.95428,911.29242,308.08862,294.81427,962.77985
179,1.483,139.93704,299.72144,961.23535,234.72113,336.73071,910.55035,307.96848,293.96503,962.49371
180,1.492,139.87798,298.04446,961.58728,234.92665,335.38516,910.53986,308.82977,292.54785,963.24438
181,1.5,140.57747,297.45099,961.94952,234.79677,335.49979,910.9599,309.8891,290.33917,963.60376
182,1.508,141.76022,296.38943,962.3772,235.78796,334.33746,911.71674,311.25385,287.74548,963.76666
183,1.517,142.42838,295.03592,962.93964,236.8932,333.43039,913.7052,311.42661,287.12683,964.60205
184,1.525,143.1879,294.29172,964.08368,237.56204,332.87891,913.7973,311.97418,287.44586,964.98865
185,1.533,143.95753,293.19879,965.03339,238.19537,332.1394,914.37085,313.32358,288.89142,965.39661
186,1.542,145.10338,292.65985,966.54504,238.90404,333.2272,915.36865,314.44324,287.51556,966.19281
187,1.55,146.54666,290.43332,967.06628,239.62875,334.00256,916.12091,314.45657,290.61835,966.4884
188,1.558,146.55859,291.73105,967.77838,239.97113,334.79688,916.75208,315.25989,292.73911,967.01202
189,1.567,147.06703,294.36548,969.13654,239.4626,335.19754,917.7735,316.38583,293.39798,967.64667
190,1.575,146.86174,295.23886,969.59247,239.09047,337.05646,917.85657,316.56818,296.61041,967.90198
191,1.583,147.10291,296.37271,970.62036,238.75755,337.22202,917.7782,317.11691,298.90771,968.36121
192,1.592,146.27834,298.04807,971.52002,238.62167,337.54663,917.38983,316.88379,300.20163,967.55237
193,1.6,146.44763,299.44983,972.15387,238.18961,338.72791,917.24121,316.71408,301.20074,967.5379
194,1.608,146.17554,301.11514,972.05652,239.23547,340.53854,917.18866,316.71561,302.87674,967.12683
195,1.617,145.79509,303.20419,971.63177,238.11111,342.79428,916.56317,316.30585,304.24304,966.77551
196,1.625,145.25363,303.57956,970.6153,237.74854,344.20764,915.69952,315.79614,304.7038,966.43524
197,1.633,145.27876,305.05103,969.45459,237.32658,345.10687,914.89435,315.44846,304.95691,966.38354
198,1.642,144.5451,305.52991,968.27014,237.32658,345.10687,914.89435,314.87036,305.15714,965.87592
199,1.65,143.39761,306.47617,967.5437,236.65114,344.76538,914.54834,312.97809,305.05768,964.99011
200,1.658,143.35844,306.172,967.03131,235.5997,344.75912,913.46631,312.55637,304.97223,964.8363
201,1.667,142.53674,306.35562,966.45154,235.5997,344.75912,913.46631,312.22897,304.64008,964.56677
202,1.675,141.3653,305.79681,965.15131,235.41426,345.186,912.98639,311.49646,304.75638,963.88416
