Frame#,Time,L.Forearm.x,L.Forearm.y,L.Forearm.z,L.Ulna.x,L.Ulna.y,L.Ulna.z,L.Radius.x,L.Radius.y,L.Radius.z
1,0,104.52187,383.63687,896.44348,163.92584,353.73685,842.17053,172.76241,321.10532,930.73083
2,0.008,104.52187,383.63687,896.44348,163.60904,353.87976,842.29846,172.41129,321.51602,930.96039
3,0.017,104.2371,383.71884,896.58868,163.65811,353.96652,842.20874,172.44873,321.50897,930.83752
4,0.025,103.60921,384.38123,896.487,163.60568,354.08469,842.10175,172.43666,321.8306,930.80072
5,0.033,103.17832,384.62033,896.49792,163.40161,354.31055,842.26056,172.07762,322.15173,931.0094
6,0.042,103.17832,384.62033,896.49792,162.97638,354.24136,842.21265,171.95724,322.42538,931.05469
7,0.05,102.79715,384.55045,896.50507,162.79582,354.33417,842.14618,171.72466,322.285,930.90967
8,0.058,102.61517,384.63849,896.2608,162.79582,354.33417,842.14618,171.32841,322.33496,930.96661
9,0.067,102.47712,384.34476,895.98352,162.77965,354.48602,841.99451,171.10634,321.9682,930.64594
10,0.075,102.29031,384.30981,895.84747,162.06377,354.10226,842.15808,170.67787,322.46835,931.10144
11,0.083,102.29031,384.30981,895.84747,162.02588,353.98328,842.27716,170.21175,322.39627,931.27759
12,0.092,102.29031,384.30981,895.84747,162.02588,353.98328,842.27716,170.68771,322.78873,931.37091
13,0.1,102.10317,384.42505,896.06793,161.82748,353.94324,842.3407,170.67928,323.00174,931.50397
14,0.108,101.62109,384.51291,896.14948,161.40138,354.08127,842.31226,170.2679,322.98892,931.42163
15,0.117,101.38587,384.39737,895.92389,160.8912,353.83939,842.15247,169.9348,322.90628,931.29944
16,0.125,101.38587,384.39737,895.92389,160.58458,353.50174,842.22498,169.87794,322.99503,931.4931
17,0.133,100.33351,383.92148,896.06201,159.82932,352.87573,842.26257,168.03311,321.27817,931.25763
18,0.142,99.71803,384.26086,896.02209,159.74118,352.78091,842.36505,168.06018,321.26022,931.37665
19,0.15,99.71803,384.26086,896.02209,158.96077,352.86923,841.99829,168.06018,321.26022,931.37665
20,0.158,99.37996,384.31894,896.1546,158.45413,353.41855,842.10455,167.7,321.70587,931.42926
21,0.167,98.94865,384.55911,896.16534,158.01442,353.10263,842.37909,167.49831,321.88248,931.8504
22,0.175,98.94865,384.55911,896.16534,157.8998,353.39221,842.37164,167.31834,322.02454,931.79639
23,0.183,98.94865,384.55911,896.16534,157.8998,353.39221,842.37164,167.10181,321.90576,931.77533
24,0.192,98.28143,384.50342,895.87445,157.8998,353.39221,842.37164,166.69621,321.49814,931.66974
25,0.2,102.19092,385.21771,907.82806,163.04778,354.47006,854.70007,167.75288,318.77005,942.85785
26,0.208,102.19092,385.21771,907.82806,163.04778,354.47006,854.70007,167.75256,318.77203,942.85675
27,0.217,102.1737,386.008,907.64728,163.01622,354.90311,854.42816,168.43095,319.68436,942.73486
28,0.225,102.42059,386.45724,907.75269,163.23105,355.52155,854.33075,169.18065,320.81131,942.80237
29,0.233,102.42059,386.45724,907.75269,163.23105,355.52155,854.33075,169.26151,320.91443,942.83539
30,0.242,102.38989,386.87582,907.39648,162.7634,355.6615,854.25861,169.24347,321.48062,942.89514
31,0.25,102.20662,386.54684,907.18384,162.72202,355.78116,854.14819,168.78006,321.06659,942.6051
32,0.258,102.20662,386.54684,907.18384,162.48778,355.75226,853.75775,169.13725,321.46671,942.33752
33,0.267,101.83681,386.42502,907.26666,162.24626,356.37158,853.99744,168.17885,321.30493,942.32013
34,0.275,101.83681,386.42502,907.26666,162.24626,356.37158,853.99744,168.25757,321.41599,942.35687
35,0.283,101.31429,386.60211,907.03577,161.38489,356.71625,854.37921,167.12952,321.70572,942.73279
36,0.292,100.92067,386.82526,907.21686,160.83948,356.3934,854.40527,166.95824,321.79834,942.89539
37,0.3,100.8723,386.9776,907.10229,160.81729,356.26749,854.53009,167.07727,322.10635,943.17688
38,0.308,100.27718,386.94037,907.01538,160.29457,356.54315,854.18304,166.40025,321.93878,942.66669
39,0.317,100.27718,386.94037,907.01538,160.25623,356.43588,854.29181,166.35846,321.87921,942.79242
40,0.325,99.81478,387.02356,907.28693,160.25623,356.43588,854.29181,166.23553,321.84375,942.7851
41,0.333,99.81478,387.02356,907.28693,160.25623,356.43588,854.29181,166.19525,321.86157,942.79291
42,0.342,99.07285,386.72183,908.38611,160.25623,356.43588,854.29181,165.7724,321.32239,942.6059
43,0.35,99.07285,386.72183,908.38611,159.78148,356.37296,854.30725,165.5343,321.56369,942.72473
44,0.358,98.84299,386.75552,908.47253,160.04904,356.34241,854.5257,165.29773,320.95816,942.7442
45,0.367,98.84299,386.75552,908.47253,160.04013,356.25235,855.06421,164.69862,320.64563,943.22443
46,0.375,98.76623,386.35455,908.69598,159.67371,356.31119,855.28229,163.98181,320.47482,943.36536
47,0.383,98.32413,386.13562,909.27118,159.67371,356.31119,855.28229,163.96281,319.82916,943.09894
48,0.392,97.91665,386.70255,909.29614,159.67371,356.31119,855.28229,164.45224,320.23468,943.2392
49,0.4,97.75941,386.47226,909.32928,159.67371,356.31119,855.28229,164.25569,319.73557,943.04138
50,0.408,97.72176,386.91663,910.22107,159.67371,356.31119,855.28229,165.07819,320.66089,943.37286
51,0.417,97.61115,386.59613,909.53082,159.56157,356.13638,855.47723,164.21649,319.84229,943.34552
52,0.425,97.72176,386.91663,910.22107,159.56157,356.13638,855.47723,164.95549,320.67325,943.6402
53,0.433,97.54524,386.88773,909.90875,159.32823,356.38141,855.11084,165.15602,320.91357,943.24237
54,0.442,97.54524,386.88773,909.90875,159.3522,357.01382,855.14056,164.91241,321.10522,943.10889
55,0.45,97.54524,386.88773,909.90875,159.3522,357.01382,855.14056,165.00189,321.13239,943.11237
56,0.458,97.61115,386.59613,909.53082,159.62334,357.30252,855.28387,164.54327,320.62244,942.96777
57,0.467,97.5464,386.91019,909.38385,159.31529,357.42889,854.96692,164.8325,321.32632,942.85284
58,0.475,97.55566,387.18216,909.13593,159.04408,357.14017,854.82361,165.2724,321.97815,943.04083
59,0.483,97.50983,387.31024,909.03583,159.04408,357.14017,854.82361,165.22131,321.99881,943.05078
60,0.492,97.72456,387.44653,908.74066,159.0932,357.24185,854.71857,165.68988,322.71851,943.15723
61,0.5,97.76598,387.52722,908.65466,159.0932,357.24185,854.71857,165.97966,323.09964,943.28113
62,0.508,97.76598,387.52722,908.65466,159.0932,357.24185,854.71857,166.49216,323.63116,943.4411
63,0.517,97.76598,387.52722,908.65466,158.9133,357.3342,854.65247,166.4012,323.75549,943.37775
64,0.525,97.76598,387.52722,908.65466,158.9133,357.3342,854.65247,166.36848,324.16177,943.53131
65,0.533,97.90815,387.35977,908.45593,158.87204,357.4537,854.54211,166.58473,324.46155,943.46423
66,0.542,97.97627,387.39471,907.94476,158.80682,357.96634,854.51422,166.23538,324.48792,943.27673
67,0.55,97.97627,387.39471,907.94476,158.9133,357.3342,854.65247,166.43309,324.31042,943.57562
68,0.558,97.97627,387.39471,907.94476,158.9133,357.3342,854.65247,166.43268,324.31238,943.57452
69,0.567,97.83406,387.56216,908.14355,158.9133,357.3342,854.65247,166.40454,324.65283,943.70068
70,0.575,97.83406,387.56216,908.14355,158.9133,357.3342,854.65247,166.40411,324.65479,943.69958
71,0.583,97.97627,387.39471,907.94476,158.9133,357.3342,854.65247,166.28709,324.55261,943.66992
72,0.592,97.90969,387.13461,908.03845,159.0932,357.24185,854.71857,166.08774,324.04938,943.61243
73,0.6,97.77953,387.03885,907.9541,159.06917,356.60947,854.68878,166.10425,323.59784,943.6449
74,0.608,97.7381,386.95816,908.0401,159.02002,356.50775,854.79376,165.97086,323.50687,943.75861
75,0.617,97.7381,386.95816,908.0401,159.02002,356.50775,854.79376,165.97044,323.50882,943.75751
76,0.625,97.7381,386.95816,908.0401,158.95912,356.11752,854.7326,166.29192,323.25092,943.71277
77,0.633,97.78394,386.83011,908.1402,158.95912,356.11752,854.7326,166.24577,323.19873,943.69537
78,0.642,97.86624,386.49927,908.43036,158.31793,355.35361,855.20984,165.69588,323.13885,944.42059
79,0.65,97.59651,386.25308,909.1629,158.07518,354.05054,855.29663,165.95815,322.75711,944.78986
80,0.658,97.37193,386.13464,909.28455,157.92427,354.00342,855.36188,165.58623,322.51654,944.80457
81,0.667,97.13663,385.9368,909.19,157.49767,354.14203,855.33405,164.87431,322.27216,944.66315
82,0.675,96.57213,385.67847,909.62457,157.49767,354.14203,855.33405,164.29405,321.60464,944.46643
83,0.683,96.39153,384.98541,909.39099,157.49767,354.14203,855.33405,163.56203,320.77905,944.21179
84,0.692,96.39153,384.98541,909.39099,157.49232,354.46194,855.51617,163.31522,320.88867,944.32904
85,0.7,96.50459,385.59082,909.30768,157.49232,354.46194,855.51617,163.97466,321.65359,944.56702
86,0.708,96.36538,386.14972,909.15875,157.49232,354.46194,855.51617,164.34402,322.08447,944.69507
87,0.717,96.41869,385.96109,908.96136,157.49232,354.46194,855.51617,164.23483,322.00226,944.67169
88,0.725,96.71513,385.58939,908.02277,157.53661,355.14124,855.31268,164.35271,322.90225,944.54077
89,0.733,96.58692,386.04834,907.63226,157.94174,355.75815,854.888,163.91476,322.30493,943.72681
90,0.742,96.81927,386.08722,907.31854,158.48132,356.35776,854.61279,164.35562,322.68765,943.37433
91,0.75,97.24358,386.05304,907.16504,158.31226,356.43381,854.56097,164.70851,323.31403,943.49146
92,0.758,97.69828,385.96909,906.54846,158.52557,356.42456,854.20294,165.24937,323.47952,943.1723
93,0.767,97.69828,385.96909,906.54846,158.52557,356.42456,854.20294,165.40948,323.80908,943.27954
94,0.775,97.69828,385.96909,906.54846,158.44753,356.38861,853.94366,165.55119,323.84064,943.02582
95,0.783,97.69828,385.96909,906.54846,158.17168,356.47943,853.44275,165.72685,324.36084,942.64172
96,0.792,97.58106,385.60767,906.10248,158.17168,356.47943,853.44275,165.13039,323.88919,942.51721
97,0.8,97.58106,385.60767,906.10248,158.17168,356.47943,853.44275,165.41789,324.17966,942.59814
98,0.808,96.88995,386.28894,906.05377,158.17168,356.47943,853.44275,165.49428,324.27551,942.62476
99,0.817,96.4258,385.21396,906.04309,158.17168,356.47943,853.44275,164.11731,322.65454,942.12384
100,0.825,96.39246,385.05954,905.67645,158.17168,356.47943,853.44275,163.79094,322.34097,942.02301
101,0.833,95.99081,384.89404,905.62305,158.17168,356.47943,853.44275,163.26454,321.70551,941.80554
102,0.842,95.99081,384.89404,905.62305,158.21417,355.84207,853.24585,163.60081,321.59579,941.79517
103,0.85,96.68886,384.87289,905.58551,158.04939,355.11603,852.73962,164.66209,321.95868,941.61786
104,0.858,96.60984,384.45374,905.4035,158.04939,355.11603,852.73962,164.09476,321.28131,941.40082
105,0.867,97.05437,384.22543,905.52771,157.7782,354.82706,852.59613,164.56149,321.853,941.52594
106,0.875,97.13145,383.64789,905.39111,157.98265,354.54971,852.34186,164.20306,320.78983,941.01575
107,0.883,97.0647,383.38779,905.48492,157.64925,354.16086,852.39941,163.91425,320.5311,941.11774
108,0.892,97.0647,383.38779,905.48492,158.14909,353.55856,852.60071,164.21449,320.01685,941.36432
109,0.9,97.47919,384.19708,905.51117,158.49541,352.58331,852.69373,165.42403,320.27658,941.84949
110,0.908,97.0647,383.38779,905.48492,158.44441,352.4375,853.43207,163.67937,318.84915,942.22717
111,0.917,97.11697,383.33722,905.9151,158.44441,352.4375,853.43207,163.94177,319.01364,942.27148
112,0.925,97.07547,383.25644,906.00122,158.5218,352.40262,853.79413,163.67986,318.8783,942.6142
113,0.933,97.53582,383.93774,906.12769,158.5218,352.40262,853.79413,165.11069,320.13507,942.98242
114,0.942,97.12135,383.1282,906.1015,158.5218,352.40262,853.79413,163.78642,318.5845,942.49274
115,0.95,97.12135,383.1282,906.1015,158.5218,352.40262,853.79413,163.81085,318.49518,942.45532
116,0.958,97.26344,382.23651,906.11182,158.5218,352.40262,853.79413,163.30154,317.79419,942.21118
117,0.967,97.26344,382.23651,906.11182,158.5218,352.40262,853.79413,163.37245,317.87885,942.23853
118,0.975,97.42424,382.12244,906.16187,158.5218,352.40262,853.79413,163.48938,317.81589,942.20551
119,0.983,97.42424,382.12244,906.16187,158.5218,352.40262,853.79413,163.41661,317.73709,942.17688
120,0.992,97.55344,382.00342,906.22681,158.49623,352.33578,853.52405,164.03931,318.18027,942.065
121,1,97.74483,381.9411,906.22064,158.49623,352.33578,853.52405,164.06757,318.38736,942.14099
122,1.008,98.33174,381.54468,906.14648,158.40152,351.90451,852.95551,164.33803,318.11771,941.60864
123,1.017,98.21027,381.67078,906.07263,158.47827,352.1012,852.50238,164.48608,318.05246,941.04858
124,1.025,98.2205,381.81171,905.94269,158.64641,352.12555,852.45709,164.64034,318.09235,941.0083
125,1.033,98.2205,381.81171,905.94269,158.88889,352.18719,852.17389,165.24792,318.2637,940.73987
126,1.042,98.51713,381.62543,905.85156,158.84737,352.31757,852.0528,165.14607,318.33673,940.59924
127,1.05,98.27011,381.69534,905.49268,158.84737,352.31757,852.0528,164.83728,317.97964,940.48096
128,1.058,98.27011,381.69534,905.49268,158.84737,352.31757,852.0528,164.8369,317.98163,940.47986
129,1.067,98.18769,382.02618,905.20258,159.16505,352.17313,851.9245,165.40704,318.10468,940.43567
130,1.075,98.10011,382.1702,905.10175,159.04533,351.83905,850.81848,166.16928,318.39569,939.49939
131,1.083,98.10011,382.1702,905.10175,159.15086,351.77124,850.69385,166.33246,318.31583,939.36371
132,1.092,98.10011,382.1702,905.10175,159.15086,351.77124,850.69385,166.27118,318.36539,939.38544
133,1.1,98.24213,382.00204,904.90332,159.15086,351.77124,850.69385,166.14336,318.21851,939.33826
134,1.108,98.48927,381.8302,904.74048,159.24814,351.23846,850.07776,167.17351,318.3866,938.90417
135,1.117,98.84991,381.93314,904.53107,159.37384,351.21875,849.77002,167.77457,318.69107,938.6701
136,1.125,99.41059,381.56558,904.45599,159.11655,351.24365,849.54413,168.07545,319.12503,938.53656
137,1.133,99.65761,381.46155,904.64099,159.30238,351.0192,849.5249,168.0004,318.64508,938.44873
138,1.142,99.68775,381.18124,904.50104,159.00415,350.95441,849.39105,167.41277,318.22742,938.21161
139,1.15,99.68775,381.18124,904.50104,159.33292,350.80527,849.72833,167.38083,317.97916,938.54388
140,1.158,99.65112,380.95013,904.28931,159.33292,350.80527,849.72833,166.95216,317.58469,938.43311
141,1.167,100.32368,380.39297,904.30139,159.97643,350.56931,849.82373,167.09737,316.90131,938.39923
142,1.175,100.49142,380.54987,904.53717,160.16614,350.16327,849.84576,167.77444,317.07349,938.59662
143,1.183,100.51981,380.00464,904.47217,160.42966,350.12283,849.85114,167.12343,316.09976,938.32043
144,1.192,100.47839,379.92352,904.55835,160.42966,350.12283,849.85114,167.4669,316.29501,938.36682
145,1.2,100.47839,379.92352,904.55835,160.64929,349.77997,850.14215,167.53029,315.88367,938.64203
146,1.208,100.51494,380.15466,904.77002,160.91273,349.73969,850.14758,168.35774,316.33023,938.78497
147,1.217,100.51494,380.15466,904.77002,160.72276,349.07556,850.60498,168.23616,316.26105,939.45673
148,1.225,100.51494,380.15466,904.77002,160.72276,349.07556,850.60498,168.02496,316.0896,939.40894
149,1.233,100.51494,380.15466,904.77002,160.72276,349.07556,850.60498,168.23538,316.26495,939.45447
150,1.242,100.51494,380.15466,904.77002,160.38118,349.86313,850.45337,167.83229,316.6778,939.16693
151,1.25,100.36652,380.27817,904.97217,160.38353,350.00046,850.33105,167.72353,316.63159,938.98309
152,1.258,100.51494,380.15466,904.77002,160.53244,350.28534,850.75018,167.33878,316.56119,939.30847
153,1.267,100.38799,380.37683,905.12762,160.70988,350.65839,850.42633,167.46191,316.74686,938.91528
154,1.275,100.50226,380.41837,905.05322,160.51852,351.18326,850.28912,167.58623,317.3186,938.76953
155,1.283,100.50226,380.41837,905.05322,160.49217,350.87451,850.3103,167.60941,317.22296,938.86615
156,1.292,100.91656,381.22928,905.07953,160.90755,351.12317,849.987,169.10371,318.42084,938.80292
157,1.3,100.8755,381.64096,904.70349,160.90755,351.12317,849.987,169.07399,318.47321,938.82306
158,1.308,100.8755,381.64096,904.70349,160.90755,351.12317,849.987,169.07358,318.47516,938.82196
159,1.317,100.90572,381.36069,904.5636,160.88176,351.25656,849.86084,168.77574,318.16257,938.55334
160,1.325,100.90572,381.36069,904.5636,160.75055,351.38458,849.75354,168.72318,318.26892,938.42908
161,1.333,101.13475,381.28519,904.43152,160.69589,351.31491,849.48889,168.96249,318.35294,938.19287
162,1.342,101.20995,381.11581,903.7207,160.68954,351.28922,849.06549,168.93347,318.11066,937.68896
163,1.35,101.23112,381.48553,903.54346,160.68954,351.28922,849.06549,169.2478,318.48013,937.7948
164,1.358,101.12283,381.87488,903.2287,160.69719,351.7005,848.83691,169.39029,318.77432,937.50781
165,1.367,101.24058,381.75775,903.29565,160.58499,351.41116,848.68378,169.53987,318.84213,937.45862
166,1.375,101.12283,381.87488,903.2287,160.58499,351.41116,848.68378,169.52475,318.82687,937.45264
167,1.383,101.27107,381.75165,903.02667,160.58499,351.41116,848.68378,169.09258,318.55746,937.39392
168,1.392,101.27107,381.75165,903.02667,160.98463,351.61508,847.7373,169.8615,318.57535,936.34027
169,1.4,101.49902,382.3089,902.84686,161.27968,351.14078,847.63446,170.6431,318.96689,936.50372
170,1.408,102.02029,382.21872,902.38721,161.43057,351.4743,847.28674,170.96507,319.29361,936.13348
171,1.417,102.21991,382.58789,902.36371,162.38844,351.86185,847.12024,172.13403,319.72107,935.95667
172,1.425,102.53065,382.89279,901.93726,162.38844,351.86185,847.12024,172.2942,319.9707,936.02698
173,1.433,102.28472,382.27432,902.51019,162.38844,351.86185,847.12024,171.68216,319.24899,935.82916
174,1.442,102.3209,382.90317,901.59045,162.38844,351.86185,847.12024,171.68974,319.29391,935.84302
175,1.45,102.41251,382.53598,901.77631,162.64545,351.83624,847.34607,171.64195,319.19147,936.07019
176,1.458,102.41251,382.53598,901.77631,162.84879,350.97092,847.59711,171.65863,318.58994,936.43469
177,1.467,102.18311,382.14478,901.8291,162.93294,350.63245,847.74359,171.14502,317.86813,936.49597
178,1.475,102.18311,382.14478,901.8291,163.26534,351.02084,847.68646,171.34384,317.99838,936.35352
179,1.483,102.30742,381.9541,901.95972,163.26534,351.02084,847.68646,171.27634,318.08197,936.38885
180,1.492,102.1834,381.64331,901.69476,163.26534,351.02084,847.68646,170.73897,317.45465,936.19849
181,1.5,102.04518,381.85229,901.55225,163.26534,351.02084,847.68646,170.65703,317.35712,936.1665
182,1.508,102.1834,381.64331,901.69476,163.26534,351.02084,847.68646,170.45505,317.24121,936.13708
183,1.517,102.1834,381.64331,901.69476,163.26534,351.02084,847.68646,170.45465,317.24319,936.13599
184,1.525,102.1834,381.64331,901.69476,163.18118,351.35928,847.53998,170.27927,317.30402,935.88849
185,1.533,102.21369,381.36316,901.55475,163.18118,351.35928,847.53998,169.80663,316.91559,935.77264
186,1.542,102.4797,381.91962,900.93512,163.3764,350.76953,847.27795,170.60164,317.39569,935.87213
187,1.55,103.07229,381.60709,901.05084,163.10817,350.80054,847.05878,170.86127,317.86057,935.76874
188,1.558,103.60655,381.93375,900.68719,163.22977,350.55746,846.2981,172.15956,318.31903,935.15314
189,1.567,103.60655,381.93375,900.68719,163.15218,350.52032,846.039,172.19281,318.20929,934.85461
190,1.575,103.91592,381.75592,900.56873,163.16504,350.50797,845.72888,172.41971,318.17966,934.51428
191,1.583,103.91592,381.75592,900.56873,163.27907,350.4957,845.40588,172.6842,318.09695,934.14789
192,1.592,104.13105,381.53162,900.43213,163.1526,350.48486,844.73645,172.79192,318.02026,933.42743
193,1.6,104.13105,381.53162,900.43213,163.30524,350.457,844.40723,172.84074,317.95154,933.09259
194,1.608,104.91563,381.3013,900.03247,163.23358,350.5817,844.29596,173.16727,318.35623,933.0379
195,1.617,104.91563,381.3013,900.03247,163.31339,350.44876,843.90106,173.58575,318.73834,932.78802
196,1.625,105.07993,381.60062,899.53827,163.79874,351.10007,843.55823,173.73053,318.78571,932.26428
197,1.633,105.07993,381.60062,899.53827,164.1713,351.47327,843.26984,173.94817,318.67853,931.81482
198,1.642,104.92651,381.43942,898.99231,164.38075,351.9617,843.00433,173.34224,318.43878,931.36084
199,1.65,104.92651,381.43942,898.99231,164.70494,351.20297,842.94733,173.56303,317.85056,931.37689
200,1.658,105.50778,381.28879,898.29327,164.70494,351.20297,842.94733,174.10713,318.35406,931.5072
201,1.667,105.50778,381.28879,898.29327,164.70494,351.20297,842.94733,174.05611,318.47369,931.55499
202,1.675,105.50778,381.28879,898.29327,164.70494,351.20297,842.94733,173.6452,318.14163,931.47223
203,1.683,105.50778,381.28879,898.29327,164.70494,351.20297,842.94733,173.7023,318.31906,931.53064
