Frame#,Time,L.Forearm.x,L.Forearm.y,L.Forearm.z,L.Ulna.x,L.Ulna.y,L.Ulna.z,L.Radius.x,L.Radius.y,L.Radius.z
1,0,62.03458,209.11589,919.71887,137.47394,248.11189,913.2179,182.84442,164.05017,916.16235
2,0.008,61.41904,209.41051,919.69891,137.64128,248.13527,912.83063,182.84442,164.05017,916.16235
3,0.017,61.45676,209.27484,919.81799,137.62686,248.13576,912.91943,182.40257,164.29762,916.27405
4,0.025,61.45676,209.27484,919.81799,137.62686,248.13576,912.91943,181.51532,164.85071,917.31531
5,0.033,61.02766,209.63293,919.80481,137.64128,248.13527,912.83063,181.2966,164.6738,918.10724
6,0.042,60.96674,209.57567,919.97687,137.64128,248.13527,912.83063,181.09923,164.214,918.30518
7,0.05,60.82594,209.78166,920.02838,137.64128,248.13527,912.83063,181.24422,163.88818,918.70093
8,0.058,60.82594,209.78166,920.02838,137.39088,248.0844,913.26855,182.18858,163.09908,917.44214
9,0.067,60.82594,209.78166,920.02838,137.37947,247.9911,913.37573,182.13622,162.67538,917.16101
10,0.075,60.78479,209.73,920.09827,137.24303,247.79178,913.26605,181.23502,163.20824,918.22327
11,0.083,60.53119,209.68874,920.25891,136.89174,247.66542,913.48383,181.6355,162.47298,918.55682
12,0.092,60.41057,209.45319,920.29944,136.84517,247.28139,913.55017,182.7317,162.51003,917.31573
13,0.1,60.53348,208.93089,920.40924,136.57961,246.61272,913.77191,182.59227,161.84361,917.45081
14,0.108,60.17294,208.5527,920.50952,136.63373,246.61331,913.90277,182.65108,161.76903,917.25891
15,0.117,60.21269,208.20123,920.46497,136.63689,245.94405,913.87683,182.65108,161.76903,917.25891
16,0.125,60.90387,207.75352,919.64362,136.66452,245.87599,913.94171,181.49277,160.17538,917.53857
17,0.133,60.7215,208.0585,919.82373,136.55775,246.29329,914.21191,181.43471,160.24559,917.6897
18,0.142,60.7215,208.0585,919.82373,136.19206,246.09451,914.3327,181.03677,158.90608,917.69049
19,0.15,60.41761,207.92696,920.03802,136.49966,246.11714,914.57599,181.22874,158.78914,917.79132
20,0.158,60.41761,207.92696,920.03802,136.47324,246.54359,914.31635,180.72144,158.92758,918.15979
21,0.167,60.33768,208.30045,920.10046,136.47324,246.54359,914.31635,180.54437,159.2738,918.00439
22,0.175,60.33768,208.30045,920.10046,136.403,247.11597,914.41388,179.86043,159.82259,919.54468
23,0.183,59.67362,209.00096,921.00085,136.31396,247.14061,914.20911,180.62929,159.93683,918.50116
24,0.192,59.42382,209.33096,921.03851,136.31396,247.14061,914.20911,180.60274,160.13046,918.71289
25,0.2,59.57495,209.42654,921.0929,136.12079,246.99901,914.14551,180.24127,159.91893,917.78625
26,0.208,59.42382,209.33096,921.03851,136.12079,246.99901,914.14551,181.03117,162.26477,919.74445
27,0.217,59.42382,209.33096,921.03851,135.74364,247.11221,914.2182,181.03117,162.26477,919.74445
28,0.225,59.42382,209.33096,921.03851,135.74364,247.11221,914.2182,180.69241,162.22179,919.91705
29,0.233,59.28767,209.38095,921.05231,135.52014,246.72386,914.23901,180.65288,162.03593,919.69397
30,0.242,59.28767,209.38095,921.05231,134.75372,246.40175,914.31158,179.43262,159.64288,918.45416
31,0.25,59.28767,209.38095,921.05231,134.88527,245.87262,914.35388,178.93713,159.3596,919.09399
32,0.258,59.28767,209.38095,921.05231,134.92128,245.80843,914.41248,178.84544,159.35799,918.86957
33,0.267,59.28767,209.38095,921.05231,134.80882,245.80608,914.54352,178.84544,159.35799,918.86957
34,0.275,59.66977,208.62823,920.14783,134.92577,245.66786,914.71832,178.50067,159.18941,918.74231
35,0.283,59.66977,208.62823,920.14783,135.07545,245.3877,915.10626,178.50067,159.18941,918.74231
36,0.292,59.66977,208.62823,920.14783,134.99779,245.47856,915.46918,178.59877,158.61636,918.65833
37,0.3,60.03564,208.24016,920.09637,134.95773,245.72229,915.44397,179.13583,160.1391,917.96008
38,0.308,59.78806,208.18289,920.04602,134.71062,245.83713,915.07288,177.93976,160.16486,918.75897
39,0.317,60.03564,208.24016,920.09637,134.65082,246.27356,915.31091,178.65082,159.75267,917.97424
40,0.325,60.03564,208.24016,920.09637,134.54948,246.03604,914.85187,179.08727,160.9375,917.93182
41,0.333,60.03564,208.24016,920.09637,134.36945,246.44598,914.49701,179.3331,160.76196,918.03992
42,0.342,59.66977,208.62823,920.14783,134.33788,246.64751,914.28558,177.89073,159.92061,918.80713
43,0.35,59.23679,209.43361,920.84656,134.25426,247.01331,914.20392,177.61992,160.19719,918.76959
44,0.358,59.23679,209.43361,920.84656,134.42438,247.15353,914.06451,177.38033,160.24466,918.51093
45,0.367,59.15805,209.69357,920.78528,134.4269,247.22154,913.99194,178.49738,161.06732,917.7403
46,0.375,58.96332,209.90601,921.01721,134.18765,247.44934,913.98694,177.87808,160.26335,917.37201
47,0.383,58.76231,210.2247,921.06586,134.18765,247.44934,913.98694,177.2379,160.52791,918.19177
48,0.392,58.5255,209.97334,920.8252,134.18765,247.44934,913.98694,177.07597,161.2267,917.83044
49,0.4,58.45685,209.76015,920.64801,134.18765,247.44934,913.98694,178.55934,161.19455,917.11969
50,0.408,57.84099,210.05667,920.62775,134.22284,247.28267,913.8327,177.32663,161.04066,917.61176
51,0.417,57.84099,210.05667,920.62775,133.88387,247.18343,913.867,178.09685,160.33133,916.40839
52,0.425,58.55758,209.66144,920.56116,134.06818,247.03452,913.90186,177.528,160.27283,916.92603
53,0.433,58.35889,209.61888,920.42029,133.88387,247.18343,913.867,177.528,160.27283,916.92603
54,0.442,58.35889,209.61888,920.42029,133.88387,247.18343,913.867,176.88509,160.86195,917.51343
55,0.45,58.375,209.38977,920.37238,134.06818,247.03452,913.90186,177.55124,160.48257,916.77063
56,0.458,58.02993,209.60078,919.15723,133.7224,247.21461,913.77435,177.53935,160.66896,916.59393
57,0.467,58.404,209.17737,918.86554,133.90669,247.06572,913.8092,178.16125,161.61986,916.36096
58,0.475,58.36704,209.33243,918.97888,133.38335,247.08846,913.50696,177.65227,160.86458,916.32025
59,0.483,58.25086,209.42242,918.8233,133.53682,247.30954,913.46954,177.00139,161.09718,917.19208
60,0.492,58.25078,209.73836,919.6853,133.48247,247.3116,913.36023,177.00139,161.09718,917.19208
61,0.5,58.25078,209.73836,919.6853,133.25146,247.48746,913.02325,177.19426,161.90945,916.61237
62,0.508,58.04543,210.03027,919.82941,133.25146,247.48746,913.02325,177.19426,161.90945,916.61237
63,0.517,58.04543,210.03027,919.82941,133.46126,247.87886,912.7807,178.42371,164.30551,917.17999
64,0.525,57.67543,210.81401,919.78369,133.37634,247.80666,912.6214,179.51408,164.68172,916.48712
65,0.533,57.46456,210.77,919.71722,133.14624,247.77306,912.75049,179.1097,165.006,916.63843
66,0.542,57.46651,210.97197,919.72473,133.03914,247.81494,912.73413,176.77711,162.332,916.51215
67,0.55,57.34705,210.84378,919.69897,132.95422,247.74275,912.57483,177.25401,162.26041,916.15833
68,0.558,57.33423,210.66577,919.61365,132.95422,247.74275,912.57483,176.99265,162.19673,915.7915
69,0.567,57.34705,210.84378,919.69897,132.95422,247.74275,912.57483,176.63052,162.00185,915.38068
70,0.575,57.33423,210.66577,919.61365,132.84154,247.62556,912.64331,176.37761,161.83099,915.01434
71,0.583,56.98336,210.29851,919.56763,132.60246,247.22371,912.7475,176.1684,161.5443,915.28027
72,0.592,56.31013,210.0432,919.224,132.60246,247.22371,912.7475,176.68552,161.08441,914.24188
73,0.6,57.06357,209.34651,918.03961,132.59102,247.13031,912.85474,176.86844,160.9142,914.10864
74,0.608,56.83764,209.00519,917.88159,132.78304,247.16063,913.0304,176.98547,160.7076,913.99512
75,0.617,56.83764,209.00519,917.88159,132.78304,247.16063,913.0304,177.10248,160.50084,913.88165
76,0.625,57.06357,209.34651,918.03961,132.69814,247.08842,912.87109,177.10248,160.50084,913.88165
77,0.633,56.83056,209.11502,917.74701,132.832,246.97983,913.14813,176.18672,161.3109,914.72748
78,0.642,56.99681,209.01802,917.76874,132.78304,247.16063,913.0304,176.02284,161.86168,915.01007
79,0.65,56.5144,209.81747,917.96246,132.78304,247.16063,913.0304,176.1684,161.5443,915.28027
80,0.658,56.68062,209.7205,917.98419,132.93648,247.3817,912.99304,176.32964,161.71333,915.42212
81,0.667,57.07671,210.26369,918.33142,132.94792,247.47507,912.8858,177.70256,163.29152,915.40576
82,0.675,57.69794,210.20679,918.87964,132.94792,247.47507,912.8858,177.34991,163.00024,915.85181
83,0.683,57.64547,210.71236,918.83453,132.92645,247.69775,912.80261,176.26172,162.17409,916.80103
84,0.692,57.33423,210.66577,919.61365,132.92645,247.69775,912.80261,176.47083,162.46104,916.53528
85,0.7,57.36626,211.10864,919.50494,132.82996,247.91425,912.94513,176.36134,162.57668,916.93756
86,0.708,57.12484,211.1264,919.68256,132.92645,247.69775,912.80261,176.93288,162.43098,916.10974
87,0.717,57.12484,211.1264,919.68256,132.92645,247.69775,912.80261,176.79219,162.46281,915.94061
88,0.725,57.03109,210.79443,919.93695,132.62904,247.64825,912.72705,176.6107,162.23547,915.9516
89,0.733,57.03109,210.79443,919.93695,132.62833,247.53964,912.95319,177.13507,164.14064,917.36121
90,0.742,56.9129,210.77327,919.84497,132.3949,247.65778,913.04529,175.96393,162.1666,916.32349
91,0.75,56.29734,211.07025,919.82471,132.24147,247.43677,913.08258,175.68161,161.17627,916.40265
92,0.758,56.29734,211.07025,919.82471,132.16176,247.23868,913.03546,176.02167,160.94914,915.5824
93,0.767,56.20115,210.43687,919.53168,132.24667,247.31088,913.19476,176.5672,161.79733,914.94366
94,0.775,56.01302,210.05867,919.26367,132.24667,247.31088,913.19476,176.03146,161.3607,914.58997
95,0.783,56.20292,210.02823,918.15125,132.24667,247.31088,913.19476,176.06575,160.67393,915.85919
96,0.792,55.67294,209.68184,918.00012,132.24667,247.31088,913.19476,176.43222,160.78931,915.10681
97,0.8,56.33043,209.52008,918.05334,132.24667,247.31088,913.19476,176.43222,160.78931,915.10681
98,0.808,56.37971,210.12874,918.24835,132.24667,247.31088,913.19476,176.4752,162.00888,915.75592
99,0.817,56.38681,210.01892,918.38287,132.24667,247.31088,913.19476,175.9483,161.93301,916.89697
100,0.825,56.83456,210.83824,918.7442,132.3949,247.65778,913.04529,176.00282,162.35378,917.0152
101,0.833,56.14025,211.3018,919.66071,132.3949,247.65778,913.04529,176.37157,162.28294,916.46161
102,0.842,55.89723,211.61116,919.6391,132.21898,247.94598,913.13275,176.47867,162.17267,916.44977
103,0.85,55.89723,211.61116,919.6391,132.13847,248.17288,913.09674,176.68156,164.22897,918.52893
104,0.858,56.89327,210.92395,919.72723,132.13847,248.17288,913.09674,176.27228,164.64354,918.8559
105,0.867,56.27456,211.6859,919.63776,131.9856,248.43407,913.0882,176.27228,164.64354,918.8559
106,0.875,56.84838,211.20386,919.73767,131.78688,248.4807,913.04626,175.60632,162.65271,917.2757
107,0.883,56.48351,211.60397,919.92236,131.84135,248.54794,913.02423,176.04994,164.02159,918.50488
108,0.892,55.80954,211.63118,919.95306,131.7401,248.34671,913.09613,175.40979,162.45192,917.23938
109,0.9,55.62387,211.54494,919.91516,131.50595,247.82208,913.34442,175.20093,162.1647,917.505
110,0.908,55.37027,211.15251,920.04614,131.50595,247.82208,913.34442,174.84909,161.96794,917.20453
111,0.917,55.55562,210.63274,920.0191,131.50171,247.68732,913.46326,175.59822,162.99335,918.21545
112,0.925,55.17516,211.02306,919.95117,131.59798,247.40208,913.46429,175.7636,161.62253,916.19464
113,0.933,55.05575,210.85823,919.86035,131.8905,247.34256,913.47076,175.62256,160.60252,916.45239
114,0.942,54.57288,209.8148,919.59381,131.64897,247.23003,913.76416,175.96338,160.60429,916.57452
115,0.95,54.70795,209.82339,919.78241,131.91225,247.22617,914.02222,174.63126,159.57536,917.17346
116,0.958,55.02102,209.40157,918.67261,131.64677,247.44266,914.20264,174.26686,159.88861,917.52045
117,0.967,55.02102,209.40157,918.67261,131.64677,247.44266,914.20264,175.22835,160.38132,917.05951
118,0.975,55.26433,209.29886,918.55524,131.39211,247.38486,914.37689,175.38326,160.30399,917.16699
119,0.983,55.10227,209.30458,918.74304,131.42174,247.45531,914.2973,175.00107,159.64644,917.20245
120,0.992,54.98189,209.56108,918.84131,131.42174,247.45531,914.2973,175.12813,160.27988,917.42743
121,1,54.70795,209.82339,919.78241,131.22983,247.52034,914.37506,176.05054,163.74036,918.79901
122,1.008,54.99959,210.50952,919.99384,131.07297,247.75412,914.27679,175.85439,161.50743,917.14496
123,1.017,55.19089,210.86685,920.04901,131.01697,247.8766,914.03229,175.9236,161.59021,917.54858
124,1.025,55.3103,211.03171,920.13983,131.01697,247.8766,914.03229,175.67734,164.22812,919.9895
125,1.033,54.81272,211.4321,920.17407,130.93781,247.94154,913.98334,175.67734,164.22812,919.9895
126,1.042,55.3073,211.36609,920.57037,130.94301,247.91905,913.81415,174.7561,164.6111,920.47717
127,1.05,55.08265,211.28871,920.69415,130.94301,247.91905,913.81415,175.67734,164.22812,919.9895
128,1.058,55.08265,211.28871,920.69415,130.94301,247.91905,913.81415,174.45369,162.04268,918.3194
129,1.067,55.15285,211.36482,920.85437,130.83528,247.90953,914.03979,174.45369,162.04268,918.3194
130,1.075,55.22962,210.93178,920.87366,130.96547,247.65054,914.21167,175.00662,161.82304,917.63635
131,1.083,54.54259,210.71852,920.83038,130.7415,247.3511,914.15002,174.48509,160.47945,917.04297
132,1.092,54.41271,210.17746,920.67291,130.7549,247.47926,914.49652,175.00107,159.64644,917.20245
133,1.1,54.25595,209.68182,920.45306,130.70673,247.11572,914.57385,174.53226,159.77922,917.8689
134,1.108,54.31243,209.72459,920.64514,130.73775,246.95975,914.62103,174.18462,159.74432,918.24347
135,1.117,54.173,208.75412,920.61603,130.45013,246.5714,914.70404,174.62877,159.35675,918.40521
136,1.125,54.32595,208.57135,919.82556,130.53291,246.77614,915.09906,174.46732,159.4472,918.27014
137,1.133,54.36505,208.41187,919.65704,130.61108,246.3923,915.34589,174.61009,159.01843,918.37531
138,1.142,54.47586,208.09972,919.68231,130.51514,246.86771,915.4726,174.77156,158.92799,918.51038
139,1.15,54.40655,207.94188,919.86176,130.56348,246.68869,915.3252,175.02211,159.03642,917.92261
140,1.158,54.25663,208.4135,920.00507,130.72397,247.15732,915.46216,175.21986,158.97508,919.03668
141,1.167,54.32642,208.60577,919.92529,130.95499,247.32327,915.22638,174.46022,160.03246,918.61737
142,1.175,54.7119,208.98564,919.76385,130.79976,247.34993,914.9563,174.77115,160.90332,918.61029
143,1.183,54.34954,209.35922,920.52979,131.06136,247.42847,914.94659,174.35793,161.15643,918.96442
144,1.192,54.12044,209.70309,920.42822,130.52904,247.61757,914.81305,175.46704,163.23056,919.92413
145,1.2,54.17786,210.03195,920.77515,130.44238,247.246,914.41046,174.19809,162.81683,921.27228
146,1.208,54.14565,210.38705,921.03583,130.32306,247.26021,914.4231,175.23106,162.91216,920.47693
147,1.217,53.96044,210.13049,921.18073,130.48051,247.45778,914.27802,174.15039,162.56979,921.54883
148,1.225,53.20816,210.47835,921.17419,130.48051,247.45778,914.27802,174.09805,163.08456,920.64478
149,1.233,53.26557,210.35542,921.30286,130.43509,247.09727,914.38739,173.89162,162.67476,920.77924
150,1.242,53.03756,209.87923,921.30377,130.43509,247.09727,914.38739,174.63333,162.37985,920.1181
151,1.25,52.91502,209.99716,921.04913,130.14751,246.70897,914.4704,175.09918,161.29097,918.93365
152,1.258,53.04775,209.14803,920.99548,130.14751,246.70897,914.4704,175.20978,161.05495,918.13318
153,1.267,53.66411,208.85013,921.01581,130.30145,246.4099,914.36908,175.20978,161.05495,918.13318
154,1.275,53.93945,208.50206,920.97021,130.3287,246.34178,914.43335,175.05112,161.17766,918.94366
155,1.283,53.93945,208.50206,920.97021,130.48643,246.03227,914.70404,175.05112,161.17766,918.94366
156,1.292,53.80893,208.25989,920.78052,130.39252,246.20161,914.79163,174.86783,160.78838,918.67035
157,1.3,54.16635,207.83475,920.61981,130.39252,246.20161,914.79163,174.04358,159.16611,918.33026
158,1.308,54.38408,207.61748,919.80756,130.39252,246.20161,914.79163,173.50793,159.11661,918.40356
159,1.317,54.18435,207.54286,919.73761,130.29782,246.58757,914.91644,174.30621,159.80858,917.89771
160,1.325,54.10083,208.12465,920.59381,130.29817,246.66208,914.64496,172.92516,159.15662,918.22668
161,1.333,53.97396,208.60854,920.74622,130.20677,246.64244,914.52557,172.99911,159.04329,917.82593
162,1.342,53.6739,208.91667,920.76874,130.04457,246.74918,914.45245,172.97253,159.23689,918.03802
163,1.35,53.6739,208.91667,920.76874,130.04457,246.74918,914.45245,172.84564,159.30841,918.55078
164,1.358,52.88107,209.48824,920.9079,129.84253,246.96657,914.45264,172.77983,159.61497,918.33875
165,1.367,52.93555,209.85123,920.91351,129.84253,246.96657,914.45264,173.07552,162.28818,920.91821
166,1.375,52.73071,209.90131,921.00214,129.69191,246.73901,914.33667,173.07552,162.28818,920.91821
167,1.383,52.4475,209.80588,920.97699,129.69191,246.73901,914.33667,173.07552,162.28818,920.91821
168,1.392,52.41556,209.90012,920.8988,129.35069,246.70389,914.16565,174.01869,161.33563,920.08093
169,1.4,52.40594,209.62071,921.05664,129.14204,246.53647,914.10077,172.74844,161.23788,920.94464
170,1.408,52.27505,209.68138,920.95105,128.90225,246.19205,914.0304,172.74844,161.23788,920.94464
171,1.417,52.39307,209.44293,920.97137,128.90225,246.19205,914.0304,173.10765,160.58972,919.95538
172,1.425,52.28888,209.28214,920.98004,128.90225,246.19205,914.0304,172.93224,160.68552,919.7948
173,1.433,52.19621,208.89204,921.26727,128.98944,245.95959,913.96429,173.98509,160.54089,918.6814
174,1.442,52.24358,208.8232,921.13916,129.1347,245.10468,913.9447,172.41832,160.22537,919.49011
175,1.45,52.1491,208.4209,920.94238,128.70656,244.43549,914.20142,172.24742,160.36455,919.1167
176,1.458,52.27547,208.2256,920.73993,128.61099,244.64117,914.69397,172.30295,160.02495,918.74469
177,1.467,52.6106,207.07697,919.43219,128.79672,244.89726,914.87756,171.18906,158.39304,918.89215
178,1.475,52.7602,206.84108,919.56696,128.83522,245.13914,914.97083,172.24742,160.36455,919.1167
179,1.483,52.7602,206.84108,919.56696,128.85681,245.66879,914.94983,171.49078,158.53036,919.39532
180,1.492,52.7602,206.84108,919.56696,128.86272,245.80431,914.98633,171.18237,159.08246,919.6972
181,1.5,52.63132,207.72441,919.65894,128.52739,246.71695,915.1499,172.5368,158.29793,919.05249
182,1.508,52.69267,208.56392,920.24762,128.64963,247.04544,915.06799,172.92871,158.36024,918.12976
183,1.517,52.69267,208.56392,920.24762,128.75044,247.06424,915.02539,171.94804,159.15225,918.87274
184,1.525,52.27952,209.26207,921.10791,129.35532,247.40736,914.85028,173.07552,162.28818,920.91821
185,1.533,52.27952,209.26207,921.10791,129.35532,247.40736,914.85028,173.69205,162.2597,919.94495
186,1.542,52.27952,209.26207,921.10791,129.47768,247.18159,914.48645,172.80005,163.36534,920.86688
187,1.55,52.40594,209.62071,921.05664,129.47768,247.18159,914.48645,172.80005,163.36534,920.86688
188,1.558,52.47475,209.83411,921.23383,129.32704,246.95407,914.37048,173.69205,162.2597,919.94495
189,1.567,52.47475,209.83411,921.23383,129.32704,246.95407,914.37048,172.80005,163.36534,920.86688
190,1.575,52.16151,209.50053,921.08752,129.16135,246.97632,914.27509,172.80005,163.36534,920.86688
191,1.583,52.16151,209.50053,921.08752,128.95268,246.80891,914.21027,173.83,162.04082,919.85931
192,1.592,52.16151,209.50053,921.08752,128.28094,246.68431,914.40497,173.35873,161.43106,919.01819
193,1.6,52.15802,209.34282,920.87445,128.1927,246.59712,914.23596,173.14507,160.80878,918.69171
194,1.608,52.06413,209.37935,920.76788,128.2599,246.55482,914.37469,172.53571,161.30389,918.72742
195,1.617,51.99797,209.12964,920.77618,127.64329,246.67828,914.37756,172.14046,160.86952,919.9035
196,1.625,52.24237,209.24983,920.74524,128.13484,246.16339,914.38666,172.47397,160.86255,918.5235
197,1.633,52.62383,208.10858,919.85034,128.09552,246.24437,914.50208,172.47397,160.86255,918.5235
198,1.642,52.40825,208.00885,919.14655,128.17354,246.52312,914.6142,172.44164,162.2513,918.88184
199,1.65,52.65175,208.12607,918.85779,128.34424,246.25308,914.42737,173.4025,162.48232,918.55682
200,1.658,52.80486,208.58073,918.96185,128.28728,246.51631,914.5094,172.87975,161.97159,919.42462
201,1.667,52.90121,208.72148,919.10492,128.68643,247.00645,914.5708,172.5414,162.44963,919.52356
202,1.675,53.01173,208.75999,919.30566,129.23224,247.18625,914.52716,172.9306,162.15814,919.62512
203,1.683,53.15735,209.36584,920.19012,129.06656,247.20851,914.43182,174.00305,163.65062,919.59589
204,1.692,52.79592,209.87254,920.24274,129.04245,247.15405,913.90533,172.62175,163.8997,920.61218
