Frame#,Time,R.Forearm.x,R.Forearm.y,R.Forearm.z,R.Ulna.x,R.Ulna.y,R.Ulna.z,R.Radius.x,R.Radius.y,R.Radius.z
1,0,1103.09766,242.79951,973.56787,1144.52588,264.33347,889.24335,1080.64502,190.16704,833.72992
2,0.008,1099.54114,241.80678,972.64667,1140.21118,261.84442,888.33502,1079.73206,189.08916,832.59631
3,0.017,1097.40088,241.75009,972.00885,1137.18176,262.99185,888.25836,1078.46851,190.1844,830.59283
4,0.025,1093.45935,243.19125,972.83313,1134.66687,263.82135,888.23633,1075.896,189.66426,832.52875
5,0.033,1089.10229,241.8243,970.82263,1131.24292,260.93466,888.10034,1073.6571,188.06621,830.87183
6,0.042,1086.95728,242.57352,970.15314,1128.32166,261.74072,887.60431,1070.18762,187.0762,830.5769
7,0.05,1084.50684,240.78537,970.30511,1126.09717,261.01471,886.93396,1068.46118,186.23427,829.44415
8,0.058,1080.28101,239.76842,969.78693,1122.72778,261.76779,886.75348,1067.44849,186.49672,829.29968
9,0.067,1078.82129,239.54314,969.12134,1119.172,259.85873,886.47137,1063.07141,186.2756,828.44537
10,0.075,1075.29602,239.94533,968.75482,1115.9231,259.83414,886.36749,1059.78235,185.69228,828.52252
11,0.083,1072.13513,237.93861,968.44458,1113.54944,260.20743,886.35095,1058.10474,185.15437,828.45972
12,0.092,1069.44519,237.92731,967.94006,1110.10449,259.78494,886.50336,1054.63708,186.18158,828.19324
13,0.1,1066.13782,237.56485,967.89874,1106.07678,259.03912,884.84076,1051.48413,185.51863,828.04645
14,0.108,1062.97375,235.91733,968.23303,1103.97717,259.22769,885.27435,1048.76086,184.01076,827.69312
15,0.117,1060.29895,235.20277,968.60297,1101.55371,259.45639,885.36316,1046.63171,184.34586,827.82434
16,0.125,1058.10046,235.16507,966.74377,1098.12048,258.16544,884.62006,1043.23083,184.20038,827.20984
17,0.133,1054.83508,234.77165,967.23834,1095.08472,258.272,884.8172,1038.1958,183.49661,827.36383
18,0.142,1050.14758,234.85001,966.83295,1092.40503,258.57394,884.60748,1035.33582,184.17107,826.65613
19,0.15,1047.91663,236.04085,966.51849,1089.92688,257.76584,884.80896,1034.50867,184.20189,826.15497
20,0.158,1046.35986,235.74979,965.78674,1086.87256,256.95514,884.13953,1029.79834,185.99077,825.86237
21,0.167,1041.88757,233.77202,968.04822,1083.83032,257.51443,883.7243,1024.95813,184.08255,825.99127
22,0.175,1039.06909,234.60634,966.75165,1081.46533,257.27527,883.99072,1023.14099,184.67563,825.36975
23,0.183,1036.72363,234.52264,966.88239,1078.42163,255.94159,883.72101,1021.14404,183.67244,825.58209
24,0.192,1033.63,233.91722,966.80304,1074.88843,256.15283,883.67493,1016.92883,186.59161,825.29828
25,0.2,1029.9762,232.78592,966.13324,1072.57971,256.12671,884.00275,1012.29205,184.31921,825.56403
26,0.208,1026.6748,234.73106,965.63763,1070.02734,256.52783,883.51929,1011.75977,184.16258,825.59015
27,0.217,1023.97809,235.36815,966.12427,1066.79932,255.29962,883.55713,1007.81244,185.86497,825.30994
28,0.225,1019.77521,233.23074,966.57709,1063.30701,254.7256,883.99353,1002.03986,185.12094,824.32214
29,0.233,1016.39551,233.64259,966.56012,1060.70923,255.34555,883.77972,1000.16473,184.03426,824.57184
30,0.242,1013.3985,233.69798,966.68976,1056.76917,254.64783,883.86053,998.55139,184.80266,824.74518
31,0.25,1009.8847,231.72218,966.83075,1053.23511,254.37126,883.90753,994.63916,186.23357,824.48071
32,0.258,1007.34314,231.327,967.08844,1050.13171,253.9498,885.24194,990.52429,183.51492,824.04327
33,0.267,1004.45764,230.24577,967.62396,1046.3468,252.65565,885.45154,989.39252,183.22148,825.12848
34,0.275,1000.93115,228.72762,968.03436,1043.5885,252.51768,886.60419,983.96582,182.22018,825.86969
35,0.283,998.47784,227.9016,968.2121,1039.81165,252.75877,886.68237,982.12634,180.90695,827.13165
36,0.292,992.93011,225.53247,970.12445,1035.95801,251.23012,887.32745,979.83917,180.86363,827.16925
37,0.3,989.71954,225.27586,970.04883,1033.11096,250.90233,888.50775,979.15314,180.01688,827.90027
38,0.308,985.70001,223.2822,969.98657,1028.41589,249.57858,889.7431,974.15363,178.2243,827.27509
39,0.317,983.50592,222.89539,970.91644,1024.8512,249.7251,890.65881,972.76263,178.45146,827.36652
40,0.325,980.43378,221.63507,970.75586,1022.35974,249.27339,891.24359,972.1087,177.46994,828.53522
41,0.333,976.125,221.0327,970.87164,1018.81921,249.23785,891.51202,964.42523,175.52548,828.99127
42,0.342,973.72693,220.0013,971.35223,1015.18713,247.97812,891.97949,961.90759,177.20589,828.22314
43,0.35,969.5907,218.00623,973.52716,1011.91888,248.15016,893.04529,958.77698,176.39755,830.11273
44,0.358,966.32898,218.11465,973.31976,1008.75439,246.65256,892.92352,954.08209,175.41446,830.06152
45,0.367,963.25281,219.53944,974.19141,1005.78149,246.78006,893.70728,952.44482,175.34428,830.40045
46,0.375,958.7027,217.47531,974.53162,1002.19781,246.35965,895.12921,947.07806,173.98062,831.54944
47,0.383,956.81201,217.52762,974.59998,999.36688,243.77998,894.89258,946.29272,173.46188,831.48499
48,0.392,953.89093,217.4791,974.13849,997.18799,242.76678,894.33411,942.29919,174.10356,831.70813
49,0.4,949.21582,216.90079,974.63965,994.16364,242.50569,894.93512,936.82013,172.90604,831.94659
50,0.408,946.91205,216.08862,976.68304,990.6933,240.66273,895.62683,934.36926,172.34637,831.94873
51,0.417,943.40607,215.3598,977.58997,987.41046,240.81837,895.52765,932.39532,172.22537,831.71826
52,0.425,940.74481,213.64944,977.92224,985.93024,240.75491,897.04132,929.14722,171.26646,833.13989
53,0.433,937.91278,213.26227,977.75427,981.86401,238.85483,897.82855,923.1958,172.52048,835.19641
54,0.442,935.09705,212.37836,978.67426,978.77777,238.79053,898.66754,920.76056,171.73502,834.64673
55,0.45,932.04205,210.75905,978.5976,977.02026,239.28473,898.77625,916.4549,170.51242,835.28943
56,0.458,928.95624,211.18576,978.93127,973.84033,236.59877,898.42102,911.8399,171.65517,834.57635
57,0.467,926.15491,210.60425,978.63684,971.6123,235.77141,898.89014,908.31122,170.80151,835.38934
58,0.475,923.79468,209.46387,978.72211,970.09021,233.91096,899.24445,905.02032,169.59969,835.35547
59,0.483,921.57483,208.47755,978.84308,965.80786,232.38733,899.07288,903.23553,169.52855,835.58362
60,0.492,918.61823,207.82063,979.53503,963.88086,230.43991,898.74957,898.04199,168.13254,836.14319
61,0.5,916.38855,206.23219,979.47321,961.52075,229.6378,898.74493,895.1073,167.90512,835.70361
62,0.508,914.21893,206.16982,980.07336,957.26691,228.95486,898.63342,893.21124,166.38889,835.89087
63,0.517,909.67346,203.95372,980.11688,954.11584,227.16881,898.25983,890.02356,164.86345,836.77319
64,0.525,907.04785,203.37151,981.12476,950.98212,227.07428,898.08459,887.61316,160.78233,836.07886
65,0.533,903.56824,201.95197,981.29443,948.20856,225.59554,898.88428,885.60193,159.93542,837.57977
66,0.542,901.21399,200.78612,981.15668,944.30872,224.50267,900.08197,884.06396,159.31374,838.58942
67,0.55,897.97662,199.25243,981.88214,940.40857,224.42767,901.51105,881.34369,155.55035,838.33191
68,0.558,895.5401,197.44186,982.76801,937.12836,222.02103,901.21765,879.11914,155.29218,838.31244
69,0.567,891.75183,196.94931,982.14783,934.5542,222.07245,901.35339,875.41492,154.09366,838.6593
70,0.575,887.73749,194.24942,982.91144,929.9079,221.20947,901.60822,872.47662,153.29733,838.81982
71,0.583,885.62036,193.91734,983.18103,927.09937,220.59785,901.69891,870.69263,152.30449,838.60358
72,0.592,882.21393,193.50798,983.84625,924.51636,220.83707,901.54034,865.75977,151.06393,838.90961
73,0.6,878.4953,193.02505,983.39612,921.59998,220.21533,901.68097,864.84515,151.03157,840.00232
74,0.608,875.74561,193.57521,984.05457,917.59076,219.05237,902.02771,862.52704,152.35208,838.9353
75,0.617,874.3526,194.67024,983.54321,915.97729,219.23032,901.2677,859.08899,151.03714,839.92242
76,0.625,870.38599,193.77007,983.06409,913.63593,220.06335,901.71149,855.82922,150.20348,838.77582
77,0.633,866.80914,193.37286,982.56873,911.36792,220.32269,900.92627,852.67267,151.06488,839.62061
78,0.642,865.45874,193.17369,982.60614,907.75531,219.38446,901.01984,849.62335,152.33408,839.18298
79,0.65,862.02222,194.73776,981.72784,905.54822,219.44772,900.76941,848.73425,153.6201,838.18524
80,0.658,858.75391,197.51405,981.80304,903.85876,219.89619,900.77533,841.95642,153.21982,838.08356
81,0.667,856.37451,196.504,981.67908,901.25934,220.58174,900.68268,839.84943,154.19463,837.79034
82,0.675,853.0719,195.71115,981.51697,899.69501,219.98965,899.79041,839.09015,154.62985,836.49292
83,0.683,849.97778,197.8965,980.78259,895.86829,220.66425,899.73981,832.80341,157.04979,836.99329
84,0.692,847.26532,198.13744,980.52753,894.6333,219.93585,899.32166,832.03546,157.05013,836.25732
85,0.7,844.92041,199.59483,980.30707,891.56201,220.91661,899.25745,826.75201,157.9133,836.0072
86,0.708,841.15601,199.61603,979.84442,889.69208,221.33994,898.94495,822.9848,157.92992,835.9693
87,0.717,838.4826,198.91739,979.66577,886.26465,220.76782,898.40039,822.51007,157.99677,835.9339
88,0.725,835.66223,199.10445,979.74799,882.49628,219.95616,898.3371,819.27051,157.28566,835.52966
89,0.733,833.14832,200.258,979.67657,879.49518,220.16798,897.65686,817.39777,156.0605,834.79083
90,0.742,829.88867,199.53177,979.30811,877.30548,221.73204,897.98322,816.40039,154.88051,834.4834
91,0.75,826.48694,198.37514,979.29694,872.35571,221.53879,897.63879,812.5929,154.95038,834.43457
92,0.758,823.03406,198.68187,978.95746,868.52179,222.14119,897.78802,810.26239,154.28163,834.43176
93,0.767,818.43146,197.84151,978.4787,864.81519,223.60844,897.61963,808.43182,152.6828,834.81421
94,0.775,815.9812,197.85945,978.11987,860.72083,224.29529,897.05811,808.51343,152.8073,833.96716
95,0.783,813.34003,198.53337,977.9043,855.79095,223.63617,897.28394,804.53906,154.07495,834.17029
96,0.792,807.39362,198.18559,977.48883,852.06805,225.70645,896.13641,800.74713,154.45598,833.42322
97,0.8,804.89752,198.4711,977.26733,848.97089,226.26509,896.18726,796.66272,154.56247,832.99335
98,0.808,801.64337,199.03767,975.66754,844.505,227.87772,895.96759,794.52032,155.21135,832.6521
99,0.817,797.17133,200.59824,975.53644,840.74438,228.5164,895.30493,792.86652,156.22653,832.08044
100,0.825,791.85034,201.18779,974.8454,836.78912,229.5094,895.21777,789.20154,157.41838,831.73694
101,0.833,789.80585,201.94456,974.49609,833.32458,230.19695,894.43549,783.9967,158.90012,830.85443
102,0.842,785.18683,205.26469,972.1236,830.56647,232.04648,893.62354,779.54065,159.88367,830.61371
103,0.85,783.13617,205.45389,971.78888,827.02655,233.34593,892.8681,776.1767,161.44099,830.47406
104,0.858,778.34277,209.60017,971.50293,823.28412,235.06271,892.07581,773.78412,162.40488,827.89868
105,0.867,775.97723,210.3069,970.42023,820.35559,235.85135,891.64844,769.84906,165.43845,825.68152
106,0.875,770.70874,211.84573,969.57306,816.65088,236.50601,890.22412,760.76434,166.43275,825.15515
107,0.883,766.69525,214.18974,968.35394,814.18073,236.76424,889.77734,758.45038,168.15944,825.76013
108,0.892,763.62,216.62608,968.77545,810.49432,239.88,889.4057,752.84418,169.90492,824.41125
109,0.9,759.20276,217.63774,967.83185,807.28937,241.24092,887.74915,747.896,173.09467,823.23383
110,0.908,756.01276,218.46902,967.06775,803.88324,240.84962,886.9718,745.05365,174.69469,824.0954
111,0.917,752.17004,221.07767,967.14392,800.28851,241.15009,886.61194,739.04254,174.60402,823.83588
112,0.925,748.41437,222.42999,966.7392,796.73108,242.1351,886.55206,736.03741,175.16504,822.69623
113,0.933,744.58533,222.84052,966.56622,793.34106,242.65186,886.35394,732.03967,177.01135,822.72772
114,0.942,740.49658,222.94063,966.84979,788.13989,241.54893,885.35962,727.11389,174.48193,822.82629
115,0.95,737.23938,223.18324,966.25134,783.88623,243.08862,886.14209,725.73944,174.6089,823.74823
116,0.958,731.79486,222.88452,965.94562,779.39331,244.16313,885.72461,721.67401,175.67888,822.71155
117,0.967,727.70142,222.8911,965.84497,774.17181,243.12355,886.07367,718.43079,175.06226,822.31433
118,0.975,723.5459,221.97115,965.55499,769.3717,245.02034,885.36584,717.02051,174.32697,821.94775
119,0.983,719.06299,221.6743,965.76862,764.17194,247.40836,885.33685,711.7049,174.41862,821.37427
120,0.992,715.22791,221.22758,965.58264,759.11139,246.66103,884.26154,708.63489,174.18863,821.55457
121,1,710.685,221.96164,965.37451,754.71393,248.68591,884.44153,705.75403,174.70595,822.44299
122,1.008,707.45294,222.03288,964.38843,750.72485,248.38313,885.10791,703.05518,176.31816,821.2489
123,1.017,702.44043,222.56755,965.28052,746.35394,248.09915,885.16577,697.03235,174.42099,822.01843
124,1.025,699.99121,222.2471,965.71588,741.80524,251.28073,884.63263,696.05969,175.6665,822.00909
125,1.033,695.99725,224.77501,965.42731,739.11664,251.56528,884.74536,690.39148,177.37492,822.72101
126,1.042,691.948,225.93642,966.01801,735.52753,252.34454,884.81091,686.65442,177.53067,823.66516
127,1.05,687.83374,227.07204,965.88116,730.99017,254.37772,884.46564,681.87024,178.20743,823.6947
128,1.058,684.3335,229.07657,965.57507,727.37421,254.22661,885.10034,679.68042,180.44777,823.9942
129,1.067,680.05896,230.93105,966.28467,724.99213,254.67551,885.01184,675.02075,181.74756,823.3681
130,1.075,676.3186,232.06816,966.16266,720.77124,256.65134,885.05054,668.61932,183.25772,823.88043
131,1.083,673.25378,233.90955,966.57648,718.7215,257.97064,885.21033,666.04913,184.81448,823.42151
132,1.092,669.2807,235.05753,966.5163,714.20343,258.06201,885.56995,660.8161,186.16843,824.17291
133,1.1,665.70325,237.34492,967.8064,710.6767,259.19025,886.40826,656.11279,187.25316,824.04865
134,1.108,661.87018,238.97806,968.23163,707.61169,259.90521,886.88696,651.8985,189.54358,825.88873
135,1.117,658.27698,240.57323,968.17029,704.73322,260.8287,887.9892,647.46722,188.77237,826.48047
136,1.125,654.74933,242.10399,968.08685,701.19934,260.27176,887.84064,645.69446,189.54784,826.17548
137,1.133,651.40601,240.27324,968.08594,696.83551,260.59915,887.65106,641.04315,190.61673,826.62347
138,1.142,646.52466,241.59496,968.24603,692.46637,261.75342,886.74731,639.6488,189.23399,826.64313
139,1.15,642.4082,240.63899,968.83453,687.77734,262.29404,886.99133,636.89258,187.52335,826.51929
140,1.158,639.09149,239.16833,969.09784,682.06781,263.81006,887.67914,632.49646,186.70044,826.34436
141,1.167,634.10236,238.64703,968.85193,676.93689,263.59097,887.70819,631.99915,187.06674,826.70557
142,1.175,630.24176,237.99248,970.48102,671.54303,264.3989,888.21991,627.63568,186.62538,826.38312
143,1.183,626.46216,237.1965,969.70587,667.5932,265.22711,888.37451,627.00055,187.11423,825.96161
144,1.192,621.12866,238.02937,969.60107,662.0116,266.62036,889.52045,619.73297,186.58597,827.51929
145,1.2,618.70551,237.95596,969.89655,657.68988,266.34442,889.87262,616.46436,187.05124,828.25311
146,1.208,614.54999,237.5278,970.14661,652.6911,269.10043,889.89355,613.24432,188.51936,829.15417
147,1.217,610.93695,237.72975,970.19067,648.96948,268.76477,889.94385,609.51746,188.21265,828.59973
148,1.225,607.15448,238.7341,971.1684,645.50684,269.79892,889.74146,604.10138,190.38048,828.69232
149,1.233,603.40479,239.92824,970.64575,640.52515,270.90506,889.16858,600.09259,190.29739,828.62244
150,1.242,598.84613,242.02138,971.15845,637.95813,272.10571,889.28149,595.01917,192.27863,829.0802
151,1.25,596.13458,244.20212,969.95483,633.82129,272.66449,889.55719,590.48889,192.14027,828.58954
152,1.258,591.64478,246.26825,970.46368,631.48151,273.20444,889.0813,586.14807,194.10429,828.1781
153,1.267,589.00989,249.50134,969.76361,629.04315,274.81647,888.5899,580.02112,196.59161,827.75964
154,1.275,585.03699,250.4993,969.61304,625.26874,274.96667,887.95294,578.52466,197.48685,828.3573
155,1.283,582.59851,252.48132,969.40326,623.87317,275.73669,887.34161,570.21149,200.71144,828.12231
156,1.292,579.91254,253.75328,969.14752,621.61621,276.29282,886.80823,566.57709,202.30888,827.31696
157,1.3,575.27771,255.83279,968.26855,618.98254,275.79422,886.28693,560.54694,203.75171,827.90625
158,1.308,572.79553,257.39746,968.55249,616.62433,276.17255,886.1701,558.3252,204.52176,826.7832
159,1.317,570.22327,256.73676,968.12781,613.60437,275.3833,886.21228,553.76801,205.00677,826.1441
160,1.325,566.97565,258.68076,968.302,610.85706,275.46405,886.17169,551.05072,205.1888,826.59296
161,1.333,563.88995,258.51065,966.94617,608.27063,275.03787,885.35358,548.35791,204.50615,826.5213
162,1.342,560.44244,256.79361,966.26324,603.53729,275.29941,883.97906,547.74536,203.04099,824.96436
163,1.35,557.93567,255.42967,965.81683,598.78552,275.04315,884.44788,545.16302,201.73933,825.14722
164,1.358,553.41956,254.32756,965.71973,594.70526,274.452,884.45587,543.37567,199.39815,825.71301
165,1.367,549.72974,252.24701,965.01117,590.71613,273.95105,884.24158,541.31085,197.11168,824.68872
166,1.375,547.46478,248.84009,965.12946,586.35577,273.97385,883.96936,541.65485,195.73953,824.13214
167,1.383,543.25,246.57838,965.07648,581.89728,273.5589,883.79425,539.07495,194.4422,824.31573
168,1.392,540.27264,245.77342,964.96527,577.91565,273.31439,883.59058,535.32275,193.72232,824.13654
169,1.4,536.07898,243.96745,964.47345,574.28955,273.58401,883.18115,535.25714,193.00751,823.59125
170,1.408,533.95007,241.80066,964.36682,570.09778,273.86615,883.33795,532.14526,192.90108,822.2962
171,1.417,530.02747,241.67207,963.5929,567.33691,273.22513,882.66223,530.98462,192.84761,822.8526
172,1.425,526.02429,241.79796,963.5816,564.24762,273.01862,882.65839,525.85938,192.76369,822.49042
173,1.433,525.06458,241.57133,963.17468,561.38794,273.5712,882.62622,524.94434,191.96426,821.68988
174,1.442,521.43079,241.92528,962.83417,558.49707,273.52603,882.84326,523.46973,192.28226,821.51752
175,1.45,517.36481,243.73341,962.69861,555.82617,273.81949,882.69885,516.13428,192.97929,821.79895
176,1.458,513.82355,243.76025,962.65295,552.92993,273.30042,882.26233,513.09998,193.05565,819.57013
177,1.467,512.74707,244.90643,962.46558,550.89557,274.45178,880.84668,510.59509,194.23586,820.66541
178,1.475,508.77881,245.62321,962.46545,549.18164,274.93167,881.16827,503.67221,194.83194,820.953
179,1.483,504.56427,246.28667,961.52509,547.14081,274.31671,881.09637,500.77832,195.89957,819.85028
180,1.492,502.69562,248.90562,961.44641,544.2334,274.30679,880.90863,495.98508,199.00708,819.87988
181,1.5,499.34543,249.96858,961.65051,542.65253,273.88538,880.45007,491.97186,199.12396,820.289
182,1.508,495.65765,251.04054,962.06372,539.71442,274.32944,880.74103,487.85092,200.07446,819.87531
183,1.517,494.40247,251.16397,961.99664,538.96136,272.90424,880.50684,483.87875,201.62494,819.20123
184,1.525,492.1615,252.80972,961.76678,535.7951,272.32867,880.80182,480.75296,202.53246,819.68817
185,1.533,487.22198,252.53696,962.27814,534.08514,271.64182,880.89886,476.69052,202.08566,820.73553
186,1.542,485.01703,251.567,962.21191,530.0235,271.46973,881.63013,475.2095,200.44992,819.91083
187,1.55,481.99237,250.37805,962.22437,525.84125,271.24377,881.77802,471.74783,198.06711,820.19531
188,1.558,477.79538,249.18149,962.32178,521.98328,270.62357,881.84033,468.94455,197.82794,820.36591
189,1.567,474.64462,246.58081,963.63208,517.11548,269.88254,883.01917,468.94455,197.82794,820.36591
190,1.575,470.87671,243.52852,963.41473,513.17517,269.0965,883.11334,464.98621,195.44075,820.91016
191,1.583,467.63974,241.73833,964.55841,508.379,269.34113,883.62231,464.26938,192.77371,820.89526
192,1.592,463.77142,238.63626,964.81903,503.2558,268.99402,884.09418,461.94037,191.59222,821.39417
193,1.6,459.57239,236.40111,965.8623,498.99146,268.40167,884.67505,459.0665,190.16081,821.59039
194,1.608,456.35727,234.22482,966.51007,495.26721,268.19623,886.60443,456.41446,189.03221,822.68933
195,1.617,453.3996,233.61453,967.05737,491.0444,267.32495,887.75873,454.67889,190.2382,823.28992
196,1.625,449.68753,231.85316,967.67584,487.31085,266.86929,888.54156,449.39957,189.80835,823.99188
197,1.633,445.53925,231.76944,968.85327,484.54684,268.02609,888.88263,447.2662,188.69516,824.15759
198,1.642,442.64804,232.40646,968.91168,480.65723,267.21713,889.73517,443.45273,188.96886,824.78821
199,1.65,439.40607,230.52974,969.69171,477.26639,266.89304,890.8844,439.73907,188.85974,824.90094
200,1.658,436.28329,232.24956,970.69025,474.51636,266.14355,892.03204,435.38489,188.93924,826.59161
201,1.667,432.78778,232.18909,971.87811,472.00494,265.84616,892.6098,431.26071,188.63675,827.55737
