Frame#,Time,R.Forearm.x,R.Forearm.y,R.Forearm.z,R.Ulna.x,R.Ulna.y,R.Ulna.z,R.Radius.x,R.Radius.y,R.Radius.z
1,0,1571.07202,313.6889,1131.59326,1594.47827,337.62949,1016.19824,1530.35278,271.54651,957.25891
2,0.008,1563.84692,312.84229,1132.77917,1588.87097,337.7612,1016.73608,1521.73669,270.36642,957.29053
3,0.017,1556.17542,313.69675,1133.59656,1580.151,336.81042,1017.52509,1511.38354,273.77234,958.92047
4,0.025,1546.48315,313.36926,1132.01611,1572.60156,336.30893,1017.16913,1501.18311,277.82614,960.31488
5,0.033,1538.17224,315.11108,1131.71838,1564.95764,336.96942,1016.33258,1492.16626,278.55228,959.49054
6,0.042,1531.49487,313.44812,1133.36694,1557.3623,336.38715,1016.65021,1482.75232,281.74878,959.27399
7,0.05,1523.03894,316.07568,1133.58069,1548.61047,336.75711,1015.79742,1474.47949,282.34988,959.63892
8,0.058,1514.24292,317.40161,1132.65442,1540.63184,340.07034,1015.38538,1465.62903,285.57736,958.96387
9,0.067,1507.56482,316.50302,1131.94043,1532.38208,339.56494,1015.59271,1457.24011,284.92258,959.57129
10,0.075,1496.74146,317.85309,1132.10596,1523.14551,341.55484,1016.17438,1450.77136,284.27176,958.67548
11,0.083,1488.11646,319.34695,1133.0918,1514.34351,341.83264,1017.6449,1444.03601,282.2511,957.93365
12,0.092,1477.71887,319.75403,1133.6709,1504.94275,343.54486,1017.18042,1436.71045,280.15234,957.01538
13,0.1,1468.16235,319.93286,1132.80151,1493.39868,343.98627,1016.49438,1429.08618,278.51364,956.78735
14,0.108,1459.93713,318.29816,1132.36279,1483.34241,345.06662,1016.36786,1424.96106,274.69305,956.09735
15,0.117,1451.82263,315.56131,1131.91125,1472.64453,345.44067,1016.86267,1417.13391,271.93381,955.04095
16,0.125,1442.21289,313.09485,1131.08606,1463.95325,344.23071,1016.71362,1410.28662,269.29645,954.30231
17,0.133,1434.65637,312.29349,1130.89246,1454.47986,344.63007,1015.99768,1405.77051,266.67935,953.98669
18,0.142,1427.07227,309.43259,1129.9939,1444.34375,344.36438,1015.24121,1397.71045,266.42853,953.20813
19,0.15,1417.89832,310.47324,1129.66516,1434.76624,344.13812,1015.88641,1391.93347,264.19516,952.62183
20,0.158,1410.36572,307.50598,1129.29602,1427.28088,343.01019,1014.32263,1384.81519,262.8992,951.95856
21,0.167,1404.27197,307.33701,1128.54675,1419.26538,343.09619,1015.43579,1377.36206,262.4071,951.51068
22,0.175,1396.75024,306.92596,1128.5907,1411.89746,341.92993,1015.01941,1369.69116,261.20377,951.09564
23,0.183,1389.23474,306.88605,1127.64978,1406.37415,341.5997,1014.37415,1362.30823,260.40814,950.40503
24,0.192,1382.56677,307.25125,1126.84973,1401.04907,340.10373,1013.96619,1354.01733,260.8862,950.22052
25,0.2,1376.80981,305.51251,1126.2395,1393.3999,338.98279,1011.7066,1347.92981,258.759,949.86664
26,0.208,1371.0271,304.15466,1125.99426,1387.64929,337.92111,1011.43195,1338.2489,259.32236,948.42444
27,0.217,1363.68469,302.47662,1124.68213,1381.54724,336.78812,1010.65576,1330.20325,259.60611,949.46167
28,0.225,1357.80359,302.0452,1124.0929,1376.23828,334.18188,1010.26733,1322.7323,258.89325,948.31635
29,0.233,1350.93518,300.4895,1123.88477,1370.10486,331.14301,1009.38385,1313.521,260.90778,948.08661
30,0.242,1345.24451,299.2128,1123.85278,1364.98071,329.47656,1008.93854,1304.24133,261.44153,947.8656
31,0.25,1338.04456,296.0321,1123.53003,1358.33704,328.87274,1007.91809,1295.15063,262.48505,947.11597
32,0.258,1331.78711,295.34201,1122.00793,1352.51196,326.92297,1007.66541,1286.90942,264.53525,947.54376
33,0.267,1326.16418,293.74615,1121.50342,1346.6991,325.86899,1006.88739,1279.41211,265.07205,947.15393
34,0.275,1318.255,294.42175,1121.39221,1340.64612,325.46179,1006.75525,1270.16174,266.50848,948.51392
35,0.283,1312.77832,293.08636,1121.66504,1334.12842,324.7254,1006.18384,1263.43091,267.87061,948.20587
36,0.292,1304.19226,292.91064,1121.47266,1327.61133,324.57187,1005.73419,1256.59448,267.30615,947.21008
37,0.3,1296.03528,293.35614,1121.92053,1321.42896,323.75296,1006.13159,1248.86255,265.48599,947.99591
38,0.308,1287.72119,294.22418,1121.36597,1313.39404,323.569,1007.25391,1243.21997,264.23828,947.95746
39,0.317,1279.71899,294.34677,1121.90381,1305.75122,322.54114,1007.59021,1237.30042,261.68762,947.68103
40,0.325,1271.65356,291.51349,1124.1687,1296.7511,322.25421,1009.97284,1230.78223,258.70013,947.2616
41,0.333,1262.53979,289.35526,1125.20422,1288.0979,321.51801,1011.11938,1226.11719,255.71693,947.81561
42,0.342,1254.76294,285.65378,1125.92383,1279.14758,320.42508,1013.34808,1221.052,251.48619,947.69067
43,0.35,1245.3468,286.08817,1127.53613,1270.47522,318.4968,1014.87756,1215.47876,248.52348,948.91608
44,0.358,1237.6427,281.72202,1130.64893,1261.94275,317.20554,1018.41815,1210.82715,247.08748,951.46533
45,0.367,1230.0011,279.40167,1131.79712,1253.99011,316.50439,1020.27252,1203.85254,244.38538,952.59277
46,0.375,1223.09863,276.14203,1132.86731,1246.41895,316.05701,1023.07794,1199.53857,240.4942,953.14777
47,0.383,1216.09265,273.68347,1135.66052,1239.27686,313.37726,1024.51367,1193.86096,239.60094,955.42426
48,0.392,1208.79102,273.55392,1135.84497,1233.98364,311.16858,1026.77539,1188.71545,236.14996,957.52753
49,0.4,1203.79333,272.02554,1137.99316,1227.58203,310.96359,1028.01672,1183.22742,235.78915,958.58636
50,0.408,1197.8866,269.96741,1139.89673,1222.62268,309.11688,1029.81958,1178.20984,234.2748,959.0578
51,0.417,1190.8125,269.15149,1140.17859,1218.5481,307.38312,1030.37915,1171.27185,235.45781,959.453
52,0.425,1185.28418,268.31937,1141.01794,1214.3396,306.43188,1031.44385,1165.53601,235.9272,960.55719
53,0.433,1179.94653,267.48318,1141.17102,1210.47083,305.23511,1032.61194,1160.09607,236.13104,961.20044
54,0.442,1174.95349,266.85648,1141.31506,1206.18628,302.99655,1032.80969,1153.82007,236.48027,961.15533
55,0.45,1170.58728,263.52518,1142.61755,1202.6593,302.01474,1031.83252,1146.95142,236.54135,961.41901
56,0.458,1165.40442,263.26529,1142.57666,1198.19031,299.31274,1032.00122,1139.55969,238.85645,961.93848
57,0.467,1158.95056,262.88611,1143.46814,1193.83435,298.7952,1032.1958,1129.35986,242.30745,962.71619
58,0.475,1153.01721,261.50699,1143.44885,1187.39917,296.9472,1033.26514,1123.51624,243.46939,963.29102
59,0.483,1145.02039,261.07495,1143.94568,1182.57434,295.5654,1033.16187,1114.11572,244.6899,964.63464
60,0.492,1140.52869,260.64169,1144.6051,1176.09851,295.25327,1033.37329,1106.95728,245.92029,965.76727
61,0.5,1132.96619,259.72559,1145.06763,1170.38342,294.3306,1034.22974,1099.43176,247.2986,966.42145
62,0.508,1127.61121,260.08536,1146.44995,1163.31824,294.98438,1035.68286,1092.29395,249.09253,967.32153
63,0.517,1120.49902,259.90857,1147.58411,1156.45654,294.55859,1036.87708,1085.08191,249.85742,969.45111
64,0.525,1114.78674,259.83618,1148.04187,1149.79639,295.42459,1037.65845,1077.48584,248.84663,970.37805
65,0.533,1106.68286,261.23721,1150.13586,1142.79749,295.39063,1039.23621,1071.95691,250.38974,970.96906
66,0.542,1099.43542,262.88306,1152.01563,1135.33801,298.06519,1040.29236,1063.54871,249.98846,973.51019
67,0.55,1092.54211,264.73895,1154.4436,1127.39099,298.62241,1042.66663,1058.43005,247.92596,975.27905
68,0.558,1085.44519,265.57245,1155.80957,1120.97058,298.68707,1044.69202,1052.59021,245.84236,975.797
69,0.567,1077.12695,266.7644,1157.88672,1112.58728,299.04395,1046.63416,1045.0365,244.38095,976.58563
70,0.575,1070.38086,265.72992,1159.57214,1104.01465,298.96753,1048.0553,1040.16699,241.98856,978.86371
71,0.583,1062.33984,266.01041,1160.63672,1095.87756,299.62552,1050.16418,1032.61987,242.01578,980.22675
72,0.592,1057.07605,262.96658,1161.65649,1088.2312,299.64243,1051.22607,1028.64624,237.19467,981.39307
73,0.6,1049.61951,262.23401,1162.8866,1080.21692,299.06857,1052.9978,1023.96271,233.84222,982.67511
74,0.608,1044.54053,261.15649,1163.71753,1072.45728,298.98767,1053.94495,1016.9903,233.75963,984.27338
75,0.617,1037.27588,260.3956,1164.01465,1066.12573,298.27682,1055.13428,1012.5473,232.29796,985.00635
76,0.625,1032.15149,258.00311,1164.38428,1059.35315,298.38217,1055.11218,1008.13116,230.27881,984.85785
77,0.633,1026.1626,257.51041,1164.33264,1054.39697,296.62964,1054.78687,1001.9245,229.48051,985.57764
78,0.642,1019.97943,255.17259,1164.26099,1049.71497,293.31741,1054.49573,996.58295,226.96902,984.7262
79,0.65,1016.3078,255.76505,1163.8407,1045.72253,292.55942,1054.31128,993.52075,225.07016,984.40015
80,0.658,1010.21338,253.91298,1162.2406,1041.02759,290.64435,1052.99683,987.21796,223.70619,983.32416
81,0.667,1005.95911,252.2267,1160.77368,1037.06274,288.86398,1051.54407,982.1488,221.85735,981.84741
82,0.675,1002.04077,251.33783,1159.84888,1033.21375,286.63205,1049.75085,977.24286,222.10873,980.6264
83,0.683,996.64856,249.27339,1158.30188,1029.78772,284.58435,1048.07996,971.21924,221.22157,979.14862
84,0.692,992.06128,248.14578,1156.66357,1025.64465,282.85483,1045.88989,964.96045,220.84789,976.18976
85,0.7,987.64856,244.24519,1154.81812,1020.73254,280.4711,1043.76343,958.7962,219.90056,974.26184
86,0.708,980.06213,244.1736,1153.05042,1016.40479,276.6987,1041.1991,952.24371,220.39754,973.08453
87,0.717,974.79211,242.79199,1150.00281,1010.56952,274.71902,1038.88123,943.79529,221.53343,972.15308
88,0.725,968.1134,241.32043,1148.42969,1005.40668,273.29303,1037.65369,939.21057,220.48909,970.2345
89,0.733,961.87836,239.127,1146.88892,999.02496,271.30725,1034.91125,930.39221,222.4722,967.93274
90,0.742,954.63483,238.10971,1144.34534,993.06134,270.90366,1034.37817,923.24738,222.9547,966.35205
91,0.75,948.70099,238.0836,1143.07202,987.33734,267.86768,1031.8855,916.4624,222.98848,964.81732
92,0.758,940.60242,237.08774,1140.67114,980.60358,267.18994,1030.22119,909.98279,221.80577,961.78729
93,0.767,933.29315,238.16978,1139.67151,974.12836,264.95038,1028.73096,902.30359,221.04822,960.88586
94,0.775,924.97913,239.50276,1137.80652,967.18439,264.08368,1026.82593,896.60547,218.03079,958.37305
95,0.783,916.75226,238.35196,1137.08496,960.13055,263.28143,1025.7478,889.03754,217.57588,956.5437
96,0.792,910.6311,239.1842,1135.95081,951.57257,263.15396,1023.75684,883.5047,214.26874,955.18872
97,0.8,901.42206,239.41791,1134.7146,944.7821,264.13196,1023.55481,874.76837,213.97491,953.74603
98,0.808,892.98114,239.80128,1133.39917,936.74902,262.52731,1021.31079,869.375,210.53494,951.77783
99,0.817,885.84161,238.45129,1132.46094,928.1748,262.7995,1019.80933,861.20959,209.86217,950.45422
100,0.825,878.18781,239.6434,1130.03796,918.50641,262.2807,1018.12622,854.13849,209.20328,948.56873
101,0.833,870.24072,237.96419,1128.37683,910.32129,263.35043,1017.4071,847.13123,205.69754,947.02838
102,0.842,862.34674,237.64236,1126.9093,902.79688,264.6142,1014.93396,839.58679,207.39716,946.40894
103,0.85,855.08392,236.43565,1124.30688,894.56946,264.81366,1014.13757,832.00824,206.96823,945.46545
104,0.858,846.50433,238.18036,1122.57178,885.30737,265.79877,1012.07013,825.29895,205.63763,943.63092
105,0.867,838.6485,237.12617,1121.29199,876.90051,265.60596,1009.44397,816.62628,203.99054,941.18506
106,0.875,830.53119,237.37524,1119.36499,867.77234,266.33853,1007.33575,807.55841,204.36752,940.14227
107,0.883,821.75421,238.39326,1116.62512,860.07452,266.12979,1005.19531,799.04913,205.62202,938.36664
108,0.892,813.42676,238.84125,1114.40222,850.16998,266.60324,1002.86896,792.07507,203.42741,937.81
109,0.9,804.73309,239.1537,1112.63062,841.21039,267.87952,1001.52399,782.62109,203.79654,935.75824
110,0.908,796.36658,238.49438,1112.09399,832.50146,265.92892,999.75836,773.33392,203.27533,935.18854
111,0.917,787.91559,238.52248,1109.8219,822.69397,267.15356,997.70984,764.71436,201.42151,932.75
112,0.925,779.12042,239.46906,1108.57214,814.40051,265.32248,996.45508,755.38763,201.81729,931.25061
113,0.933,769.25104,240.28168,1106.32288,805.42761,265.43253,993.7757,745.38007,201.03148,929.35571
114,0.942,759.51569,240.1635,1105.77588,795.32343,265.73358,992.73358,737.81781,198.98506,927.76984
115,0.95,750.0387,240.49217,1104.07385,786.8634,265.40244,991.48193,727.94885,197.94096,926.73822
116,0.958,738.88947,239.96413,1103.53625,778.02972,264.55118,990.39465,717.34607,198.89778,924.65808
117,0.967,728.16205,240.58655,1101.58984,767.62109,264.78003,989.53693,708.23035,198.32205,923.64899
118,0.975,719.16711,240.2,1101.37024,757.80103,263.5556,988.57068,698.73682,199.74641,922.8089
119,0.983,708.8858,239.32561,1100.90845,748.73431,263.95508,988.61023,689.36371,199.40593,922.1554
120,0.992,699.31952,237.76164,1100.82349,739.30316,263.38242,988.61414,679.63208,199.69673,923.02051
121,1,691.52942,237.84856,1102.23889,730.68195,262.16064,989.77368,671.05908,199.79175,923.35907
122,1.008,681.89539,237.87968,1103.09326,721.21283,260.95413,990.43494,661.04297,198.47942,923.61469
123,1.017,674.14728,238.92268,1103.11462,711.82019,261.32294,991.0564,651.24005,197.92578,924.78973
124,1.025,664.60626,239.07179,1103.62537,703.81476,261.04184,991.01385,641.95947,197.81773,925.41974
125,1.033,656.43585,238.13153,1104.45105,694.72095,259.763,990.97559,632.36469,195.68195,926.14691
126,1.042,648.18829,238.38167,1105.83667,684.78253,259.25027,991.9176,622.68805,195.40607,927.32434
127,1.05,640.63,239.42581,1105.88733,676.07227,260.7211,992.63776,614.6275,194.93526,928.17285
128,1.058,633.40399,238.59302,1106.54614,667.44464,259.94058,993.229,604.07214,196.6936,929.42639
129,1.067,624.56854,238.93442,1106.84924,658.38879,260.8623,993.5094,594.06689,196.97861,930.43091
130,1.075,615.63013,240.02657,1108.53333,649.95349,260.84415,994.01678,585.0282,196.55574,932.06384
131,1.083,607.94293,240.09286,1109.71899,640.63611,260.94592,994.60944,575.85394,197.31618,933.16034
132,1.092,599.44373,240.81273,1110.57166,631.73541,261.59314,995.71832,566.33466,197.47636,934.15332
133,1.1,591.30048,240.89844,1111.6676,622.94348,261.82336,997.008,556.43579,198.57153,936.59644
134,1.108,583.10034,241.72775,1113.44739,614.12854,263.99173,998.43811,547.70923,199.81593,938.77277
135,1.117,574.80652,243.40549,1115.17358,604.82434,264.72516,1000.86731,539.14667,202.12117,940.44861
136,1.125,566.61792,243.94894,1117.64575,595.82764,266.19659,1002.56763,530.21448,202.60883,940.99139
137,1.133,557.29645,244.13457,1119.52527,587.53735,268.46671,1004.14069,519.38983,206.96919,944.58868
138,1.142,548.7644,245.13136,1121.45264,578.80341,268.56073,1005.67444,510.67157,208.22452,945.52985
139,1.15,540.43463,248.10744,1123.20569,569.41156,271.35748,1007.99243,500.74374,209.87433,949.31116
140,1.158,531.95325,249.49907,1125.77441,561.1554,272.70453,1009.95599,491.89807,212.02724,950.85419
141,1.167,523.0813,252.10637,1127.18066,551.59644,273.88666,1012.03387,481.14136,215.63969,953.62115
142,1.175,513.63452,254.11371,1128.52307,542.70807,274.94055,1013.13593,472.39151,216.46028,954.65179
143,1.183,504.26962,254.601,1130.54968,534.55029,277.26831,1015.40985,463.78568,219.29239,955.96875
144,1.192,495.37515,255.45918,1132.4917,525.45154,278.74167,1016.28638,454.64066,221.418,958.14624
145,1.2,487.21088,258.67401,1133.82263,516.38031,279.1441,1017.85608,445.97754,222.11018,958.82422
146,1.208,479.31451,259.1572,1135.38379,507.51031,282.50278,1019.35669,437.7041,222.7778,960.06805
147,1.217,470.23444,259.74554,1136.12463,498.64236,282.36722,1020.16602,428.92523,223.01274,961.49695
148,1.225,461.54648,259.16031,1136.67798,490.1246,282.97897,1022.08307,422.21649,222.50063,962.5083
149,1.233,454.0361,260.311,1137.16809,480.90775,282.92303,1022.72656,414.07727,221.00768,962.84302
150,1.242,447.14133,259.04602,1137.80493,472.48056,285.04028,1023.4115,408.61261,219.23824,963.539
151,1.25,439.38522,258.30347,1139.25171,463.6922,285.31729,1024.56189,400.88351,218.80589,964.73718
152,1.258,431.6561,257.78036,1139.8634,455.38904,285.46896,1026.0885,393.86514,216.32373,964.78772
153,1.267,425.75015,255.43463,1139.52869,446.68201,285.58337,1026.04919,388.15906,212.80363,964.28204
154,1.275,417.39801,254.81575,1140.33521,438.19476,285.01816,1026.18323,380.13669,213.55257,964.9278
155,1.283,410.89566,252.98624,1140.4552,430.92157,285.02487,1027.11304,373.31335,212.61098,964.42255
156,1.292,403.59872,252.31854,1140.10913,423.09204,284.45663,1026.69519,365.84537,212.03453,963.79877
157,1.3,396.1102,252.4971,1139.6958,415.31711,284.64096,1026.53101,356.63623,213.62564,963.69458
158,1.308,389.52408,251.62894,1139.51709,408.71176,284.82947,1026.1106,349.75778,213.66234,963.64124
159,1.317,381.58621,252.69084,1139.55798,401.28989,284.03241,1025.99939,341.60196,215.19771,963.89746
160,1.325,374.05304,251.27489,1139.3302,393.20779,284.38547,1025.56494,331.46484,215.69585,963.95361
161,1.333,366.97089,251.06673,1139.48828,386.00504,284.46255,1025.32275,322.89984,216.75597,964.60846
162,1.342,359.82645,254.3082,1138.69617,378.86389,285.90497,1024.29541,312.62897,218.82356,964.00757
163,1.35,351.40759,254.83408,1138.07776,371.32071,285.35037,1024.02625,303.63324,220.82874,963.33936
164,1.358,343.52594,254.18985,1137.91504,363.06094,285.29709,1023.16602,294.86142,223.23172,964.09131
165,1.367,335.38092,255.34346,1137.88892,355.71237,284.42554,1022.84326,283.53333,226.50122,964.66638
166,1.375,327.28009,255.40239,1137.51404,348.05853,285.27567,1022.31885,274.57687,229.06792,964.65942
167,1.383,318.68878,256.95441,1136.43237,340.37216,285.38943,1021.92511,264.4592,233.63609,964.20959
168,1.392,309.22662,259.53479,1136.77332,332.77072,287.0304,1020.69031,255.94556,236.38943,964.03168
169,1.4,300.96289,258.96652,1136.495,323.75214,287.5134,1019.71741,247.0457,238.52328,963.07526
170,1.408,291.54016,259.44614,1135.54382,316.84451,287.95599,1019.63068,238.12183,242.81053,962.31964
171,1.417,281.96204,260.93481,1135.46094,308.90506,287.70721,1018.02429,230.0529,244.22507,961.21832
172,1.425,273.55246,261.5416,1134.5293,301.01428,288.38281,1017.92731,221.62724,244.58961,959.99261
173,1.433,265.10342,261.3782,1133.91284,293.0307,289.49277,1017.56879,214.52126,245.3116,959.42535
174,1.442,258.04108,261.96533,1132.89929,284.52524,288.62872,1017.26147,207.98399,243.6548,958.70337
175,1.45,249.97377,261.42093,1132.85376,277.27161,288.10471,1017.65387,200.67462,239.50963,957.82495
176,1.458,242.96867,259.65823,1133.03381,269.43369,288.93881,1017.42834,193.96802,236.8674,957.49542
177,1.467,235.21898,256.82166,1132.59961,261.18103,287.56219,1017.21216,188.31776,233.03786,957.52258
178,1.475,228.43687,253.60526,1132.57007,252.37578,286.77176,1017.3172,183.04008,227.47571,957.77521
179,1.483,222.18004,251.68782,1132.94165,243.62379,284.29913,1017.81696,175.96667,223.50716,958.42419
180,1.492,215.73828,249.17834,1132.95703,234.49995,281.83145,1019.03198,169.68314,218.847,959.3338
181,1.5,209.03542,245.59784,1132.81555,226.26389,280.62491,1020.02002,164.00056,214.48216,958.87769
182,1.508,203.9711,242.24344,1133.44653,219.29468,278.67853,1020.10931,159.20963,210.57425,958.63928
183,1.517,195.99925,240.91808,1134.57129,212.2901,275.33292,1020.73682,152.36659,206.74603,959.95654
184,1.525,190.52589,236.70531,1134.61047,205.89305,272.95004,1021.11475,147.4294,203.96191,960.63348
185,1.533,183.9613,235.02676,1134.83984,199.15364,270.31094,1022.04694,139.72331,202.04486,960.81824
186,1.542,177.06876,233.21214,1135.51416,192.68779,267.96005,1022.85876,133.23109,199.39032,960.99188
187,1.55,171.19525,231.25545,1136.80042,187.60796,264.79114,1022.71307,127.31934,196.86987,962.26758
188,1.558,164.23332,229.8284,1137.52905,181.75259,262.81686,1023.27032,120.2869,195.54663,963.21118
189,1.567,157.54056,225.94937,1138.78357,176.84972,260.9115,1024.53308,114.82656,192.87491,963.43353
190,1.575,150.998,224.53577,1139.07678,170.6748,259.37347,1025.37231,106.85687,192.57672,964.3623
191,1.583,144.55832,223.89998,1140.00635,165.10532,255.81551,1026.52417,99.39078,191.73773,965.83209
192,1.592,138.20705,220.72516,1141.61743,159.26076,254.08276,1027.65125,92.13209,191.35463,967.24396
193,1.6,131.35915,218.91972,1142.20667,153.35718,251.78502,1029.18896,85.60117,191.03568,968.03461
194,1.608,124.64474,217.33005,1143.66504,148.50656,250.23282,1030.06372,79.42754,191.32654,968.78894
195,1.617,117.46299,216.01834,1145.17041,141.7345,250.04802,1030.79834,71.47108,191.72687,970.69427
196,1.625,111.67989,214.24615,1146.15369,135.99792,247.93715,1032.82874,65.10352,193.36195,971.22882
