Frame#,Time,R.Forearm.x,R.Forearm.y,R.Forearm.z,R.Ulna.x,R.Ulna.y,R.Ulna.z,R.Radius.x,R.Radius.y,R.Radius.z
1,0,-61.56575,-164.83945,718.94702,12.85362,-180.08325,633.39191,50.07081,-70.27222,636.65015
2,0.008,-61.56575,-164.83945,718.94702,12.85362,-180.08325,633.39191,50.07081,-70.27222,636.65015
3,0.017,-61.56575,-164.83945,718.94702,13.26108,-179.93231,633.38593,50.07081,-70.27222,636.65015
4,0.025,-61.56575,-164.83945,718.94702,13.26108,-179.93231,633.38593,50.07081,-70.27222,636.65015
5,0.033,-61.56575,-164.83945,718.94702,13.26108,-179.93231,633.38593,50.07081,-70.27222,636.65015
6,0.042,-61.56575,-164.83945,718.94702,13.26108,-179.93231,633.38593,50.07081,-70.27222,636.65015
7,0.05,-61.20011,-164.78154,719.86481,13.26108,-179.93231,633.38593,50.07081,-70.27222,636.65015
8,0.058,-61.249,-164.67325,719.07709,13.26108,-179.93231,633.38593,50.07081,-70.27222,636.65015
9,0.067,-60.98191,-164.52269,719.5249,13.47677,-179.62973,633.60303,50.07081,-70.27222,636.65015
10,0.075,-60.98191,-164.52269,719.5249,13.4202,-179.57487,633.78369,50.07081,-70.27222,636.65015
11,0.083,-60.88352,-164.61525,719.99481,13.47677,-179.62973,633.60303,50.07081,-70.27222,636.65015
12,0.092,-60.88352,-164.61525,719.99481,13.47677,-179.62973,633.60303,50.07081,-70.27222,636.65015
13,0.1,-60.88352,-164.61525,719.99481,13.47677,-179.62973,633.60303,50.07081,-70.27222,636.65015
14,0.108,-60.98191,-164.52269,719.5249,13.47677,-179.62973,633.60303,50.07081,-70.27222,636.65015
15,0.117,-60.84082,-164.53154,720.17291,13.47677,-179.62973,633.60303,50.07081,-70.27222,636.65015
16,0.125,-60.73064,-164.32785,719.69104,13.4202,-179.57487,633.78369,50.07081,-70.27222,636.65015
17,0.133,-60.84082,-164.53154,720.17291,13.4202,-179.57487,633.78369,50.07081,-70.27222,636.65015
18,0.142,-60.98191,-164.52269,719.5249,13.47677,-179.62973,633.60303,50.07081,-70.27222,636.65015
19,0.15,-60.88352,-164.61525,719.99481,13.47677,-179.62973,633.60303,50.07081,-70.27222,636.65015
20,0.158,-60.88352,-164.61525,719.99481,13.47677,-179.62973,633.60303,50.47782,-70.33601,636.71173
21,0.167,-61.249,-164.67325,719.07709,13.47677,-179.62973,633.60303,50.07081,-70.27222,636.65015
22,0.175,-61.56575,-164.83945,718.94702,13.47677,-179.62973,633.60303,50.07081,-70.27222,636.65015
23,0.183,-61.42434,-164.84839,719.59528,13.26108,-179.93231,633.38593,50.07081,-70.27222,636.65015
24,0.192,-61.56575,-164.83945,718.94702,12.85362,-180.08325,633.39191,50.07081,-70.27222,636.65015
25,0.2,-61.42434,-164.84839,719.59528,12.85362,-180.08325,633.39191,50.07081,-70.27222,636.65015
26,0.208,-61.96133,-165.10226,719.42535,12.79707,-180.02843,633.57257,50.07081,-70.27222,636.65015
27,0.217,-62.19582,-165.52217,719.38452,12.85362,-180.08325,633.39191,50.07081,-70.27222,636.65015
28,0.225,-62.20937,-165.30882,718.9035,12.85362,-180.08325,633.39191,50.07081,-70.27222,636.65015
29,0.233,-62.5476,-165.79401,718.94769,12.85362,-180.08325,633.39191,50.07081,-70.27222,636.65015
30,0.242,-62.5476,-165.79401,718.94769,12.85362,-180.08325,633.39191,50.07081,-70.27222,636.65015
31,0.25,-62.5476,-165.79401,718.94769,12.85362,-180.08325,633.39191,50.07081,-70.27222,636.65015
32,0.258,-62.5476,-165.79401,718.94769,12.85362,-180.08325,633.39191,50.07081,-70.27222,636.65015
33,0.267,-62.5476,-165.79401,718.94769,12.85362,-180.08325,633.39191,50.10666,-70.99561,636.51984
34,0.275,-62.76195,-165.8318,719.06274,12.85362,-180.08325,633.39191,50.10666,-70.99561,636.51984
35,0.283,-62.62039,-165.84073,719.71118,12.85362,-180.08325,633.39191,50.10666,-70.99561,636.51984
36,0.292,-62.76195,-165.8318,719.06274,12.58314,-180.07211,633.50604,50.10666,-70.99561,636.51984
37,0.3,-62.76195,-165.8318,719.06274,12.36445,-180.36308,633.56219,50.10666,-70.99561,636.51984
38,0.308,-62.81014,-165.97997,719.42297,12.36445,-180.36308,633.56219,50.10666,-70.99561,636.51984
39,0.317,-62.76195,-165.8318,719.06274,12.36445,-180.36308,633.56219,49.82875,-71.49184,636.61414
40,0.325,-62.76195,-165.8318,719.06274,12.36445,-180.36308,633.56219,49.57726,-71.381,636.521
41,0.333,-62.81014,-165.97997,719.42297,12.36445,-180.36308,633.56219,49.82875,-71.49184,636.61414
42,0.342,-62.76195,-165.8318,719.06274,12.36445,-180.36308,633.56219,49.82875,-71.49184,636.61414
43,0.35,-62.81014,-165.97997,719.42297,11.98733,-180.80072,633.54126,49.82875,-71.49184,636.61414
44,0.358,-62.6687,-165.98892,720.07141,11.98733,-180.80072,633.54126,49.82875,-71.49184,636.61414
45,0.367,-62.81014,-165.97997,719.42297,11.98733,-180.80072,633.54126,49.82875,-71.49184,636.61414
46,0.375,-62.81014,-165.97997,719.42297,11.98733,-180.80072,633.54126,49.57726,-71.381,636.521
47,0.383,-62.81014,-165.97997,719.42297,11.98733,-180.80072,633.54126,49.57726,-71.381,636.521
48,0.392,-62.6687,-165.98892,720.07141,12.00174,-181.55508,633.56689,49.82875,-71.49184,636.61414
49,0.4,-62.81014,-165.97997,719.42297,11.81145,-180.7773,633.41675,49.82875,-71.49184,636.61414
50,0.408,-62.81014,-165.97997,719.42297,11.81145,-180.7773,633.41675,49.57726,-71.381,636.521
51,0.417,-62.81014,-165.97997,719.42297,11.81145,-180.7773,633.41675,49.36302,-71.37002,636.51477
52,0.425,-62.81014,-165.97997,719.42297,11.81145,-180.7773,633.41675,49.36302,-71.37002,636.51477
53,0.433,-62.81014,-165.97997,719.42297,11.81145,-180.7773,633.41675,49.36302,-71.37002,636.51477
54,0.442,-63.07782,-166.03836,720.06873,11.81145,-180.7773,633.41675,49.23739,-71.31936,636.29602
55,0.45,-62.6687,-165.98892,720.07141,11.61488,-181.06627,633.58661,49.02314,-71.30844,636.28986
56,0.458,-63.07782,-166.03836,720.06873,11.81145,-180.7773,633.41675,49.02314,-71.30844,636.28986
57,0.467,-63.07782,-166.03836,720.06873,11.43898,-181.04297,633.46216,49.02314,-71.30844,636.28986
58,0.475,-63.21933,-166.0294,719.42029,11.62929,-181.82079,633.6123,49.02314,-71.30844,636.28986
59,0.483,-63.21933,-166.0294,719.42029,11.63554,-180.75398,633.2923,49.02314,-71.30844,636.28986
60,0.492,-63.21933,-166.0294,719.42029,11.80359,-180.76849,633.44336,49.02314,-71.30844,636.28986
61,0.5,-63.48997,-166.38167,719.52722,11.81145,-180.7773,633.41675,49.02314,-71.30844,636.28986
62,0.508,-63.56147,-166.39421,719.56549,11.63554,-180.75398,633.2923,49.02314,-71.30844,636.28986
63,0.517,-63.56147,-166.39421,719.56549,11.63554,-180.75398,633.2923,49.02314,-71.30844,636.28986
64,0.525,-63.42565,-166.43358,719.26215,11.63554,-180.75398,633.2923,49.02314,-71.30844,636.28986
65,0.533,-63.56147,-166.39421,719.56549,11.39673,-180.95381,633.18573,49.36302,-71.37002,636.51477
66,0.542,-63.42565,-166.43358,719.26215,11.39673,-180.95381,633.18573,49.36302,-71.37002,636.51477
67,0.55,-63.42565,-166.43358,719.26215,11.39673,-180.95381,633.18573,49.1477,-71.42111,636.56311
68,0.558,-63.42565,-166.43358,719.26215,11.39673,-180.95381,633.18573,49.46335,-71.39681,636.24139
69,0.567,-63.70425,-166.63631,719.02753,11.10143,-181.14287,633.11151,48.95586,-71.30613,636.45313
70,0.575,-63.3875,-166.47002,719.15747,11.39673,-180.95381,633.18573,48.74051,-71.35732,636.50146
71,0.583,-63.70425,-166.63631,719.02753,11.10414,-181.31316,632.8894,48.5094,-71.3226,635.9826
72,0.592,-63.70425,-166.63631,719.02753,10.8254,-181.60649,632.78357,49.0562,-71.33291,636.17969
73,0.6,-63.70425,-166.63631,719.02753,10.8254,-181.60649,632.78357,48.74051,-71.35732,636.50146
74,0.608,-63.70425,-166.63631,719.02753,10.8254,-181.60649,632.78357,48.36877,-71.73855,636.14136
75,0.617,-63.75239,-166.78453,719.38782,10.71753,-181.83719,632.70068,48.26844,-71.71175,636.41479
76,0.625,-63.95566,-166.83138,718.86151,10.8254,-181.60649,632.78357,48.36877,-71.73855,636.14136
77,0.633,-63.95566,-166.83138,718.86151,10.71753,-181.83719,632.70068,48.80638,-71.67963,635.96857
78,0.642,-63.95566,-166.83138,718.86151,10.71753,-181.83719,632.70068,48.36877,-71.73855,636.14136
79,0.65,-64.00377,-166.9796,719.22186,10.36274,-182.32024,632.89197,47.8871,-72.10617,636.31494
80,0.658,-63.95566,-166.83138,718.86151,10.71753,-181.83719,632.70068,48.08954,-71.7037,636.29419
81,0.667,-63.95566,-166.83138,718.86151,10.71753,-181.83719,632.70068,48.05505,-71.99918,636.03473
82,0.675,-63.95566,-166.83138,718.86151,10.71753,-181.83719,632.70068,48.05505,-71.99918,636.03473
83,0.683,-63.95566,-166.83138,718.86151,10.36274,-182.32024,632.89197,48.08954,-71.7037,636.29419
84,0.692,-63.95566,-166.83138,718.86151,10.36274,-182.32024,632.89197,47.99409,-71.83037,636.3772
85,0.7,-63.95566,-166.83138,718.86151,10.36274,-182.32024,632.89197,47.99409,-71.83037,636.3772
86,0.708,-63.95566,-166.83138,718.86151,10.36274,-182.32024,632.89197,47.99409,-71.83037,636.3772
87,0.717,-63.95566,-166.83138,718.86151,10.36274,-182.32024,632.89197,47.8871,-72.10617,636.31494
88,0.725,-64.51782,-166.74664,718.91302,10.36274,-182.32024,632.89197,47.99409,-71.83037,636.3772
89,0.733,-64.51782,-166.74664,718.91302,10.34884,-182.20522,632.49939,47.99409,-71.83037,636.3772
90,0.742,-64.51782,-166.74664,718.91302,10.34884,-182.20522,632.49939,47.99409,-71.83037,636.3772
91,0.75,-64.50798,-166.97945,718.62634,10.34884,-182.20522,632.49939,47.56394,-72.28275,635.86993
92,0.758,-64.93767,-167.47945,718.44092,10.36274,-182.32024,632.89197,47.71827,-71.819,636.12531
93,0.767,-64.93767,-167.47945,718.44092,10.36274,-182.32024,632.89197,47.56394,-72.28275,635.86993
94,0.775,-64.93767,-167.47945,718.44092,10.34884,-182.20522,632.49939,47.71827,-71.819,636.12531
95,0.783,-64.93767,-167.47945,718.44092,10.34884,-182.20522,632.49939,47.31477,-72.3223,635.97205
96,0.792,-65.32873,-167.64389,718.32147,10.34884,-182.20522,632.49939,47.56394,-72.28275,635.86993
97,0.8,-65.32873,-167.64389,718.32147,10.34884,-182.20522,632.49939,47.21035,-72.77811,635.69635
98,0.808,-65.32873,-167.64389,718.32147,10.34884,-182.20522,632.49939,47.21035,-72.77811,635.69635
99,0.817,-65.4184,-167.90517,718.19061,9.97892,-182.31848,632.5285,47.21035,-72.77811,635.69635
100,0.825,-65.4184,-167.90517,718.19061,9.97892,-182.31848,632.5285,47.44268,-72.78254,635.50592
101,0.833,-65.92522,-168.63377,718.25671,9.97892,-182.31848,632.5285,47.21035,-72.77811,635.69635
102,0.842,-65.92522,-168.63377,718.25671,9.97892,-182.31848,632.5285,47.21035,-72.77811,635.69635
103,0.85,-66.50626,-168.80666,718.15063,9.97892,-182.31848,632.5285,47.21035,-72.77811,635.69635
104,0.858,-66.50626,-168.80666,718.15063,9.70817,-182.12715,632.64917,47.21035,-72.77811,635.69635
105,0.867,-66.50626,-168.80666,718.15063,9.72208,-182.24217,633.04175,47.21035,-72.77811,635.69635
106,0.875,-66.50626,-168.80666,718.15063,9.42159,-182.49069,632.72363,46.93933,-72.77217,635.67426
107,0.883,-66.50626,-168.80666,718.15063,9.11399,-182.74715,632.29535,46.96758,-72.71298,635.67493
108,0.892,-66.50626,-168.80666,718.15063,8.69875,-182.97162,632.30115,47.13902,-73.09975,635.7002
109,0.9,-66.50626,-168.80666,718.15063,8.5352,-183.33913,632.11578,46.96758,-72.71298,635.67493
110,0.908,-66.50626,-168.80666,718.15063,7.84646,-182.68553,631.95453,46.96981,-72.9766,635.87646
111,0.917,-66.50626,-168.80666,718.15063,7.9626,-182.82619,631.53815,47.13902,-73.09975,635.7002
112,0.925,-66.72112,-169.13988,717.84265,7.60292,-183.01535,631.48865,47.17909,-72.7371,635.51172
113,0.933,-66.72112,-169.13988,717.84265,7.28278,-183.41159,631.88007,46.90995,-72.94591,635.42084
114,0.942,-66.72112,-169.13988,717.84265,7.41927,-183.17258,631.64648,46.90768,-72.68238,635.21936
115,0.95,-66.72112,-169.13988,717.84265,7.49722,-183.07593,631.88684,46.71327,-73.39561,635.14917
116,0.958,-66.72112,-169.13988,717.84265,7.41927,-183.17258,631.64648,46.83495,-73.2528,634.77405
117,0.967,-66.72112,-169.13988,717.84265,7.10892,-183.54225,631.78174,46.71101,-73.13204,634.94763
118,0.975,-67.16945,-169.22879,717.80573,7.03915,-183.6543,631.63977,46.71101,-73.13204,634.94763
119,0.983,-67.56051,-168.85172,717.93353,7.10892,-183.54225,631.78174,46.59629,-73.40478,634.72241
120,0.992,-67.56051,-168.85172,717.93353,7.03915,-183.6543,631.63977,46.3171,-73.91179,634.54053
121,1,-68.59812,-168.34657,717.5498,7.06043,-183.44986,631.33826,46.507,-73.11179,635.16779
122,1.008,-68.59812,-168.34657,717.5498,6.85155,-183.6497,631.49176,46.71101,-73.13204,634.94763
123,1.017,-68.59812,-168.34657,717.5498,7.06043,-183.44986,631.33826,46.3171,-73.91179,634.54053
124,1.025,-68.59812,-168.34657,717.5498,7.06043,-183.44986,631.33826,46.2775,-73.87118,634.68317
125,1.033,-68.59812,-168.34657,717.5498,7.06043,-183.44986,631.33826,46.507,-73.11179,635.16779
126,1.042,-68.59812,-168.34657,717.5498,6.83048,-183.30934,631.25977,46.10354,-73.35528,635.14795
127,1.05,-68.59812,-168.34657,717.5498,6.83048,-183.30934,631.25977,46.4193,-73.48228,634.7934
128,1.058,-68.59812,-168.34657,717.5498,6.46966,-183.0732,631.14899,46.05135,-73.8679,634.93689
129,1.067,-68.52072,-168.11842,717.29797,6.26081,-183.2731,631.30249,46.11304,-73.89149,634.7608
130,1.075,-68.52072,-168.11842,717.29797,6.4702,-183.34456,631.41669,46.40479,-73.54137,634.91504
131,1.083,-68.82973,-168.03432,717.41772,6.26081,-183.2731,631.30249,45.93798,-73.74468,635.09442
132,1.092,-68.90714,-168.26245,717.66956,6.26081,-183.2731,631.30249,46.00133,-73.78476,634.89514
133,1.1,-68.82973,-168.03432,717.41772,6.38092,-183.12093,631.01361,46.00133,-73.78476,634.89514
134,1.108,-68.82973,-168.03432,717.41772,5.85609,-182.47127,630.69971,46.00133,-73.78476,634.89514
135,1.117,-69.46243,-167.91495,717.44366,5.64731,-182.67125,630.85321,46.00133,-73.78476,634.89514
136,1.125,-69.46243,-167.91495,717.44366,5.52723,-182.82346,631.14215,46.00133,-73.78476,634.89514
137,1.133,-69.09617,-167.65276,717.28406,5.85609,-182.47127,630.69971,46.00133,-73.78476,634.89514
138,1.142,-69.46243,-167.91495,717.44366,5.85609,-182.47127,630.69971,46.00133,-73.78476,634.89514
139,1.15,-69.72885,-167.53343,717.30994,5.64731,-182.67125,630.85321,45.64571,-73.99988,634.87024
140,1.158,-69.72885,-167.53343,717.30994,5.64731,-182.67125,630.85321,45.64571,-73.99988,634.87024
141,1.167,-69.72885,-167.53343,717.30994,5.42633,-182.51646,630.79327,45.64571,-73.99988,634.87024
142,1.175,-69.72885,-167.53343,717.30994,5.42633,-182.51646,630.79327,45.41785,-74.48552,634.58698
143,1.183,-69.72885,-167.53343,717.30994,5.42275,-182.41669,630.20624,45.64571,-73.99988,634.87024
144,1.192,-69.72885,-167.53343,717.30994,5.39562,-182.69519,630.62866,45.64571,-73.99988,634.87024
145,1.2,-69.72885,-167.53343,717.30994,5.39207,-182.59537,630.04163,45.41785,-74.48552,634.58698
146,1.208,-69.72885,-167.53343,717.30994,5.39207,-182.59537,630.04163,45.41785,-74.48552,634.58698
147,1.217,-69.72885,-167.53343,717.30994,5.39207,-182.59537,630.04163,45.41785,-74.48552,634.58698
148,1.225,-70.10837,-167.05804,717.24103,5.39207,-182.59537,630.04163,45.41785,-74.48552,634.58698
149,1.233,-70.10837,-167.05804,717.24103,5.39207,-182.59537,630.04163,45.41785,-74.48552,634.58698
150,1.242,-70.10837,-167.05804,717.24103,5.39207,-182.59537,630.04163,45.41785,-74.48552,634.58698
151,1.25,-70.36031,-167.25346,717.07501,5.39207,-182.59537,630.04163,45.41785,-74.48552,634.58698
152,1.258,-69.72885,-167.53343,717.30994,5.39207,-182.59537,630.04163,45.52959,-74.59227,634.45258
153,1.267,-69.64486,-167.2906,716.95154,5.39207,-182.59537,630.04163,45.52959,-74.59227,634.45258
154,1.275,-69.64486,-167.2906,716.95154,5.60087,-182.39529,629.888,45.34383,-74.85955,634.58978
155,1.283,-70.02439,-166.81528,716.88263,5.60087,-182.39529,629.888,45.52959,-74.59227,634.45258
156,1.292,-69.64486,-167.2906,716.95154,5.53667,-182.1422,629.71057,45.34383,-74.85955,634.58978
157,1.3,-69.64486,-167.2906,716.95154,5.60087,-182.39529,629.888,45.52959,-74.59227,634.45258
158,1.308,-69.64486,-167.2906,716.95154,5.60087,-182.39529,629.888,45.52959,-74.59227,634.45258
159,1.317,-70.02439,-166.81528,716.88263,5.60087,-182.39529,629.888,45.34383,-74.85955,634.58978
160,1.325,-69.53512,-166.95914,716.93372,5.60087,-182.39529,629.888,45.52959,-74.59227,634.45258
161,1.333,-70.68584,-165.93742,716.94403,5.60087,-182.39529,629.888,45.34383,-74.85955,634.58978
162,1.342,-70.02439,-166.81528,716.88263,5.60087,-182.39529,629.888,45.34383,-74.85955,634.58978
163,1.35,-70.43983,-165.84941,716.74945,5.60087,-182.39529,629.888,45.34383,-74.85955,634.58978
164,1.358,-70.43983,-165.84941,716.74945,5.53667,-182.1422,629.71057,45.34383,-74.85955,634.58978
165,1.367,-70.43983,-165.84941,716.74945,5.53667,-182.1422,629.71057,45.52959,-74.59227,634.45258
166,1.375,-70.43983,-165.84941,716.74945,5.32787,-182.34227,629.8642,45.34383,-74.85955,634.58978
167,1.383,-70.69187,-166.04485,716.58337,5.53667,-182.1422,629.71057,45.52959,-74.59227,634.45258
168,1.392,-71.00935,-166.21182,716.45343,5.53667,-182.1422,629.71057,45.41785,-74.48552,634.58698
169,1.4,-71.00935,-166.21182,716.45343,5.53667,-182.1422,629.71057,45.34383,-74.85955,634.58978
170,1.408,-71.00935,-166.21182,716.45343,5.23189,-182.32968,629.64191,45.23045,-74.73632,634.74731
171,1.417,-71.25188,-165.8727,716.06122,5.23189,-182.32968,629.64191,45.23045,-74.73632,634.74731
172,1.425,-72.01932,-165.17909,715.48969,5.23189,-182.32968,629.64191,45.34383,-74.85955,634.58978
173,1.433,-72.01932,-165.17909,715.48969,5.23189,-182.32968,629.64191,45.52959,-74.59227,634.45258
174,1.442,-72.01932,-165.17909,715.48969,5.00247,-182.53181,629.53027,45.34383,-74.85955,634.58978
175,1.45,-72.01932,-165.17909,715.48969,5.00247,-182.53181,629.53027,45.34383,-74.85955,634.58978
176,1.458,-72.03334,-164.96614,715.00726,5.00247,-182.53181,629.53027,45.57005,-74.86286,634.33594
177,1.467,-72.03334,-164.96614,715.00726,5.11159,-182.46045,629.33466,45.57005,-74.86286,634.33594
178,1.475,-72.03334,-164.96614,715.00726,5.11159,-182.46045,629.33466,45.57005,-74.86286,634.33594
179,1.483,-72.02979,-166.22264,714.16772,5.11159,-182.46045,629.33466,45.57005,-74.86286,634.33594
180,1.492,-72.29404,-165.2242,714.79907,5.11159,-182.46045,629.33466,45.57005,-74.86286,634.33594
181,1.5,-72.02979,-166.22264,714.16772,5.11159,-182.46045,629.33466,45.57005,-74.86286,634.33594
182,1.508,-72.02979,-166.22264,714.16772,5.11159,-182.46045,629.33466,45.57005,-74.86286,634.33594
183,1.517,-72.02979,-166.22264,714.16772,5.11159,-182.46045,629.33466,45.57005,-74.86286,634.33594
184,1.525,-72.02979,-166.22264,714.16772,5.11159,-182.46045,629.33466,45.57005,-74.86286,634.33594
185,1.533,-72.02979,-166.22264,714.16772,5.11159,-182.46045,629.33466,45.57005,-74.86286,634.33594
186,1.542,-72.02979,-166.22264,714.16772,5.11159,-182.46045,629.33466,45.57005,-74.86286,634.33594
187,1.55,-72.02979,-166.22264,714.16772,5.00247,-182.53181,629.53027,45.57005,-74.86286,634.33594
188,1.558,-72.29404,-165.2242,714.79907,4.90282,-182.66045,629.48828,45.57005,-74.86286,634.33594
189,1.567,-71.4634,-167.15596,715.06604,4.90282,-182.66045,629.48828,45.57005,-74.86286,634.33594
190,1.575,-71.63648,-166.52933,715.32501,4.90282,-182.66045,629.48828,45.57005,-74.86286,634.33594
191,1.583,-71.46679,-167.58344,715.65332,4.79367,-182.73181,629.6839,45.57005,-74.86286,634.33594
192,1.592,-71.86547,-166.12715,715.48187,4.79367,-182.73181,629.6839,45.73369,-74.61259,634.23224
193,1.6,-71.44969,-167.09312,715.61548,4.79367,-182.73181,629.6839,45.34383,-74.85955,634.58978
194,1.608,-71.43594,-167.30591,716.09753,4.79367,-182.73181,629.6839,45.57005,-74.86286,634.33594
195,1.617,-71.43594,-167.30591,716.09753,4.79367,-182.73181,629.6839,45.52959,-74.59227,634.45258
196,1.625,-71.43594,-167.30591,716.09753,4.79367,-182.73181,629.6839,45.34383,-74.85955,634.58978
197,1.633,-71.20617,-167.32539,715.86133,4.79367,-182.73181,629.6839,45.52959,-74.59227,634.45258
198,1.642,-71.44969,-167.09312,715.61548,4.79367,-182.73181,629.6839,45.34383,-74.85955,634.58978
199,1.65,-71.43594,-167.30591,716.09753,4.79367,-182.73181,629.6839,45.34383,-74.85955,634.58978
200,1.658,-71.43594,-167.30591,716.09753,4.79367,-182.73181,629.6839,45.34383,-74.85955,634.58978
201,1.667,-71.01627,-167.42947,716.14136,4.85794,-182.98489,629.86139,45.34383,-74.85955,634.58978
202,1.675,-71.03001,-167.21671,715.65936,4.85794,-182.98489,629.86139,45.34383,-74.85955,634.58978
203,1.683,-71.03001,-167.21671,715.65936,4.85794,-182.98489,629.86139,45.34383,-74.85955,634.58978
