Frame#,Time,R.Forearm.x,R.Forearm.y,R.Forearm.z,R.Ulna.x,R.Ulna.y,R.Ulna.z,R.Radius.x,R.Radius.y,R.Radius.z
1,0,327.4234,-238.86543,1114.47925,293.1398,-272.39581,1013.20129,364.1127,-248.36092,943.36633
2,0.008,327.3931,-238.95538,1114.36292,293.08939,-272.40445,1013.12262,364.1127,-248.36092,943.36633
3,0.017,327.14542,-239.13841,1114.31726,293.08939,-272.40445,1013.12262,364.04263,-248.4675,943.16547
4,0.025,327.36115,-239.1754,1114.17383,292.95767,-272.37756,1012.56964,363.63409,-248.06877,943.15265
5,0.033,327.36115,-239.1754,1114.17383,292.94971,-272.29877,1013.08673,363.49734,-248.4261,942.89825
6,0.042,327.3931,-238.95538,1114.36292,292.89603,-272.28632,1012.69696,363.1156,-248.08875,942.84668
7,0.05,327.3931,-238.95538,1114.36292,292.94971,-272.29877,1013.08673,363.1156,-248.08875,942.84668
8,0.058,327.4234,-238.86543,1114.47925,292.92047,-272.10931,1012.80585,363.1156,-248.08875,942.84668
9,0.067,327.4234,-238.86543,1114.47925,292.97415,-272.1218,1013.19562,363.1156,-248.08875,942.84668
10,0.075,327.4234,-238.86543,1114.47925,292.97415,-272.1218,1013.19562,363.1156,-248.08875,942.84668
11,0.083,327.34409,-238.4738,1114.521,292.75867,-272.11008,1013.44373,363.49734,-248.4261,942.89825
12,0.092,327.34409,-238.4738,1114.521,292.66116,-272.05148,1013.3974,362.96729,-248.29541,943.30963
13,0.1,326.97943,-238.47212,1115.05103,292.44638,-271.99033,1013.81396,363.65012,-248.78658,943.52948
14,0.108,326.67548,-238.44162,1115.10742,292.3699,-272.04752,1014.38367,362.42316,-248.65826,943.93799
15,0.117,326.59738,-238.84291,1115.17712,291.99936,-272.13022,1014.83685,362.9743,-249.26022,944.56525
16,0.125,325.76923,-238.96236,1115.06628,291.99936,-272.13022,1014.83685,363.2124,-249.55559,944.5307
17,0.133,325.76923,-238.96236,1115.06628,291.89481,-272.26849,1014.86816,363.36005,-249.4245,944.94879
18,0.142,325.76923,-238.96236,1115.06628,291.89481,-272.26849,1014.86816,362.854,-249.26221,945.10315
19,0.15,325.76923,-238.96236,1115.06628,291.89481,-272.26849,1014.86816,363.42157,-249.60896,946.0155
20,0.158,325.4209,-239.34511,1115.33606,291.4776,-272.05475,1014.90637,363.42157,-249.60896,946.0155
21,0.167,325.06073,-239.56656,1115.49707,291.49802,-272.46542,1015.07477,363.42157,-249.60896,946.0155
22,0.175,324.72076,-239.59953,1116.02332,291.14322,-272.4588,1015.00916,363.42157,-249.60896,946.0155
23,0.183,324.94937,-239.47527,1115.99792,291.14322,-272.4588,1015.00916,363.42157,-249.60896,946.0155
24,0.192,324.90451,-239.52211,1115.7948,291.34238,-272.62057,1015.04449,362.84991,-248.93759,945.11981
25,0.2,324.73947,-239.86615,1115.51111,291.00464,-272.74765,1014.88123,362.41138,-248.64659,944.89545
26,0.208,325.02048,-239.73761,1114.86572,291.3259,-272.75684,1014.33411,360.89099,-248.5269,944.44049
27,0.217,325.02048,-239.73761,1114.86572,291.11707,-272.74124,1014.36926,361.28577,-248.62766,944.23755
28,0.225,325.02048,-239.73761,1114.86572,291.43765,-272.58862,1014.22156,361.25974,-248.39217,943.98798
29,0.233,324.96759,-239.82262,1114.73193,291.4653,-272.69751,1014.10632,361.25974,-248.39217,943.98798
30,0.242,324.96759,-239.82262,1114.73193,291.6637,-272.52502,1012.88159,361.46027,-248.23671,943.80597
31,0.25,325.41403,-239.89288,1114.37866,291.6637,-272.52502,1012.88159,361.21451,-248.86378,943.37701
32,0.258,325.52274,-239.88541,1114.23291,291.67236,-272.63449,1012.79132,360.71069,-248.69766,943.14398
33,0.267,325.66455,-239.9399,1114.11707,291.67236,-272.63449,1012.79132,360.83673,-248.46703,942.90662
34,0.275,325.66455,-239.9399,1114.11707,291.67236,-272.63449,1012.79132,360.77182,-248.39581,942.63385
35,0.283,325.66455,-239.9399,1114.11707,291.67236,-272.63449,1012.79132,360.77182,-248.39581,942.63385
36,0.292,325.66455,-239.9399,1114.11707,291.67236,-272.63449,1012.79132,360.51514,-248.57913,942.82202
37,0.3,325.90707,-239.72739,1114.18445,291.6637,-272.52502,1012.88159,360.71069,-248.69766,943.14398
38,0.308,325.90707,-239.72739,1114.18445,291.33081,-272.62943,1013.08063,360.43402,-248.88647,943.00586
39,0.317,325.76529,-239.67288,1114.30029,291.13245,-272.80173,1014.30518,360.1731,-249.12961,943.27148
40,0.325,325.76529,-239.67288,1114.30029,290.87329,-272.78986,1014.34119,360.14297,-249.36374,943.22168
41,0.333,325.41403,-239.89288,1114.37866,290.87329,-272.78986,1014.34119,360.33633,-249.1067,943.52252
42,0.342,325.35266,-239.85321,1114.78101,290.87329,-272.78986,1014.34119,360.28812,-249.02068,943.57977
43,0.35,325.29977,-239.93823,1114.64734,290.87329,-272.78986,1014.34119,360.72559,-249.49278,943.31604
44,0.358,325.04703,-240.21436,1114.69031,290.87329,-272.78986,1014.34119,360.65433,-249.65771,943.9043
45,0.367,324.96207,-240.33897,1114.96936,290.63168,-272.99368,1014.31738,360.97501,-249.53368,943.9859
46,0.375,324.96207,-240.33897,1114.96936,290.63168,-272.99368,1014.31738,360.97501,-249.53368,943.9859
47,0.383,324.67761,-240.42491,1114.96936,290.63168,-272.99368,1014.31738,360.97501,-249.53368,943.9859
48,0.392,324.51596,-240.56326,1115.07117,290.63168,-272.99368,1014.31738,360.97501,-249.53368,943.9859
49,0.4,323.99207,-240.72789,1115.76379,290.63168,-272.99368,1014.31738,360.97501,-249.53368,943.9859
50,0.408,323.99207,-240.72789,1115.76379,290.63168,-272.99368,1014.31738,360.52945,-249.75471,944.36847
51,0.417,324.12088,-240.5623,1115.22449,290.63168,-272.99368,1014.31738,360.52945,-249.75471,944.36847
52,0.425,323.99207,-240.72789,1115.76379,290.73853,-273.00858,1014.40887,360.83945,-249.36624,944.55573
53,0.433,323.99207,-240.72789,1115.76379,290.73853,-273.00858,1014.40887,360.65207,-248.70712,944.27448
54,0.442,323.99207,-240.72789,1115.76379,290.73853,-273.00858,1014.40887,360.99207,-249.1087,944.3493
55,0.45,324.51596,-240.56326,1115.07117,290.85275,-273.44592,1014.56476,360.96503,-248.75165,944.15588
56,0.458,324.62476,-240.50989,1114.83569,290.85275,-273.44592,1014.56476,360.63501,-249.13214,943.91107
57,0.467,324.62476,-240.50989,1114.83569,290.82947,-273.56583,1014.49146,360.63501,-249.13214,943.91107
58,0.475,324.62476,-240.50989,1114.83569,291.01035,-273.62689,1014.39899,360.97501,-249.53368,943.9859
59,0.483,325.04703,-240.21436,1114.69031,291.189,-274.25439,1014.24493,361.0022,-249.30397,943.45416
60,0.492,325.01678,-240.33875,1114.54358,291.71552,-273.95941,1013.34833,361.0022,-249.30397,943.45416
61,0.5,325.26868,-240.34023,1114.15527,291.86237,-274.25034,1013.87903,361.0022,-249.30397,943.45416
62,0.508,325.608,-240.35388,1114.2179,291.69525,-273.99765,1013.27167,360.87735,-249.40569,943.16412
63,0.517,325.57773,-240.47826,1114.07129,291.69525,-273.99765,1013.27167,360.87735,-249.40569,943.16412
64,0.525,325.57773,-240.47826,1114.07129,291.82391,-273.93286,1013.35382,360.76071,-249.27985,943.36316
65,0.533,325.57773,-240.47826,1114.07129,291.94839,-274.17722,1013.80786,360.76071,-249.27985,943.36316
66,0.542,325.83038,-240.20221,1114.02844,291.94839,-274.17722,1013.80786,361.0022,-249.30397,943.45416
67,0.55,325.83002,-240.30641,1114.54956,291.8302,-274.02365,1014.33643,361.10617,-249.61893,943.74133
68,0.558,325.83002,-240.30641,1114.54956,291.8302,-274.02365,1014.33643,360.97501,-249.53368,943.9859
69,0.567,325.72034,-240.28589,1114.66406,291.8302,-274.02365,1014.33643,361.10617,-249.61893,943.74133
70,0.575,325.72034,-240.28589,1114.66406,291.8046,-273.97565,1014.37006,361.29568,-249.40974,944.06763
71,0.583,325.38828,-240.45157,1114.93762,291.83136,-273.89484,1014.41498,361.827,-250.10997,944.37482
72,0.592,325.2504,-240.66116,1115.08301,291.89169,-274.07956,1014.33905,362.12769,-250.2886,944.55292
73,0.6,325.22015,-240.75096,1114.9668,291.8302,-274.02365,1014.33643,362.12769,-250.2886,944.55292
74,0.608,325.2504,-240.66116,1115.08301,292.21503,-274.67621,1014.38989,362.54477,-250.66762,945.15399
75,0.617,325.3273,-240.72539,1115.09607,292.21503,-274.67621,1014.38989,362.81717,-250.45773,945.29266
76,0.625,325.16446,-240.86061,1115.19971,292.21503,-274.67621,1014.38989,362.7543,-250.75082,945.75775
77,0.633,325.16446,-240.86061,1115.19971,292.26544,-274.66751,1014.46851,363.15045,-250.6906,945.74713
78,0.642,325.28668,-241.06805,1115.31982,292.43661,-274.73441,1014.66107,362.7543,-250.75082,945.75775
79,0.65,325.08878,-240.79951,1115.18494,292.43661,-274.73441,1014.66107,363.15045,-250.6906,945.74713
80,0.658,325.28668,-241.06805,1115.31982,292.43661,-274.73441,1014.66107,363.15045,-250.6906,945.74713
81,0.667,325.17242,-240.98273,1115.29077,292.43661,-274.73441,1014.66107,363.15045,-250.6906,945.74713
82,0.675,325.28668,-241.06805,1115.31982,292.43661,-274.73441,1014.66107,363.2077,-250.52,945.85297
83,0.683,325.28668,-241.06805,1115.31982,292.43661,-274.73441,1014.66107,363.2077,-250.52,945.85297
84,0.692,325.28668,-241.06805,1115.31982,292.43661,-274.73441,1014.66107,363.35172,-250.38881,945.55121
85,0.7,325.21857,-240.93404,1115.18164,292.37601,-274.74185,1014.57397,363.35172,-250.38881,945.55121
86,0.708,325.3273,-240.72539,1115.09607,292.43661,-274.73441,1014.66107,363.21341,-250.39751,945.28204
87,0.717,325.38022,-240.7957,1115.07971,292.47189,-274.8172,1014.59576,363.09711,-250.19739,944.85938
88,0.725,325.4639,-240.97891,1115.18567,293.00693,-275.03162,1014.1676,363.09711,-250.19739,944.85938
89,0.733,325.57675,-240.97916,1115.04358,293.14526,-275.14105,1014.19672,363.09711,-250.19739,944.85938
90,0.742,325.9935,-240.96252,1114.89734,293.00693,-275.03162,1014.1676,363.33023,-250.26237,944.73303
91,0.75,325.9935,-240.96252,1114.89734,293.07037,-275.14102,1014.07532,363.71848,-250.6474,944.78778
92,0.758,325.9935,-240.96252,1114.89734,293.14526,-275.14105,1014.19672,363.71848,-250.6474,944.78778
93,0.767,326.33835,-240.75336,1115.03137,293.08087,-275.04083,1014.27118,363.33023,-250.26237,944.73303
94,0.775,326.20056,-240.70668,1115.151,293.08087,-275.04083,1014.27118,363.33023,-250.26237,944.73303
95,0.783,326.20056,-240.70668,1115.151,293.08087,-275.04083,1014.27118,363.71848,-250.6474,944.78778
96,0.792,326.14496,-240.68216,1115.37231,292.2756,-274.55322,1014.53845,363.33023,-250.26237,944.73303
97,0.8,326.27322,-240.68286,1115.49707,292.45993,-274.6145,1014.73444,363.7717,-251.14041,945.67542
98,0.808,326.27322,-240.68286,1115.49707,292.52051,-274.60712,1014.82159,363.70801,-251.50674,945.88434
99,0.817,325.815,-240.81635,1115.50305,292.52051,-274.60712,1014.82159,363.31995,-251.12196,945.82977
100,0.825,325.815,-240.81635,1115.50305,292.52051,-274.60712,1014.82159,363.31995,-251.12196,945.82977
101,0.833,325.65335,-240.95468,1115.60486,292.42093,-274.6521,1015.38416,363.70801,-251.50674,945.88434
102,0.842,325.6312,-241.24593,1116.42786,292.52051,-274.60712,1014.82159,363.76529,-251.33621,945.99023
103,0.85,325.5502,-241.41014,1116.59839,292.38974,-274.80237,1014.94934,363.76529,-251.33621,945.99023
104,0.858,325.56409,-241.27704,1116.76111,292.57419,-274.76953,1015.00934,363.76529,-251.33621,945.99023
105,0.867,325.56409,-241.27704,1116.76111,292.34384,-275.00967,1015.69971,363.76529,-251.33621,945.99023
106,0.875,325.56409,-241.27704,1116.76111,292.34384,-275.00967,1015.69971,363.76529,-251.33621,945.99023
107,0.883,325.56409,-241.27704,1116.76111,292.26901,-275.13815,1015.76477,363.76529,-251.33621,945.99023
108,0.892,325.56409,-241.27704,1116.76111,292.53741,-275.20029,1015.27484,363.62021,-250.79982,946.06641
109,0.9,325.49722,-241.22879,1116.74243,292.53741,-275.20029,1015.27484,363.45825,-250.20618,946.17682
110,0.908,325.6312,-241.24593,1116.42786,292.48373,-275.03796,1015.08716,363.2077,-250.52,945.85297
111,0.917,325.47189,-240.9239,1115.45728,292.68936,-274.71429,1014.89429,363.59586,-250.90492,945.90765
112,0.925,325.47189,-240.9239,1115.45728,292.68936,-274.71429,1014.89429,363.2077,-250.52,945.85297
113,0.933,325.63474,-240.78867,1115.35364,293.28995,-275.18988,1014.34454,363.40897,-250.2182,945.6571
114,0.942,325.87143,-240.79349,1115.26514,293.28995,-275.18988,1014.34454,363.40897,-250.2182,945.6571
115,0.95,326.04251,-240.99313,1115.12488,293.54681,-275.28543,1014.24634,363.09711,-250.19739,944.85938
116,0.958,326.44608,-240.85295,1114.97888,293.98419,-275.45114,1014.14246,363.02966,-250.08359,944.55475
117,0.967,326.32706,-240.98207,1114.84534,293.98419,-275.45114,1014.14246,363.60474,-250.436,944.39905
118,0.975,326.91129,-240.78683,1114.59082,294.41946,-275.53259,1014.08282,363.3028,-250.00052,944.14923
119,0.983,327.40634,-240.2982,1114.61523,294.41946,-275.53259,1014.08282,363.18726,-249.9825,944.3855
120,0.992,327.62311,-240.17473,1114.68921,294.41946,-275.53259,1014.08282,363.60474,-250.436,944.39905
121,1,327.94336,-240.16914,1114.38354,294.41946,-275.53259,1014.08282,363.711,-250.39935,944.16223
122,1.008,327.94336,-240.16914,1114.38354,294.41946,-275.53259,1014.08282,363.711,-250.39935,944.16223
123,1.017,328.15448,-240.07979,1114.41638,294.29004,-275.3699,1014.16321,363.60474,-250.436,944.39905
124,1.025,328.15448,-240.07979,1114.41638,294.29004,-275.3699,1014.16321,363.60474,-250.436,944.39905
125,1.033,327.71024,-240.28299,1114.51794,294.59436,-275.6109,1014.22736,363.87607,-250.54637,944.61859
126,1.042,327.50885,-240.22005,1114.95776,294.43109,-275.42145,1014.30066,363.87607,-250.54637,944.61859
127,1.05,327.45914,-240.15392,1115.06116,293.86716,-275.23672,1014.75781,363.87607,-250.54637,944.61859
128,1.058,327.45914,-240.15392,1115.06116,293.59915,-275.00723,1014.73669,364.11676,-251.13542,944.82751
129,1.067,327.44928,-240.04961,1115.1521,293.86716,-275.23672,1014.75781,364.16171,-251.17767,945.12384
130,1.075,327.10205,-240.48123,1115.31946,293.59915,-275.00723,1014.73669,364.00409,-251.2787,945.29309
131,1.083,326.81631,-240.74797,1115.27307,294.29269,-275.70544,1015.13306,364.31198,-251.70114,945.64478
132,1.092,326.56567,-240.70107,1115.53479,294.64505,-275.78152,1015.46381,364.14233,-251.26997,945.56219
133,1.1,326.46951,-240.56387,1115.57336,294.2796,-275.36533,1015.08057,364.19962,-251.09944,945.66803
134,1.108,326.38,-240.80855,1115.78064,294.16196,-275.4317,1015.21497,364.19962,-251.09944,945.66803
135,1.117,326.38,-240.80855,1115.78064,294.64505,-275.78152,1015.46381,364.20956,-250.88293,945.92517
136,1.125,326.38,-240.80855,1115.78064,294.75464,-276.12369,1015.72058,364.20956,-250.88293,945.92517
137,1.133,326.57623,-240.68956,1115.85693,294.93533,-276.18469,1015.62836,364.20956,-250.88293,945.92517
138,1.142,326.38,-240.80855,1115.78064,294.93533,-276.18469,1015.62836,364.20956,-250.88293,945.92517
139,1.15,326.38,-240.80855,1115.78064,294.93533,-276.18469,1015.62836,364.04016,-250.45164,945.84259
140,1.158,326.38,-240.80855,1115.78064,295.03503,-276.13971,1015.06537,364.27197,-250.54366,945.68408
141,1.167,326.27322,-240.68286,1115.49707,295.03503,-276.13971,1015.06537,364.27197,-250.54366,945.68408
142,1.175,326.62003,-240.86694,1115.19678,294.76291,-275.91586,1014.40045,364.2308,-250.51286,945.4035
143,1.183,326.62991,-240.97118,1115.10583,294.59436,-275.6109,1014.22736,364.2308,-250.51286,945.4035
144,1.192,326.76776,-240.76163,1114.96045,294.41946,-275.53259,1014.08282,363.97635,-250.3215,944.71179
145,1.2,327.16391,-240.51074,1114.54797,294.41946,-275.53259,1014.08282,364.06238,-250.3812,944.47607
146,1.208,327.16391,-240.51074,1114.54797,294.41946,-275.53259,1014.08282,364.06238,-250.3812,944.47607
147,1.217,327.77252,-240.2821,1114.49524,294.59995,-275.53137,1013.86053,364.06238,-250.3812,944.47607
148,1.225,327.96219,-240.29666,1114.40417,294.76431,-275.70981,1013.80908,364.06238,-250.3812,944.47607
149,1.233,328.09872,-240.20039,1114.2843,294.24295,-275.49619,1013.65533,364.06238,-250.3812,944.47607
150,1.242,328.09872,-240.20039,1114.2843,294.0679,-275.4736,1013.85699,364.16699,-250.34796,944.24408
151,1.25,328.15448,-240.07979,1114.41638,294.0679,-275.4736,1013.85699,363.87607,-250.54637,944.61859
152,1.258,328.15448,-240.07979,1114.41638,294.2193,-275.54187,1013.98053,364.11676,-251.13542,944.82751
153,1.267,328.01794,-240.17606,1114.53613,295.03958,-276.16345,1014.76544,364.07217,-251.09315,944.53125
154,1.275,327.50885,-240.22005,1114.95776,294.43109,-275.42145,1014.30066,364.32819,-251.69629,944.83899
155,1.283,327.50885,-240.22005,1114.95776,294.2193,-275.54187,1013.98053,364.32819,-251.69629,944.83899
156,1.292,327.45914,-240.15392,1115.06116,293.90341,-275.26596,1013.96539,364.32819,-251.69629,944.83899
157,1.3,327.11194,-240.58551,1115.22839,294.05664,-275.35416,1014.05579,364.17377,-251.70988,945.37573
158,1.308,326.8262,-240.85222,1115.18213,293.92914,-275.49908,1014.12048,364.10764,-252.09027,945.47308
159,1.317,326.62991,-240.97118,1115.10583,293.6611,-275.26959,1014.09943,364.11066,-252.00279,945.84058
160,1.325,326.62991,-240.97118,1115.10583,293.02286,-275.0929,1014.12225,364.11066,-252.00279,945.84058
161,1.333,326.62991,-240.97118,1115.10583,293.02286,-275.0929,1014.12225,364.11066,-252.00279,945.84058
162,1.342,326.38739,-240.78395,1115.25879,293.02286,-275.0929,1014.12225,364.11066,-252.00279,945.84058
163,1.35,326.16296,-241.01131,1115.33972,293.28995,-275.18988,1014.34454,364.11066,-252.00279,945.84058
164,1.358,326.03439,-241.13342,1115.23364,293.28995,-275.18988,1014.34454,364.11066,-252.00279,945.84058
165,1.367,325.92966,-240.99289,1115.26685,293.28995,-275.18988,1014.34454,364.11066,-252.00279,945.84058
166,1.375,325.75998,-240.8889,1115.20166,293.08087,-275.04083,1014.27118,363.94104,-251.57164,945.758
167,1.383,326.04251,-240.99313,1115.12488,293.08087,-275.04083,1014.27118,364.0975,-251.22775,945.26587
168,1.392,325.9935,-240.96252,1114.89734,293.14526,-275.14105,1014.19672,363.85687,-250.63873,945.05701
169,1.4,325.9935,-240.96252,1114.89734,293.14526,-275.14105,1014.19672,363.71848,-250.6474,944.78778
170,1.408,325.9935,-240.96252,1114.89734,293.32724,-275.2366,1013.97705,363.44714,-250.53706,944.5683
171,1.417,325.99411,-241.06816,1114.7627,293.32724,-275.2366,1013.97705,362.79651,-250.01857,944.68115
172,1.425,326.13297,-241.06818,1114.47424,293.32724,-275.2366,1013.97705,362.54688,-250.46124,946.38727
173,1.433,326.13297,-241.06818,1114.47424,293.32724,-275.2366,1013.97705,362.06561,-250.14032,945.71082
174,1.442,326.556,-240.73772,1114.39856,293.08319,-275.16574,1013.7912,362.23407,-250.06136,944.0907
175,1.45,326.556,-240.73772,1114.39856,292.8418,-275.05981,1013.88684,361.97678,-250.17737,944.00543
176,1.458,326.556,-240.73772,1114.39856,292.8418,-275.05981,1013.88684,361.81918,-250.27843,944.17468
177,1.467,326.45215,-240.76707,1114.69275,292.77206,-274.94876,1013.97449,361.97678,-250.17737,944.00543
178,1.475,326.74326,-240.327,1114.47949,292.21503,-274.67621,1014.38989,361.81918,-250.27843,944.17468
179,1.483,326.62903,-240.37233,1114.74805,292.26544,-274.66751,1014.46851,361.50641,-250.23392,944.29321
180,1.492,326.97131,-240.05502,1114.9104,292.26544,-274.66751,1014.46851,361.50641,-250.23392,944.29321
181,1.5,326.57822,-240.4845,1114.97705,292.2756,-274.55322,1014.53845,361.50641,-250.23392,944.29321
182,1.508,326.26215,-240.69838,1115.21912,292.2756,-274.55322,1014.53845,361.50641,-250.23392,944.29321
183,1.517,326.14496,-240.68216,1115.37231,292.2756,-274.55322,1014.53845,361.67435,-250.67792,944.73529
184,1.525,325.9039,-240.76042,1115.32886,292.2756,-274.55322,1014.53845,361.97495,-250.85674,944.91351
185,1.533,325.63474,-240.78867,1115.35364,292.16977,-274.59271,1014.64337,361.89804,-251.30138,945.39343
186,1.542,325.63474,-240.78867,1115.35364,291.95181,-274.54083,1014.71686,361.97495,-250.85674,944.91351
187,1.55,325.47189,-240.9239,1115.45728,291.95181,-274.54083,1014.71686,362.0914,-251.05687,945.33636
188,1.558,325.47189,-240.9239,1115.45728,291.75845,-274.58566,1014.68799,362.4119,-250.93288,945.41785
189,1.567,325.28668,-241.06805,1115.31982,291.75845,-274.58566,1014.68799,362.46915,-251.0193,945.7121
190,1.575,325.28668,-241.06805,1115.31982,291.60574,-274.69281,1014.92615,362.46915,-251.0193,945.7121
191,1.583,325.16446,-240.86061,1115.19971,291.35104,-275.10846,1015.51074,362.46915,-251.0193,945.7121
192,1.592,325.16446,-240.86061,1115.19971,291.00342,-275.16531,1015.565,362.11136,-250.75415,945.23969
193,1.6,325.3273,-240.72539,1115.09607,292.21893,-274.80432,1014.61389,361.94357,-250.31023,944.79773
