Frame#,Time,L.Forearm.x,L.Forearm.y,L.Forearm.z,L.Ulna.x,L.Ulna.y,L.Ulna.z,L.Radius.x,L.Radius.y,L.Radius.z
1,0,201.43459,216.94185,1001.01703,275.88901,246.23343,992.7594,277.94891,177.09995,1025.26477
2,0.008,201.9464,216.61079,1001.54547,276.93744,245.24059,993.18384,279.06998,177.84743,1025.29565
3,0.017,202.70752,215.75031,1001.94055,277.50583,245.98048,994.21472,279.96494,178.35762,1025.83777
4,0.025,202.70752,215.75031,1001.94055,277.07397,245.08553,993.40173,280.53235,177.7699,1025.54688
5,0.033,202.55795,215.78157,1002.05414,277.284,244.75533,993.84064,280.62033,177.33238,1025.85596
6,0.042,203.03012,215.33603,1002.46118,277.77359,245.33528,994.0379,281.091,177.46083,1025.96875
7,0.05,203.56297,215.16634,1003.32538,278.54535,245.14642,994.00177,281.60187,176.94621,1025.82227
8,0.058,203.65984,215.19748,1003.68036,278.79794,244.94099,993.89325,282.47653,177.38924,1025.8468
9,0.067,203.62289,215.12195,1003.58362,279.08051,244.68706,994.19708,282.90253,177.62025,1026.62793
10,0.075,203.90889,214.7435,1004.07831,279.08051,244.68706,994.19708,282.85184,177.40826,1026.81543
11,0.083,203.87431,214.92838,1004.17395,279.68533,244.55542,994.80969,282.85184,177.40826,1026.81543
12,0.092,203.80449,214.5038,1004.17572,279.8317,244.41562,994.88507,283.26114,176.71017,1027.35059
13,0.1,203.93776,214.76093,1004.66669,279.8317,244.41562,994.88507,283.74759,176.00871,1027.43347
14,0.108,204.02368,214.83635,1004.86041,280.12518,244.33136,994.88281,284.1998,175.61249,1027.21582
15,0.117,204.63657,214.86723,1004.84155,280.12518,244.33136,994.88281,284.78702,175.01976,1027.41785
16,0.125,205.38054,215.12573,1005.17267,280.12518,244.33136,994.88281,284.78702,175.01976,1027.41785
17,0.133,206.26262,214.52599,1005.27594,280.46765,244.23282,994.88037,285.45908,176.15324,1027.59998
18,0.142,206.45107,214.15933,1005.52722,281.40536,243.78583,994.84589,286.33093,177.32758,1027.61182
19,0.15,206.89622,214.25868,1005.40631,281.59979,243.70602,994.8562,286.71527,177.09834,1027.92078
20,0.158,206.80132,214.11316,1005.53601,281.39462,243.22496,995.17401,287.26596,177.33464,1027.83105
21,0.167,207.465,213.69627,1005.34131,282.1073,242.47523,995.25232,288.08081,176.67128,1027.11584
22,0.175,207.86684,213.96513,1005.56415,282.1073,242.47523,995.25232,288.59607,176.53818,1027.22827
23,0.183,208.24158,214.01176,1005.93182,282.61505,242.32318,995.43713,288.59607,176.53818,1027.22827
24,0.192,208.35884,213.99402,1006.19733,282.61505,242.32318,995.43713,288.59607,176.53818,1027.22827
25,0.2,208.35884,213.99402,1006.19733,282.9928,243.72182,995.44531,288.59607,176.53818,1027.22827
26,0.208,208.45308,213.90852,1006.27753,283.44305,243.54491,995.56897,289.26825,177.67206,1027.41028
27,0.217,208.45377,214.1395,1006.06763,283.44305,243.54491,995.56897,289.26825,177.67206,1027.41028
28,0.225,208.68199,213.98427,1006.20691,283.755,243.49678,995.56964,289.26825,177.67206,1027.41028
29,0.233,208.58707,213.83879,1006.33655,283.755,243.49678,995.56964,289.26825,177.67206,1027.41028
30,0.242,208.58707,213.83879,1006.33655,283.91473,243.53137,995.51373,289.26825,177.67206,1027.41028
31,0.25,208.68199,213.98427,1006.20691,284.08224,243.24594,995.30695,289.35791,177.34668,1027.1355
32,0.258,208.94141,214.27287,1006.29395,284.08224,243.24594,995.30695,289.26825,177.67206,1027.41028
33,0.267,209.15479,214.56253,1006.15009,284.08224,243.24594,995.30695,289.65833,177.34036,1027.1532
34,0.275,209.15479,214.56253,1006.15009,283.8678,243.28627,995.01068,290.28726,178.41599,1027.19775
35,0.283,209.15479,214.56253,1006.15009,283.8678,243.28627,995.01068,290.28726,178.41599,1027.19775
36,0.292,209.15479,214.56253,1006.15009,284.45963,243.08304,994.9234,290.33804,178.62747,1027.01025
37,0.3,209.37067,214.89822,1006.03662,284.50034,243.94125,995.12988,290.33804,178.62747,1027.01025
38,0.308,209.37067,214.89822,1006.03662,284.61081,243.84433,995.005,290.54495,178.61092,1026.68542
39,0.317,209.15479,214.56253,1006.15009,284.61081,243.84433,995.005,290.87088,178.44722,1026.36621
40,0.325,209.53438,214.67111,1006.2486,284.86661,243.65004,994.88232,290.87088,178.44722,1026.36621
41,0.333,209.15479,214.56253,1006.15009,285.16272,244.31546,994.96661,290.87088,178.44722,1026.36621
42,0.342,209.53438,214.67111,1006.2486,284.86661,243.65004,994.88232,290.87088,178.44722,1026.36621
43,0.35,209.75031,215.00685,1006.13507,284.86661,243.65004,994.88232,290.94821,178.54865,1026.57678
44,0.358,209.37067,214.89822,1006.03662,285.16272,244.31546,994.96661,290.94821,178.54865,1026.57678
45,0.367,209.75031,215.00685,1006.13507,285.16971,244.56966,994.85938,290.94821,178.54865,1026.57678
46,0.375,209.37067,214.89822,1006.03662,285.00153,244.38492,994.61542,290.95718,178.76927,1026.37109
47,0.383,209.75031,215.00685,1006.13507,284.96378,244.79398,994.38763,290.95718,178.76927,1026.37109
48,0.392,209.75031,215.00685,1006.13507,284.96378,244.79398,994.38763,290.95718,178.76927,1026.37109
49,0.4,209.39857,214.71648,1005.81763,285.07809,244.86212,994.31183,290.95718,178.76927,1026.37109
50,0.408,209.39857,214.71648,1005.81763,285.07809,244.86212,994.31183,290.95718,178.76927,1026.37109
51,0.417,209.2099,215.09238,1005.466,285.21832,244.81259,994.08179,290.88336,178.61732,1026.18091
52,0.425,208.8645,215.26521,1005.06116,285.21832,244.81259,994.08179,290.70712,178.80011,1025.87488
53,0.433,208.8645,215.26521,1005.06116,284.72714,245.60529,993.69476,290.70712,178.80011,1025.87488
54,0.442,208.99811,215.30246,1005.00616,284.62585,245.67383,992.84131,290.70712,178.80011,1025.87488
55,0.45,208.92822,215.31699,1005.03625,284.88193,245.47943,992.71838,290.59125,178.33754,1025.39661
56,0.458,208.93588,215.55089,1004.76111,284.2894,245.68266,992.80603,290.59125,178.33754,1025.39661
57,0.467,208.85066,215.49002,1004.82373,284.0752,245.72182,992.50946,290.42471,179.26216,1025.42932
58,0.475,208.93588,215.55089,1004.76111,283.58768,245.94211,992.49487,290.42471,179.26216,1025.42932
59,0.483,208.93588,215.55089,1004.76111,283.58768,245.94211,992.49487,290.3089,178.79962,1024.95093
60,0.492,208.9494,215.63174,1004.36475,283.64548,246.42348,991.91956,290.42471,179.26216,1025.42932
61,0.5,208.9494,215.63174,1004.36475,283.39023,246.11093,991.72906,289.81772,179.37256,1025.76123
62,0.508,208.9494,215.63174,1004.36475,283.39023,246.11093,991.72906,289.67792,179.43852,1025.66211
63,0.517,208.7173,215.37944,1004.23547,283.39023,246.11093,991.72906,289.67792,179.43852,1025.66211
64,0.525,208.61284,216.03326,1004.16516,283.39023,246.11093,991.72906,289.20056,179.77937,1025.61255
65,0.533,208.34216,216.51512,1003.71613,283.27731,245.73854,991.41724,288.76236,179.41693,1025.36975
66,0.542,208.24974,216.59953,1003.44513,283.27731,245.73854,991.41724,288.2887,179.01538,1025.0083
67,0.55,208.18925,216.93559,1003.37225,282.74179,246.43369,990.91107,288.21216,179.17676,1024.45129
68,0.558,208.18925,216.93559,1003.37225,282.74179,246.43369,990.91107,287.80032,179.02751,1023.93268
69,0.567,208.11177,217.11017,1003.22101,282.07095,246.79297,990.539,287.53589,178.91148,1024.03308
70,0.575,207.61288,217.27541,1002.80945,281.4101,246.89774,990.34113,287.43759,179.1442,1023.79529
71,0.583,207.24179,217.78426,1002.56329,281.15463,246.58588,990.1507,286.65665,180.04694,1024.07922
72,0.592,206.88849,218.02914,1001.56989,280.71329,246.75528,990.25964,285.77243,181.00267,1022.89929
73,0.6,206.88849,218.02914,1001.56989,280.84906,246.70995,989.91351,285.23029,180.63805,1022.12518
74,0.608,206.20444,218.00072,1000.9184,280.14127,247.88358,990.58099,284.81265,180.84436,1022.17706
75,0.617,205.53072,218.32623,999.52423,279.84476,247.68701,988.70313,284.40741,180.19887,1021.96234
76,0.625,205.3196,218.13914,999.31586,279.84192,247.05804,988.06757,284.181,180.11093,1020.94318
77,0.633,205.42789,218.01671,999.06616,279.56326,247.50047,987.65417,284.181,180.11093,1020.94318
78,0.642,204.98763,218.49606,998.67053,279.31323,247.91966,987.51465,283.77713,180.61432,1019.81342
79,0.65,204.17668,219.09082,997.61121,279.2702,247.5553,987.03906,283.44559,181.07439,1019.49023
80,0.658,203.94992,219.32225,996.77808,279.05798,248.30701,986.37994,282.99377,181.3842,1019.50214
81,0.667,203.12766,220.28798,996.1073,277.90567,248.44016,985.99658,282.91568,181.6288,1019.08002
82,0.675,203.44594,220.38634,995.95117,277.76614,248.48729,985.29608,281.659,182.22769,1018.70508
83,0.683,202.59377,220.51353,995.29504,277.0123,248.82434,984.55377,281.17264,182.5336,1018.39221
84,0.692,201.13042,220.40575,994.4729,277.13553,249.10582,984.27313,280.444,181.96281,1017.77972
85,0.7,201.31583,219.9953,993.88458,275.96967,249.79959,983.33014,278.82047,182.24031,1016.96417
86,0.708,200.30348,221.04149,993.1095,274.85071,250.65375,982.75049,278.32495,182.79173,1016.92859
87,0.717,199.91853,221.25433,991.7713,274.66995,250.51395,982.57086,278.13864,182.12502,1016.34619
88,0.725,199.21713,222.33675,990.89923,273.65256,250.81483,981.49927,276.50494,183.41057,1015.35138
89,0.733,198.62968,221.96889,990.32465,273.08926,250.35539,980.78101,275.84595,182.67599,1014.97131
90,0.742,198.48557,222.3378,990.02045,272.72504,250.41934,979.66772,274.13574,180.79056,1014.12384
91,0.75,197.73898,222.79326,988.14099,271.83478,249.67519,978.99976,273.36139,181.33676,1013.68854
92,0.758,196.42612,223.24239,986.99902,271.04892,250.32219,978.72498,272.63885,182.17752,1013.06647
93,0.767,196.09344,222.76811,986.31537,270.1095,250.50221,977.91663,271.47101,183.49849,1012.41034
94,0.775,195.74312,223.03239,986.12878,268.70972,250.03691,977.15076,270.5925,183.61319,1012.10205
95,0.783,194.57385,223.65733,985.13141,268.6051,250.22827,976.43591,269.21417,182.61865,1011.32623
96,0.792,194.3083,223.89772,984.60516,268.16486,251.31564,975.26465,268.34653,184.11414,1010.86688
97,0.8,192.79292,223.60387,983.15955,267.75647,251.84727,974.20422,268.45108,184.32451,1010.67206
98,0.808,191.56343,224.13158,981.83569,266.61655,252.02864,973.14807,266.84476,184.41534,1010.07239
99,0.817,191.34985,225.56915,980.99933,265.62839,252.35948,972.84369,264.74057,183.27669,1008.77606
100,0.825,190.26453,225.65993,979.58801,264.18057,252.22063,972.32788,263.02353,185.55519,1008.12762
101,0.833,190.05502,225.48891,979.10278,263.28696,252.9417,971.25763,262.02524,185.04593,1006.93341
102,0.842,187.30672,226.54007,977.46667,262.35721,253.02612,970.70764,261.67859,184.53619,1006.00745
103,0.85,186.44424,227.29668,977.30652,265.00204,252.43211,970.14429,259.53696,183.83568,1005.17737
104,0.858,187.0531,228.45026,974.979,263.30664,252.70909,969.24738,257.80237,185.09503,1004.5896
105,0.867,186.63785,228.15762,974.06738,261.83469,252.8699,968.43304,256.31317,185.71324,1004.48242
106,0.875,184.77344,228.58537,972.81921,261.94818,251.63553,966.71582,255.6402,187.54178,1003.34418
107,0.883,182.96619,229.08188,972.31622,260.63101,253.00374,965.70337,253.47539,186.5605,1001.8551
108,0.892,182.0582,229.2847,970.91412,259.41357,252.88338,964.33276,252.44701,186.31364,1001.64551
109,0.9,181.66855,229.20703,969.50415,258.18063,252.4722,963.5332,251.60228,186.16096,1000.61328
110,0.908,180.19785,229.94218,968.17151,256.97391,252.99034,962.8913,248.65932,187.1008,999.90747
111,0.917,177.83443,230.90082,967.43018,256.41254,252.86104,962.09283,247.28421,186.89839,999.0592
112,0.925,176.89262,231.89211,966.36981,255.4043,253.5739,960.45166,245.94785,187.78777,997.81805
113,0.933,176.38078,232.21971,965.5722,254.46213,253.03831,959.19568,245.00739,187.51546,997.02405
114,0.942,174.6996,232.76508,964.4021,253.82527,253.67789,958.28589,243.17068,188.79308,996.09235
115,0.95,173.49384,233.11221,962.70703,251.90273,254.20645,957.37708,241.24858,188.88048,995.51447
116,0.958,172.86647,233.33417,961.27209,251.14268,253.33124,956.19153,239.84006,189.3084,994.9809
117,0.967,171.54854,233.41127,959.7547,249.72208,253.67503,955.02765,238.51166,189.72498,994.87323
118,0.975,170.65408,234.12004,959.13049,248.88632,254.34363,953.87329,236.35945,189.20183,993.65381
119,0.983,169.13908,234.4355,957.77655,247.65218,254.97154,952.65179,234.75119,190.93573,991.42303
120,0.992,168.37468,234.35117,956.4837,246.85339,253.56898,951.85126,232.68088,191.47232,990.84888
121,1,165.93813,236.96263,954.50446,244.9882,253.94716,950.59064,231.21855,191.57706,990.00525
122,1.008,164.20602,237.00989,953.47229,243.03188,254.65897,950.35291,230.32896,191.43353,989.71991
123,1.017,163.89291,237.17653,952.25964,242.42964,254.11189,949.30243,227.51375,190.95464,988.60522
124,1.025,161.95493,238.29424,949.96594,240.75362,254.65274,947.21191,225.79182,192.82016,986.47943
125,1.033,159.73506,239.37276,948.54907,238.8013,255.08046,946.24011,223.41029,192.79613,985.72858
126,1.042,159.30132,239.92537,947.85846,237.89999,256.33347,945.61383,222.2556,193.21352,985.61395
127,1.05,158.15868,240.69586,946.90057,237.07101,256.12064,944.34668,219.94992,194.29744,984.63983
128,1.058,156.29616,240.70074,945.29163,235.46745,256.63562,943.24261,217.83109,194.07176,982.61884
129,1.067,155.08707,241.16835,943.79419,233.83481,256.5278,941.56464,216.63286,194.35657,981.72205
130,1.075,153.25598,241.65971,942.21497,233.42404,256.71304,940.78876,214.13545,194.14632,981.11444
131,1.083,151.37767,243.46411,940.69995,231.52831,256.25253,939.20068,212.24338,195.21768,979.81085
132,1.092,150.08698,243.64758,940.00665,229.14384,256.13986,937.73615,211.21852,195.7274,979.47278
133,1.1,148.13693,244.81328,938.57898,228.70665,256.47046,936.82166,208.50694,195.87674,977.28864
134,1.108,146.83804,245.15163,936.85229,226.42041,257.33109,935.53607,206.68115,196.29132,977.02771
135,1.117,145.72304,245.46873,935.50574,225.14699,257.34372,934.18738,204.29561,198.84032,976.15381
136,1.125,143.71318,246.55714,934.34729,223.7168,258.24905,932.81732,202.51512,197.65604,974.45935
137,1.133,142.09317,247.12929,932.86932,222.63135,258.25485,931.48962,200.51785,197.7188,973.9519
138,1.142,140.61517,248.03592,931.78632,220.58188,258.85938,930.8194,198.49568,198.96541,972.54443
139,1.15,139.76263,249.444,929.84277,219.49866,259.19965,929.34406,196.44363,200.12422,971.09045
140,1.158,137.28265,248.69684,927.96252,217.74811,258.38312,928.2619,194.69995,200.48224,970.21381
141,1.167,135.03839,248.4614,927.17279,215.92166,258.51495,926.95355,193.14792,200.35873,969.48553
142,1.175,134.22021,248.62209,926.53613,214.98589,258.68948,925.83057,190.72183,202.00452,968.69464
143,1.183,132.99521,249.44017,924.02832,213.07784,258.98203,924.37097,188.83003,201.41135,967.30292
144,1.192,131.29312,251.36375,923.4563,211.79915,259.73557,923.89014,187.47589,201.75128,966.70361
145,1.2,129.59668,252.27156,922.42236,210.21194,259.72241,922.67291,184.59038,202.43996,966.383
146,1.208,128.46994,252.17032,921.89703,208.29445,260.84918,920.85175,182.93459,202.69151,964.9964
147,1.217,127.73139,253.1991,920.45227,207.53822,260.89001,919.91516,181.51419,203.71266,963.66217
148,1.225,125.43121,253.54433,918.12878,205.78688,260.43542,918.80811,180.11017,204.24446,962.93762
149,1.233,124.54737,254.77094,917.42328,204.18185,260.39429,918.00916,177.58884,204.91745,962.29718
150,1.242,123.4924,254.88751,915.79358,202.80214,261.28256,917.11438,175.33806,205.68062,961.05444
151,1.25,121.24306,253.65526,913.82477,200.82848,261.4472,915.41528,174.41487,205.52603,960.67847
152,1.258,119.36722,255.01918,913.7049,200.60901,261.7338,914.98511,172.5592,206.45815,959.64874
153,1.267,117.86117,256.35031,912.98322,198.52051,261.89352,914.00531,170.3373,205.74815,958.28271
154,1.275,116.25152,256.51636,912.28558,196.85153,262.21802,913.44232,168.51743,206.28845,957.81348
155,1.283,114.73325,256.42627,911.97461,196.06584,262.24973,912.93414,166.52563,207.1805,957.11584
156,1.292,113.90524,257.5376,910.96558,194.01251,263.17233,912.07343,165.05519,206.96193,956.2265
157,1.3,113.09599,257.37079,908.91223,191.98508,262.98669,911.03326,163.43622,207.90533,955.40295
158,1.308,111.7196,259.36157,908.23901,190.75424,262.44165,909.71747,161.23492,208.49825,954.84778
159,1.317,110.22943,258.8385,906.58606,190.02408,262.68088,909.39398,160.25096,209.54309,954.59796
160,1.325,108.24858,258.86865,905.65106,188.33395,263.26779,908.83459,157.77113,209.31406,953.87842
161,1.333,106.73904,260.17697,905.29651,187.4838,263.13269,907.66052,155.43047,209.29147,953.50732
162,1.342,105.81502,261.11032,904.94153,186.40269,263.21777,906.67987,153.99419,210.37799,952.54279
163,1.35,103.64396,261.43985,902.91516,184.28809,264.40341,906.1073,152.47165,210.51141,952.29102
164,1.358,102.61682,260.80865,902.24872,183.1082,264.99817,905.53149,150.92696,210.91728,951.74213
165,1.367,101.77856,261.43512,901.21417,181.48734,263.97147,904.62317,149.90027,211.80771,951.03137
166,1.375,100.64057,260.68036,900.79559,181.12964,263.98392,904.59119,148.71169,212.11731,950.31641
167,1.383,99.06936,261.01138,900.17914,179.58406,264.19571,903.57263,147.34134,212.60616,949.9483
168,1.392,97.15016,262.81223,899.62372,178.21626,264.04257,903.01263,146.19281,212.98013,948.38861
169,1.4,97.16171,263.04056,899.49286,177.49712,263.94785,902.13934,143.87701,213.0289,948.27899
170,1.408,96.20873,263.7468,898.80878,176.55968,264.42856,901.5921,141.87743,212.76003,947.71832
171,1.417,95.3841,265.48407,897.96362,174.98535,264.60947,901.32837,140.60301,212.21083,947.48077
172,1.425,93.52373,264.86066,897.62683,173.70401,264.95493,900.1781,138.91197,212.95236,947.57465
173,1.433,92.44968,265.25113,896.14496,172.94305,265.0112,900.00684,137.64078,214.61412,947.10144
174,1.442,91.23006,264.86288,895.19495,170.50006,264.96527,899.33881,136.53429,216.11693,947.30615
175,1.45,89.66714,266.73401,894.17627,170.24445,264.75671,898.94537,135.17966,216.45251,946.18329
176,1.458,88.18433,265.69077,894.11371,168.49733,265.58398,898.67664,134.02351,216.11581,945.91046
177,1.467,87.8345,266.01187,893.68665,167.3941,265.68823,897.89935,131.358,215.95949,944.10559
178,1.475,87.36237,266.2309,893.77344,165.89206,265.94098,897.77734,130.37512,217.33611,943.83936
179,1.483,85.52223,266.11636,892.10394,164.34879,266.10031,896.86829,128.63275,216.29665,943.27155
180,1.492,83.35409,265.78296,891.17889,163.59001,265.98203,896.55878,126.85303,217.2466,943.36383
181,1.5,82.4437,265.76498,889.72473,163.18097,265.93796,896.45782,125.83153,217.50139,943.35394
182,1.508,82.00671,266.37555,889.43164,161.55875,264.87524,895.28748,124.72898,218.31871,942.11188
183,1.517,80.80665,267.82465,888.73438,160.68446,265.02835,894.92871,123.33741,217.9138,941.47577
184,1.525,79.34127,268.11401,888.12305,159.45689,265.33023,894.1286,122.02216,218.15991,941.66455
185,1.533,78.7952,268.31046,887.66327,159.01259,265.46677,893.67303,119.96826,218.10323,941.03876
186,1.542,78.14769,267.74002,887.13873,157.66765,265.1727,892.96948,119.34331,218.39981,940.53644
187,1.55,77.6595,268.64301,887.58722,156.49011,264.90839,893.06683,117.98016,217.81047,940.10309
188,1.558,76.70359,268.5997,886.11041,155.23067,265.04068,892.87183,115.72374,217.94675,939.88568
189,1.567,74.71986,269.54169,886.43829,154.83076,265.65161,892.73871,114.86575,217.84273,939.20508
190,1.575,73.79025,268.64862,886.00647,153.85724,264.48096,892.09692,113.53826,218.76555,939.4054
191,1.583,72.8037,268.43634,885.58545,152.29044,264.31055,892.13611,112.83947,218.23111,938.47687
192,1.592,72.4695,268.2901,883.7746,150.16013,265.17752,892.12451,110.50757,219.54694,938.54694
193,1.6,70.88187,267.46011,883.21729,149.77232,264.68143,891.81335,109.4399,219.09674,938.35822
194,1.608,70.03497,267.38739,882.64099,149.04324,263.68741,891.27124,108.54818,219.836,937.87299
195,1.617,68.98914,268.32758,882.30591,149.04324,263.68741,891.27124,106.83665,219.14172,937.28137
196,1.625,67.96465,268.87485,882.10193,147.60297,264.03387,890.96295,105.46304,218.79459,936.70544
197,1.633,67.00296,268.78052,882.13715,146.28775,263.82977,891.1275,104.98052,218.73398,936.48914
198,1.642,67.00296,268.78052,882.13715,145.02521,263.95621,890.78687,104.49879,219.30513,936.46454
199,1.65,65.06456,269.82428,881.56171,144.38725,263.23611,890.3454,101.7206,219.54628,936.30463
200,1.658,64.44682,269.89465,881.72949,143.91928,263.49927,889.77222,101.33498,218.90771,935.64862
