Frame#,Time,L.Forearm.x,L.Forearm.y,L.Forearm.z,L.Ulna.x,L.Ulna.y,L.Ulna.z,L.Radius.x,L.Radius.y,L.Radius.z
1,0,465.48889,205.64661,1463.01367,566.44495,284.90649,1450.20532,636.30634,195.5388,1432.10828
2,0.008,465.48889,205.64661,1463.01367,566.44495,284.90649,1450.20532,636.10577,195.16046,1432.3667
3,0.017,465.48889,205.64661,1463.01367,566.53259,284.78052,1450.43726,636.10577,195.16046,1432.3667
4,0.025,465.48889,205.64661,1463.01367,566.53259,284.78052,1450.43726,636.10577,195.16046,1432.3667
5,0.033,465.48889,205.64661,1463.01367,566.72015,284.53455,1450.67981,635.99567,195.23067,1432.67517
6,0.042,465.2652,205.58208,1463.02185,566.51038,284.74219,1450.97156,635.99451,194.77998,1432.27686
7,0.05,465.2652,205.58208,1463.02185,566.69202,284.80093,1451.16809,635.99451,194.77998,1432.27686
8,0.058,465.2652,205.58208,1463.02185,566.44843,284.86435,1451.22888,635.99451,194.77998,1432.27686
9,0.067,465.16617,205.49025,1463.12537,566.47418,284.68051,1451.12085,635.99451,194.77998,1432.27686
10,0.075,465.16617,205.49025,1463.12537,566.44843,284.86435,1451.22888,636.04755,194.92096,1432.63196
11,0.083,465.16617,205.49025,1463.12537,566.27979,284.8038,1451.09607,636.04755,194.92096,1432.63196
12,0.092,465.22977,205.47426,1463.29797,566.14032,284.55469,1451.26892,635.99451,194.77998,1432.27686
13,0.1,465.16617,205.49025,1463.12537,566.2287,284.04538,1451.1239,635.99451,194.77998,1432.27686
14,0.108,465.16617,205.49025,1463.12537,565.68829,284.68457,1451.29871,635.99451,194.77998,1432.27686
15,0.117,465.16617,205.49025,1463.12537,565.68829,284.68457,1451.29871,635.99567,195.23067,1432.67517
16,0.125,465.11105,205.31718,1463.26306,566.14032,284.55469,1451.26892,635.99567,195.23067,1432.67517
17,0.133,465.11105,205.31718,1463.26306,565.68829,284.68457,1451.29871,635.60553,195.46242,1432.87891
18,0.142,465.16617,205.49025,1463.12537,565.42511,284.68576,1451.59082,635.99451,194.77998,1432.27686
19,0.15,464.70236,205.73543,1463.14697,565.42511,284.68576,1451.59082,635.60553,195.46242,1432.87891
20,0.158,464.70236,205.73543,1463.14697,565.51965,284.62399,1451.16589,635.62103,194.91699,1432.47095
21,0.167,464.70236,205.73543,1463.14697,565.18872,284.79315,1451.32666,635.36987,194.85384,1432.32568
22,0.175,464.70236,205.73543,1463.14697,565.35736,284.85373,1451.45947,635.62103,194.91699,1432.47095
23,0.183,464.61646,204.59744,1463.21655,564.7431,283.9227,1451.23169,635.36987,194.85384,1432.32568
24,0.192,464.11105,204.78986,1463.2218,565.21436,284.60931,1451.21863,635.36987,194.85384,1432.32568
25,0.2,464.11105,204.78986,1463.2218,565.54529,284.44012,1451.05786,635.3476,195.39027,1432.69617
26,0.208,464.4436,205.88664,1463.3103,565.62164,283.92612,1450.87683,635.36987,194.85384,1432.32568
27,0.217,464.11105,204.78986,1463.2218,565.18921,283.09842,1450.88904,635.36987,194.85384,1432.32568
28,0.225,464.11105,204.78986,1463.2218,565.18921,283.09842,1450.88904,635.36987,194.85384,1432.32568
29,0.233,464.36673,205.07176,1463.38452,565.18921,283.09842,1450.88904,634.99036,194.28009,1431.91455
30,0.242,464.36673,205.07176,1463.38452,565.62164,283.92612,1450.87683,634.97491,194.12466,1432.08093
31,0.25,464.36673,205.07176,1463.38452,565.05115,282.11716,1451.88159,635.08765,193.10847,1432.42188
32,0.258,464.84433,204.72948,1463.54358,565.05115,282.11716,1451.88159,634.78046,193.38002,1432.39746
33,0.267,464.36673,205.07176,1463.38452,565.18921,283.09842,1450.88904,635.08765,193.10847,1432.42188
34,0.275,464.36673,205.07176,1463.38452,565.05115,282.11716,1451.88159,634.7486,192.15918,1432.90137
35,0.283,464.36673,205.07176,1463.38452,565.69983,283.75665,1450.62915,635.38177,192.91235,1432.19104
36,0.292,464.36673,205.07176,1463.38452,565.26746,282.92874,1450.64111,635.38177,192.91235,1432.19104
37,0.3,464.36673,205.07176,1463.38452,565.26746,282.92874,1450.64111,635.38177,192.91235,1432.19104
38,0.308,464.36673,205.07176,1463.38452,565.26746,282.92874,1450.64111,635.38177,192.91235,1432.19104
39,0.317,464.36673,205.07176,1463.38452,565.26746,282.92874,1450.64111,635.38177,192.91235,1432.19104
40,0.325,464.36673,205.07176,1463.38452,565.69983,283.75665,1450.62915,635.38177,192.91235,1432.19104
41,0.333,464.36673,205.07176,1463.38452,565.26746,282.92874,1450.64111,635.38177,192.91235,1432.19104
42,0.342,464.36673,205.07176,1463.38452,565.1969,281.41315,1451.94971,635.38177,192.91235,1432.19104
43,0.35,464.38666,205.18378,1463.25928,565.28802,282.49033,1450.90076,635.38177,192.91235,1432.19104
44,0.358,464.36673,205.07176,1463.38452,565.15717,281.7966,1451.73523,635.06226,192.0638,1432.60315
45,0.367,464.19739,204.85254,1463.32666,565.37268,282.33804,1450.8197,635.38177,192.91235,1432.19104
46,0.375,464.36673,205.07176,1463.38452,565.1969,281.41315,1451.94971,635.06226,192.0638,1432.60315
47,0.383,464.83044,204.82671,1463.36292,565.1969,281.41315,1451.94971,635.06226,192.0638,1432.60315
48,0.392,464.36673,205.07176,1463.38452,565.29083,282.32706,1450.99292,635.38177,192.91235,1432.19104
49,0.4,464.36673,205.07176,1463.38452,565.89465,282.07098,1450.90637,635.38177,192.91235,1432.19104
50,0.408,464.1792,204.66432,1463.5719,565.89465,282.07098,1450.90637,635.38177,192.91235,1432.19104
51,0.417,464.1792,204.66432,1463.5719,566.02179,281.86621,1450.96924,635.38177,192.91235,1432.19104
52,0.425,464.1792,204.66432,1463.5719,565.32281,281.22092,1451.99719,635.06226,192.0638,1432.60315
53,0.433,464.61646,204.59744,1463.21655,565.32281,281.22092,1451.99719,635.06226,192.0638,1432.60315
54,0.442,464.1792,204.66432,1463.5719,565.88452,280.93393,1451.90601,635.06226,192.0638,1432.60315
55,0.45,464.1792,204.66432,1463.5719,565.32281,281.22092,1451.99719,635.06226,192.0638,1432.60315
56,0.458,464.64288,204.41933,1463.55029,565.41791,282.12234,1451.05579,635.38177,192.91235,1432.19104
57,0.467,464.11105,204.78986,1463.2218,565.29742,282.10648,1451.11987,635.38177,192.91235,1432.19104
58,0.475,463.991,204.44115,1463.4762,565.50311,281.61475,1451.31042,635.38177,192.91235,1432.19104
59,0.483,463.991,204.44115,1463.4762,565.34583,280.92163,1452.12915,635.11011,193.28056,1432.04736
60,0.492,464.11105,204.78986,1463.2218,565.34583,280.92163,1452.12915,635.11011,193.28056,1432.04736
61,0.5,464.48413,204.35269,1463.28369,565.50311,281.61475,1451.31042,635.29114,193.8726,1431.82507
62,0.508,464.48413,204.35269,1463.28369,565.34583,280.92163,1452.12915,634.99329,193.61789,1431.58813
63,0.517,464.45468,204.19617,1463.45447,565.34583,280.92163,1452.12915,635.11011,193.28056,1432.04736
64,0.525,463.991,204.44115,1463.4762,565.57928,281.35907,1451.25024,635.29114,193.8726,1431.82507
65,0.533,463.991,204.44115,1463.4762,565.52399,280.91895,1452.34717,635.22809,193.86963,1431.54639
66,0.542,463.991,204.44115,1463.4762,565.85138,281.32297,1451.92188,635.08179,193.47336,1431.8512
67,0.55,464.45468,204.19617,1463.45447,566.00519,280.92664,1451.63391,635.21582,193.21468,1432.21252
68,0.558,464.45468,204.19617,1463.45447,565.66968,280.26355,1452.74011,634.89954,193.46671,1432.46826
69,0.567,464.64288,204.41933,1463.55029,565.66968,280.26355,1452.74011,634.78046,193.38002,1432.39746
70,0.575,464.64288,204.41933,1463.55029,565.85138,281.32297,1451.92188,634.99414,192.62013,1432.75049
71,0.583,464.45468,204.19617,1463.45447,565.92755,281.06738,1451.86169,634.99414,192.62013,1432.75049
72,0.592,464.45468,204.19617,1463.45447,565.66968,280.26355,1452.74011,634.78046,193.38002,1432.39746
73,0.6,464.45468,204.19617,1463.45447,565.66968,280.26355,1452.74011,634.7486,192.15918,1432.90137
74,0.608,463.991,204.44115,1463.4762,565.92755,281.06738,1451.86169,634.89954,193.46671,1432.46826
75,0.617,464.45468,204.19617,1463.45447,565.82343,281.04309,1451.93262,634.78015,193.62836,1432.08667
76,0.625,464.45468,204.19617,1463.45447,565.82343,281.04309,1451.93262,634.89954,193.46671,1432.46826
77,0.633,464.45468,204.19617,1463.45447,565.82343,281.04309,1451.93262,634.89954,193.46671,1432.46826
78,0.642,463.36896,204.4639,1463.66663,565.57654,280.25198,1452.80347,634.5332,192.84256,1433.04565
79,0.65,463.36896,204.4639,1463.66663,565.57654,280.25198,1452.80347,634.5332,192.84256,1433.04565
80,0.658,463.36896,204.4639,1463.66663,565.59784,280.82407,1451.99451,634.31018,193.57227,1433.07874
81,0.667,463.36896,204.4639,1463.66663,565.82343,281.04309,1451.93262,634.70007,193.34094,1432.875
82,0.675,463.36896,204.4639,1463.66663,565.92926,280.65436,1451.83362,634.31018,193.57227,1433.07874
83,0.683,463.36896,204.4639,1463.66663,565.82343,281.04309,1451.93262,633.98224,192.58348,1433.42053
84,0.692,463.36896,204.4639,1463.66663,565.92926,280.65436,1451.83362,633.98224,192.58348,1433.42053
85,0.7,463.36896,204.4639,1463.66663,565.2901,280.51404,1452.03479,633.98224,192.58348,1433.42053
86,0.708,463.36896,204.4639,1463.66663,565.62158,280.34436,1451.87378,633.98224,192.58348,1433.42053
87,0.717,463.36896,204.4639,1463.66663,564.81812,279.82745,1452.04785,633.98224,192.58348,1433.42053
88,0.725,463.36896,204.4639,1463.66663,564.81812,279.82745,1452.04785,633.98224,192.58348,1433.42053
89,0.733,463.36896,204.4639,1463.66663,564.81812,279.82745,1452.04785,633.81122,192.10197,1433.54749
90,0.742,463.36896,204.4639,1463.66663,565.2901,280.51404,1452.03479,633.81122,192.10197,1433.54749
91,0.75,463.36896,204.4639,1463.66663,565.2901,280.51404,1452.03479,633.98224,192.58348,1433.42053
92,0.758,463.36896,204.4639,1463.66663,565.2901,280.51404,1452.03479,633.98224,192.58348,1433.42053
93,0.767,463.36896,204.4639,1463.66663,564.81812,279.82745,1452.04785,633.81122,192.10197,1433.54749
94,0.775,463.36896,204.4639,1463.66663,564.81812,279.82745,1452.04785,633.81122,192.10197,1433.54749
95,0.783,463.36896,204.4639,1463.66663,565.18433,280.90271,1452.13391,633.81122,192.10197,1433.54749
96,0.792,463.36896,204.4639,1463.66663,565.18433,280.90271,1452.13391,633.98224,192.58348,1433.42053
97,0.8,463.36896,204.4639,1463.66663,565.18433,280.90271,1452.13391,633.98224,192.58348,1433.42053
98,0.808,463.36896,204.4639,1463.66663,565.18433,280.90271,1452.13391,633.98224,192.58348,1433.42053
99,0.817,463.20792,204.33296,1463.57556,565.18433,280.90271,1452.13391,633.98224,192.58348,1433.42053
100,0.825,463.36896,204.4639,1463.66663,565.18433,280.90271,1452.13391,633.81122,192.10197,1433.54749
101,0.833,463.20792,204.33296,1463.57556,565.18433,280.90271,1452.13391,633.98224,192.58348,1433.42053
102,0.842,463.20792,204.33296,1463.57556,564.39984,280.20746,1451.98193,633.81122,192.10197,1433.54749
103,0.85,462.80945,204.41989,1463.75793,564.23529,280.25073,1451.95935,633.81122,192.10197,1433.54749
104,0.858,462.61359,204.29579,1463.68762,564.23529,280.25073,1451.95935,633.49091,191.33551,1433.30103
105,0.867,463.20792,204.33296,1463.57556,564.44373,280.83072,1451.46875,633.49091,191.33551,1433.30103
106,0.875,463.20792,204.33296,1463.57556,564.44373,280.83072,1451.46875,633.49091,191.33551,1433.30103
107,0.883,462.61359,204.29579,1463.68762,563.97186,280.14404,1451.48169,633.49091,191.33551,1433.30103
108,0.892,461.71735,204.71196,1463.43628,564.23529,280.25073,1451.95935,633.49091,191.33551,1433.30103
109,0.9,462.09308,204.25168,1463.33594,563.75836,280.57455,1451.34692,633.49091,191.33551,1433.30103
110,0.908,462.69513,203.84058,1463.1283,564.44373,280.83072,1451.46875,633.49091,191.33551,1433.30103
111,0.917,462.49142,204.16464,1463.15381,564.44373,280.83072,1451.46875,633.49091,191.33551,1433.30103
112,0.925,461.62933,204.49626,1463.35754,563.75836,280.57455,1451.34692,633.49091,191.33551,1433.30103
113,0.933,461.62933,204.49626,1463.35754,563.75836,280.57455,1451.34692,633.49091,191.33551,1433.30103
114,0.942,461.62933,204.49626,1463.35754,564.23022,281.26099,1451.33398,633.73633,191.93762,1433.0675
115,0.95,462.09308,204.25168,1463.33594,564.23022,281.26099,1451.33398,633.49091,191.33551,1433.30103
116,0.958,462.18109,204.46733,1463.41467,563.68231,280.83032,1451.40723,633.49091,191.33551,1433.30103
117,0.967,461.71735,204.71196,1463.43628,563.75836,280.57455,1451.34692,633.52094,191.03732,1433.40942
118,0.975,461.71735,204.71196,1463.43628,563.50281,281.19464,1451.19177,633.04449,191.13029,1433.41675
119,0.983,461.54059,204.72873,1463.52039,563.93616,282.0217,1451.17981,633.52094,191.03732,1433.40942
120,0.992,462.00433,204.48402,1463.49878,564.02795,281.70792,1451.11865,633.52094,191.03732,1433.40942
121,1,461.54059,204.72873,1463.52039,563.59454,280.88074,1451.13062,633.27332,192.5527,1432.83093
122,1.008,461.45258,204.51303,1463.44165,563.59454,280.88074,1451.13062,633.00513,191.45477,1433.31689
123,1.017,461.62933,204.49626,1463.35754,563.75836,280.57455,1451.34692,633.00513,191.45477,1433.31689
124,1.025,461.91632,204.26836,1463.42004,563.68231,280.83032,1451.40723,632.51935,191.57378,1433.33301
125,1.033,461.91632,204.26836,1463.42004,563.75836,280.57455,1451.34692,632.51935,191.57378,1433.33301
126,1.042,461.45258,204.51303,1463.44165,563.75836,280.57455,1451.34692,633.00513,191.45477,1433.31689
127,1.05,461.45258,204.51303,1463.44165,563.75836,280.57455,1451.34692,632.51935,191.57378,1433.33301
128,1.058,461.45258,204.51303,1463.44165,563.75836,280.57455,1451.34692,632.10626,192.39435,1433.09644
129,1.067,461.62933,204.49626,1463.35754,563.75836,280.57455,1451.34692,632.10626,192.39435,1433.09644
130,1.075,461.45258,204.51303,1463.44165,563.75836,280.57455,1451.34692,632.39392,191.56966,1433.63293
131,1.083,461.45258,204.51303,1463.44165,563.75836,280.57455,1451.34692,632.57465,192.3392,1433.05957
132,1.092,461.31549,204.55806,1463.5437,563.75836,280.57455,1451.34692,632.87964,191.45059,1433.61682
133,1.1,461.31549,204.55806,1463.5437,563.75836,280.57455,1451.34692,632.87964,191.45059,1433.61682
134,1.108,461.77924,204.31329,1463.52209,564.28143,281.36957,1451.5625,632.87964,191.45059,1433.61682
135,1.117,462.00433,204.48402,1463.49878,564.02185,280.68121,1451.82446,632.87964,191.45059,1433.61682
136,1.125,461.86725,204.52898,1463.60083,564.23529,280.25073,1451.95935,632.87964,191.45059,1433.61682
137,1.133,461.54059,204.72873,1463.52039,564.02185,280.68121,1451.82446,633.36542,191.33127,1433.60083
138,1.142,462.23318,204.63669,1463.79724,564.23529,280.25073,1451.95935,632.57465,192.3392,1433.05957
139,1.15,462.0961,204.68166,1463.89929,564.23529,280.25073,1451.95935,632.57465,192.3392,1433.05957
140,1.158,462.25708,204.81271,1463.99023,564.23529,280.25073,1451.95935,633.54779,192.77997,1432.98694
141,1.167,462.25708,204.81271,1463.99023,564.15924,280.50641,1452.01953,633.81122,192.10197,1433.54749
142,1.175,462.43146,204.77847,1463.88684,564.70728,280.93723,1451.94629,633.04309,192.28391,1433.02295
143,1.183,462.43146,204.77847,1463.88684,564.41888,281.19492,1451.75757,633.54779,192.77997,1432.98694
144,1.192,462.43146,204.77847,1463.88684,564.23529,280.25073,1451.95935,633.81122,192.10197,1433.54749
145,1.2,462.6351,204.45422,1463.86121,564.23529,280.25073,1451.95935,633.54779,192.77997,1432.98694
146,1.208,462.6058,204.74413,1463.78345,564.54785,280.25964,1452.12439,633.04309,192.28391,1433.02295
147,1.217,462.43146,204.77847,1463.88684,564.70728,280.93723,1451.94629,633.04309,192.28391,1433.02295
148,1.225,462.80945,204.41989,1463.75793,564.70728,280.93723,1451.94629,633.04309,192.28391,1433.02295
149,1.233,462.80945,204.41989,1463.75793,564.23529,280.25073,1451.95935,633.54779,192.77997,1432.98694
150,1.242,462.80945,204.41989,1463.75793,564.54785,280.25964,1452.12439,633.36542,191.33127,1433.60083
151,1.25,462.80945,204.41989,1463.75793,564.54785,280.25964,1452.12439,633.04309,192.28391,1433.02295
152,1.258,462.80945,204.41989,1463.75793,564.23529,280.25073,1451.95935,633.04309,192.28391,1433.02295
153,1.267,462.80945,204.41989,1463.75793,564.23529,280.25073,1451.95935,633.36542,191.33127,1433.60083
154,1.275,462.80945,204.41989,1463.75793,564.23529,280.25073,1451.95935,633.36542,191.33127,1433.60083
155,1.283,462.80945,204.41989,1463.75793,564.54785,280.25964,1452.12439,633.36542,191.33127,1433.60083
156,1.292,462.80945,204.41989,1463.75793,564.65356,279.87079,1452.02527,633.36542,191.33127,1433.60083
157,1.3,462.80945,204.41989,1463.75793,564.50549,279.81854,1451.88281,633.20758,191.74081,1433.26746
158,1.308,462.80945,204.41989,1463.75793,564.65356,279.87079,1452.02527,633.36542,191.33127,1433.60083
159,1.317,462.80945,204.41989,1463.75793,564.81812,279.82745,1452.04785,633.36542,191.33127,1433.60083
160,1.325,462.80945,204.41989,1463.75793,564.81812,279.82745,1452.04785,633.36542,191.33127,1433.60083
161,1.333,462.80945,204.41989,1463.75793,564.81812,279.82745,1452.04785,633.81122,192.10197,1433.54749
162,1.342,462.80945,204.41989,1463.75793,564.81812,279.82745,1452.04785,633.36542,191.33127,1433.60083
163,1.35,462.80945,204.41989,1463.75793,564.81812,279.82745,1452.04785,633.36542,191.33127,1433.60083
164,1.358,462.80945,204.41989,1463.75793,564.81812,279.82745,1452.04785,633.36542,191.33127,1433.60083
165,1.367,463.20792,204.33296,1463.57556,564.81812,279.82745,1452.04785,633.36542,191.33127,1433.60083
166,1.375,463.20792,204.33296,1463.57556,564.81812,279.82745,1452.04785,633.36542,191.33127,1433.60083
167,1.383,463.20792,204.33296,1463.57556,564.81812,279.82745,1452.04785,633.36542,191.33127,1433.60083
168,1.392,463.20792,204.33296,1463.57556,564.81812,279.82745,1452.04785,633.81122,192.10197,1433.54749
169,1.4,463.20792,204.33296,1463.57556,564.81812,279.82745,1452.04785,633.36542,191.33127,1433.60083
170,1.408,462.80945,204.41989,1463.75793,565.2901,280.51404,1452.03479,633.36542,191.33127,1433.60083
171,1.417,463.20792,204.33296,1463.57556,565.2901,280.51404,1452.03479,633.36542,191.33127,1433.60083
172,1.425,463.36896,204.4639,1463.66663,564.81812,279.82745,1452.04785,633.36542,191.33127,1433.60083
173,1.433,463.36896,204.4639,1463.66663,564.81812,279.82745,1452.04785,633.81122,192.10197,1433.54749
174,1.442,462.97049,204.55081,1463.84888,564.81812,279.82745,1452.04785,633.81122,192.10197,1433.54749
175,1.45,462.97049,204.55081,1463.84888,565.2901,280.51404,1452.03479,633.81122,192.10197,1433.54749
176,1.458,463.36896,204.4639,1463.66663,565.2901,280.51404,1452.03479,633.81122,192.10197,1433.54749
177,1.467,463.36896,204.4639,1463.66663,565.12585,280.13748,1452.00769,633.81122,192.10197,1433.54749
178,1.475,463.36896,204.4639,1463.66663,565.12585,280.13748,1452.00769,633.81122,192.10197,1433.54749
179,1.483,463.36896,204.4639,1463.66663,565.2901,280.51404,1452.03479,633.98901,191.77437,1433.9801
180,1.492,463.36896,204.4639,1463.66663,565.59784,280.82407,1451.99451,633.98224,192.58348,1433.42053
181,1.5,463.36896,204.4639,1463.66663,565.59784,280.82407,1451.99451,633.81122,192.10197,1433.54749
182,1.508,463.36896,204.4639,1463.66663,565.12585,280.13748,1452.00769,633.98224,192.58348,1433.42053
183,1.517,463.36896,204.4639,1463.66663,565.65387,280.71896,1452.15149,633.98224,192.58348,1433.42053
184,1.525,463.36896,204.4639,1463.66663,565.59784,280.82407,1451.99451,634.1601,192.25574,1433.85327
185,1.533,463.36896,204.4639,1463.66663,565.70642,280.76013,1452.06787,634.1601,192.25574,1433.85327
186,1.542,463.84198,204.19653,1463.66785,565.70642,280.76013,1452.06787,634.1601,192.25574,1433.85327
187,1.55,463.84198,204.19653,1463.66785,565.23444,280.07355,1452.08105,634.57751,192.38829,1433.80188
188,1.558,464.06561,204.26094,1463.65979,565.12964,279.4025,1452.91589,634.10052,192.89612,1433.32886
189,1.567,464.06561,204.26094,1463.65979,565.92926,280.65436,1451.83362,634.45044,192.9153,1433.70508
190,1.575,463.84198,204.19653,1463.66785,566.03784,280.59042,1451.90686,633.98224,192.58348,1433.42053
191,1.583,463.59256,204.52823,1463.65845,565.92926,280.65436,1451.83362,634.38202,191.27298,1433.96802
192,1.592,464.06561,204.26094,1463.65979,566.03784,280.59042,1451.90686,634.38202,191.27298,1433.96802
193,1.6,464.06561,204.26094,1463.65979,565.92926,280.65436,1451.83362,634.38202,191.27298,1433.96802
194,1.608,464.69617,203.90417,1463.66138,565.92926,280.65436,1451.83362,634.38202,191.27298,1433.96802
195,1.617,464.69617,203.90417,1463.66138,566.49054,280.46014,1451.8772,634.31018,193.57227,1433.07874
196,1.625,464.45468,204.19617,1463.45447,565.92926,280.65436,1451.83362,635.0473,191.92838,1433.16504
