Frame#,Time,R.Forearm.x,R.Forearm.y,R.Forearm.z,R.Ulna.x,R.Ulna.y,R.Ulna.z,R.Radius.x,R.Radius.y,R.Radius.z
1,0,484.00095,-141.45642,1471.36194,612.88867,-187.45872,1419.11121,649.08478,-81.54026,1447.49475
2,0.008,484.00095,-141.45642,1471.36194,612.88867,-187.45872,1419.11121,649.08478,-81.54026,1447.49475
3,0.017,484.00095,-141.45642,1471.36194,612.82086,-187.3781,1419.23059,648.48029,-81.10419,1447.73254
4,0.025,484.00095,-141.45642,1471.36194,613.08356,-187.1774,1419.70288,648.48029,-81.10419,1447.73254
5,0.033,483.97925,-140.82047,1471.60754,613.08356,-187.1774,1419.70288,648.48029,-81.10419,1447.73254
6,0.042,483.59616,-140.96474,1471.7627,612.88739,-187.22403,1419.72913,648.40643,-80.8269,1448.13062
7,0.05,483.52509,-140.30603,1471.57898,613.09528,-186.94481,1419.72229,648.40643,-80.8269,1448.13062
8,0.058,483.52509,-140.30603,1471.57898,613.29834,-186.54968,1419.84985,648.40643,-80.8269,1448.13062
9,0.067,483.52509,-140.30603,1471.57898,613.44415,-186.33575,1419.8468,648.40643,-80.8269,1448.13062
10,0.075,483.52509,-140.30603,1471.57898,613.32422,-185.74789,1419.87891,648.62836,-81.00491,1448.25293
11,0.083,483.52509,-140.30603,1471.57898,613.6925,-185.34427,1419.9491,648.62836,-81.00491,1448.25293
12,0.092,483.52509,-140.30603,1471.57898,613.87762,-185.12462,1420.09485,648.32275,-80.81441,1449.04138
13,0.1,483.61899,-139.5614,1471.88196,613.29095,-186.0034,1420.56091,648.32275,-80.81441,1449.04138
14,0.108,483.59894,-140.00038,1472.19116,613.23297,-185.35011,1420.58936,648.32275,-80.81441,1449.04138
15,0.117,483.66983,-140.65916,1472.37488,613.29095,-186.0034,1420.56091,648.2489,-80.53689,1449.43933
16,0.125,483.66983,-140.65916,1472.37488,612.93719,-186.49638,1420.57068,648.2489,-80.53689,1449.43933
17,0.133,483.66983,-140.65916,1472.37488,614.38623,-187.01826,1420.08679,647.85089,-82.13583,1449.82568
18,0.142,483.66983,-140.65916,1472.37488,614.17828,-187.29749,1420.09363,647.85089,-82.13583,1449.82568
19,0.15,483.66983,-140.65916,1472.37488,614.09741,-187.41492,1420.23987,647.68939,-82.15018,1449.9325
20,0.158,483.66983,-140.65916,1472.37488,612.80426,-187.87167,1421.71399,647.93048,-80.78107,1449.94421
21,0.167,483.69501,-141.10318,1473.06042,612.80426,-187.87167,1421.71399,647.46777,-82.49979,1450.15356
22,0.175,483.66873,-140.84497,1473.23462,612.80426,-187.87167,1421.71399,647.46777,-82.49979,1450.15356
23,0.183,483.59134,-141.29929,1473.33093,612.80426,-187.87167,1421.71399,647.46777,-82.49979,1450.15356
24,0.192,483.1579,-141.44881,1473.48865,612.80426,-187.87167,1421.71399,647.52094,-82.12102,1449.98401
25,0.2,483.10605,-141.37445,1472.53271,613.23553,-187.71851,1421.22266,647.52094,-82.12102,1449.98401
26,0.208,483.10605,-141.37445,1472.53271,612.80426,-187.87167,1421.71399,647.42493,-81.97488,1449.83679
27,0.217,483.25473,-141.07164,1472.33118,611.64893,-187.08475,1421.64148,647.42493,-81.97488,1449.83679
28,0.225,483.25473,-141.07164,1472.33118,611.64893,-187.08475,1421.64148,647.18561,-81.82183,1449.75793
29,0.233,483.25473,-141.07164,1472.33118,611.64893,-187.08475,1421.64148,647.42493,-81.97488,1449.83679
30,0.242,483.25473,-141.07164,1472.33118,611.82056,-186.58876,1420.90063,647.83453,-80.6351,1449.797
31,0.25,483.25473,-141.07164,1472.33118,611.76239,-185.93513,1420.92932,648.01636,-80.63438,1449.69751
32,0.258,483.25473,-141.07164,1472.33118,611.76239,-185.93513,1420.92932,647.60681,-81.97407,1449.73718
33,0.267,483.25473,-141.07164,1472.33118,612.45343,-186.12503,1420.68726,647.42493,-81.97488,1449.83679
34,0.275,483.25473,-141.07164,1472.33118,611.76239,-185.93513,1420.92932,647.93048,-80.78107,1449.94421
35,0.283,483.21677,-140.70546,1472.52222,611.76239,-185.93513,1420.92932,647.93048,-80.78107,1449.94421
36,0.292,483.1579,-141.44881,1473.48865,611.82056,-186.58876,1420.90063,647.52094,-82.12102,1449.98401
37,0.3,482.98306,-141.23949,1473.03589,611.64893,-187.08475,1421.64148,647.52094,-82.12102,1449.98401
38,0.308,483.1579,-141.44881,1473.48865,611.64893,-187.08475,1421.64148,647.46777,-82.49979,1450.15356
39,0.317,482.78799,-141.17101,1473.23254,611.81158,-187.04529,1421.89563,647.46777,-82.49979,1450.15356
40,0.325,482.98306,-141.23949,1473.03589,611.85358,-187.33978,1421.70667,647.46777,-82.49979,1450.15356
41,0.333,482.78799,-141.17101,1473.23254,611.85358,-187.33978,1421.70667,647.46777,-82.49979,1450.15356
42,0.342,482.78799,-141.17101,1473.23254,611.72107,-187.29581,1421.56323,646.65186,-81.93478,1450.3313
43,0.35,482.82599,-141.53729,1473.0415,611.53192,-187.41728,1421.50098,646.65186,-81.93478,1450.3313
44,0.358,483.02103,-141.60565,1472.84485,611.3689,-187.54118,1421.42554,645.65839,-81.24715,1450.32263
45,0.367,482.82599,-141.53729,1473.0415,611.3689,-187.54118,1421.42554,646.68787,-82.09928,1449.60242
46,0.375,482.82599,-141.53729,1473.0415,611.3689,-187.54118,1421.42554,646.17432,-81.65794,1450.05835
47,0.383,483.02103,-141.60565,1472.84485,611.3689,-187.54118,1421.42554,646.50598,-82.1409,1449.52808
48,0.392,483.10605,-141.37445,1472.53271,612.23114,-187.23502,1420.44287,646.50598,-82.1409,1449.52808
49,0.4,483.10605,-141.37445,1472.53271,611.54041,-187.04539,1420.68481,647.2594,-82.09964,1449.35986
50,0.408,483.10605,-141.37445,1472.53271,611.54041,-187.04539,1420.68481,647.2594,-82.09964,1449.35986
51,0.417,483.10605,-141.37445,1472.53271,611.54041,-187.04539,1420.68481,647.26257,-81.95712,1449.16418
52,0.425,483.10605,-141.37445,1472.53271,611.48218,-186.3918,1420.7135,647.26257,-81.95712,1449.16418
53,0.433,483.10605,-141.37445,1472.53271,611.54041,-187.04539,1420.68481,647.26257,-81.95712,1449.16418
54,0.442,483.25473,-141.07164,1472.33118,611.41003,-186.18065,1420.79163,647.26257,-81.95712,1449.16418
55,0.45,483.10605,-141.37445,1472.53271,611.46826,-186.83429,1420.76294,647.26257,-81.95712,1449.16418
56,0.458,483.10605,-141.37445,1472.53271,611.46826,-186.83429,1420.76294,647.26257,-81.95712,1449.16418
57,0.467,483.25473,-141.07164,1472.33118,611.46826,-186.83429,1420.76294,647.26257,-81.95712,1449.16418
58,0.475,483.10605,-141.37445,1472.53271,611.54041,-187.04539,1420.68481,647.2594,-82.09964,1449.35986
59,0.483,483.10605,-141.37445,1472.53271,611.54041,-187.04539,1420.68481,647.2594,-82.09964,1449.35986
60,0.492,483.10605,-141.37445,1472.53271,611.37708,-187.04608,1420.75024,646.50598,-82.1409,1449.52808
61,0.5,483.02103,-141.60565,1472.84485,611.54041,-187.04539,1420.68481,646.50598,-82.1409,1449.52808
62,0.508,483.10605,-141.37445,1472.53271,611.20563,-187.54178,1421.49084,646.50598,-82.1409,1449.52808
63,0.517,483.02103,-141.60565,1472.84485,611.20563,-187.54178,1421.49084,646.50598,-82.1409,1449.52808
64,0.525,483.02103,-141.60565,1472.84485,611.20563,-187.54178,1421.49084,646.50598,-82.1409,1449.52808
65,0.533,483.02103,-141.60565,1472.84485,611.54041,-187.04539,1420.68481,646.83856,-82.31744,1449.08154
66,0.542,483.02103,-141.60565,1472.84485,611.54041,-187.04539,1420.68481,646.43341,-81.98781,1449.37744
67,0.55,482.62259,-141.78333,1472.52686,611.54041,-187.04539,1420.68481,646.83856,-82.31744,1449.08154
68,0.558,482.70764,-141.55222,1472.2146,611.54041,-187.04539,1420.68481,646.52234,-82.64366,1448.87146
69,0.567,482.70764,-141.55222,1472.2146,611.46545,-187.17317,1420.56946,646.50598,-82.1409,1449.52808
70,0.575,482.48083,-141.49637,1472.15503,611.31097,-187.18655,1420.6167,646.20111,-82.33076,1449.11414
71,0.583,482.06567,-141.90959,1472.11145,611.12146,-187.39203,1420.53149,645.64832,-82.54662,1448.31653
72,0.592,482.22156,-141.30655,1471.9873,611.14984,-187.53845,1420.38281,646.198,-82.24368,1447.81506
73,0.6,481.97299,-140.83954,1471.63416,611.17975,-187.09944,1419.28674,646.18964,-82.0989,1447.6333
74,0.608,482.14655,-140.58359,1471.46802,611.36932,-186.89392,1419.37183,645.82233,-81.931,1448.16345
75,0.617,482.56192,-140.17026,1471.5116,610.97284,-187.19138,1419.26575,646.18964,-82.0989,1447.6333
76,0.625,482.39017,-140.56506,1471.47656,611.28857,-186.95085,1419.22021,646.52216,-81.80277,1447.14319
77,0.633,482.56192,-140.17026,1471.5116,609.86646,-187.05318,1418.93188,646.52216,-81.80277,1447.14319
78,0.642,482.56192,-140.17026,1471.5116,609.85345,-186.6881,1419.10474,646.16284,-81.61186,1447.62488
79,0.65,482.14655,-140.58359,1471.46802,609.9256,-186.89934,1419.02661,645.82233,-81.931,1448.16345
80,0.658,482.14655,-140.58359,1471.46802,609.85345,-186.6881,1419.10474,645.82233,-81.931,1448.16345
81,0.667,482.14655,-140.58359,1471.46802,609.9256,-186.89934,1419.02661,645.82233,-81.931,1448.16345
82,0.675,481.97299,-140.83954,1471.63416,610.97284,-187.19138,1419.26575,645.82233,-81.931,1448.16345
83,0.683,481.97299,-140.83954,1471.63416,610.97284,-187.19138,1419.26575,645.82233,-81.931,1448.16345
84,0.692,481.99472,-141.25073,1471.92761,610.80212,-187.68542,1420.00623,645.98975,-82.79165,1447.94568
85,0.7,481.99472,-141.25073,1471.92761,610.91467,-187.48387,1420.51062,645.98975,-82.79165,1447.94568
86,0.708,482.06567,-141.90959,1472.11145,610.91467,-187.48387,1420.51062,645.98975,-82.79165,1447.94568
87,0.717,481.81564,-141.96198,1472.24817,611.12146,-187.39203,1420.53149,645.34448,-82.42101,1448.30981
88,0.725,481.63766,-142.53792,1472.79688,610.91467,-187.48387,1420.51062,645.91089,-82.3027,1448.6897
89,0.733,481.63766,-142.53792,1472.79688,610.91467,-187.48387,1420.51062,644.88531,-81.67958,1449.64001
90,0.742,481.63766,-142.53792,1472.79688,610.91467,-187.48387,1420.51062,644.88531,-81.67958,1449.64001
91,0.75,481.63766,-142.53792,1472.79688,610.91467,-187.48387,1420.51062,644.88531,-81.67958,1449.64001
92,0.758,481.3877,-142.5907,1472.93372,610.91467,-187.48387,1420.51062,644.85858,-81.51025,1449.42395
93,0.767,481.32123,-141.63501,1472.58459,610.74561,-187.22305,1420.68481,644.49768,-81.5297,1449.10461
94,0.775,481.32123,-141.63501,1472.58459,610.74561,-187.22305,1420.68481,645.37518,-82.17213,1448.2605
95,0.783,481.32123,-141.63501,1472.58459,609.79492,-186.69193,1420.67737,644.97644,-81.95419,1448.78699
96,0.792,481.40161,-141.70052,1472.43774,609.73627,-186.03772,1420.70605,644.97644,-81.95419,1448.78699
97,0.8,481.39233,-140.87923,1472.05469,609.50848,-185.56015,1420.59851,645.51855,-81.8054,1448.15674
98,0.808,480.711,-140.46831,1472.28406,609.50848,-185.56015,1420.59851,645.15057,-81.33882,1448.63391
99,0.817,480.711,-140.46831,1472.28406,609.93921,-185.40796,1420.10718,645.15057,-81.33882,1448.63391
100,0.825,480.79141,-140.53363,1472.13733,609.93921,-185.40796,1420.10718,645.15057,-81.33882,1448.63391
101,0.833,480.79141,-140.53363,1472.13733,609.70428,-185.23607,1419.93115,645.51855,-81.8054,1448.15674
102,0.842,480.711,-140.46831,1472.28406,609.06647,-185.18581,1420.32629,645.15057,-81.33882,1448.63391
103,0.85,480.711,-140.46831,1472.28406,609.93921,-185.40796,1420.10718,645.15057,-81.33882,1448.63391
104,0.858,480.61084,-140.88863,1472.57324,609.50848,-185.56015,1420.59851,645.15057,-81.33882,1448.63391
105,0.867,480.61084,-140.88863,1472.57324,609.31873,-185.263,1420.58862,645.15057,-81.33882,1448.63391
106,0.875,480.61084,-140.88863,1472.57324,609.50848,-185.56015,1420.59851,644.49768,-81.5297,1449.10461
107,0.883,480.61084,-140.88863,1472.57324,609.50848,-185.56015,1420.59851,644.49768,-81.5297,1449.10461
108,0.892,480.57294,-140.52248,1472.76453,609.50848,-185.56015,1420.59851,644.49768,-81.5297,1449.10461
109,0.9,480.46893,-141.33614,1472.87842,609.50848,-185.56015,1420.59851,644.98499,-81.98062,1448.75403
110,0.908,480.43103,-140.96996,1473.06958,609.64294,-186.03595,1420.92261,644.52435,-81.69892,1449.32068
111,0.917,480.43103,-140.96996,1473.06958,610.02856,-186.24394,1421.09729,645.07666,-81.48043,1450.11829
112,0.925,480.43103,-140.96996,1473.06958,609.64294,-186.03595,1420.92261,644.65942,-81.44117,1449.85193
113,0.933,480.43103,-140.96996,1473.06958,609.64294,-186.03595,1420.92261,644.65942,-81.44117,1449.85193
114,0.942,480.43103,-140.96996,1473.06958,609.64294,-186.03595,1420.92261,645.07666,-81.48043,1450.11829
115,0.95,480.43103,-140.96996,1473.06958,609.76855,-185.90186,1420.8479,644.65942,-81.44117,1449.85193
116,0.958,480.43103,-140.96996,1473.06958,609.76855,-185.90186,1420.8479,644.52435,-81.69892,1449.32068
117,0.967,479.67282,-141.06694,1472.72168,609.50848,-185.56015,1420.59851,644.49768,-81.5297,1449.10461
118,0.975,479.5112,-140.98003,1472.64563,609.50848,-185.56015,1420.59851,644.49768,-81.5297,1449.10461
119,0.983,479.44931,-140.64717,1472.40393,609.31873,-185.263,1420.58862,644.49768,-81.5297,1449.10461
120,0.992,479.44931,-140.64717,1472.40393,609.31873,-185.263,1420.58862,644.49768,-81.5297,1449.10461
121,1,479.44931,-140.64717,1472.40393,609.09875,-185.04988,1420.46826,644.49768,-81.5297,1449.10461
122,1.008,479.44931,-140.64717,1472.40393,609.04065,-184.39507,1420.49683,644.49768,-81.5297,1449.10461
123,1.017,479.44931,-140.64717,1472.40393,609.04065,-184.39507,1420.49683,644.67188,-80.91452,1448.95142
124,1.025,479.44931,-140.64717,1472.40393,609.04065,-184.39507,1420.49683,644.67188,-80.91452,1448.95142
125,1.033,479.45929,-139.62296,1472.37024,609.04065,-184.39507,1420.49683,644.67188,-80.91452,1448.95142
126,1.042,479.44931,-140.64717,1472.40393,609.04065,-184.39507,1420.49683,644.67188,-80.91452,1448.95142
127,1.05,479.45929,-139.62296,1472.37024,609.04065,-184.39507,1420.49683,644.67188,-80.91452,1448.95142
128,1.058,479.45929,-139.62296,1472.37024,608.87622,-184.55307,1420.38464,644.67188,-80.91452,1448.95142
129,1.067,479.44931,-140.64717,1472.40393,609.04065,-184.39507,1420.49683,644.67188,-80.91452,1448.95142
130,1.075,480.20749,-140.54953,1472.75171,609.09875,-185.04988,1420.46826,644.63269,-81.27183,1449.63586
131,1.083,479.44931,-140.64717,1472.40393,609.09875,-185.04988,1420.46826,645.04987,-81.31099,1449.90222
132,1.092,479.44931,-140.64717,1472.40393,609.31873,-185.263,1420.58862,645.07666,-81.48043,1450.11829
133,1.1,480.20749,-140.54953,1472.75171,609.5788,-185.6049,1420.83801,645.07666,-81.48043,1450.11829
134,1.108,480.27911,-139.85858,1472.95959,609.76855,-185.90186,1420.8479,645.07666,-81.48043,1450.11829
135,1.117,480.43103,-140.96996,1473.06958,609.83875,-185.94717,1421.0874,645.07666,-81.48043,1450.11829
136,1.125,479.68274,-140.04257,1472.68787,609.5788,-185.6049,1420.83801,644.96045,-81.56176,1450.29199
137,1.133,480.44067,-139.94586,1473.03564,609.45319,-185.73901,1420.91272,644.96045,-81.56176,1450.29199
138,1.142,480.44067,-139.94586,1473.03564,609.6427,-185.53342,1420.99805,644.96045,-81.56176,1450.29199
139,1.15,480.43103,-140.96996,1473.06958,610.21802,-186.03841,1421.1825,644.96045,-81.56176,1450.29199
140,1.158,480.44067,-139.94586,1473.03564,609.76825,-185.39928,1420.92334,645.07666,-81.48043,1450.11829
141,1.167,479.52118,-139.95566,1472.61182,609.76825,-185.39928,1420.92334,645.38483,-81.14846,1450.33618
142,1.175,479.52118,-139.95566,1472.61182,609.76825,-185.39928,1420.92334,645.38483,-81.14846,1450.33618
143,1.183,479.52118,-139.95566,1472.61182,609.4903,-184.53175,1420.83167,645.07666,-81.48043,1450.11829
144,1.192,479.45929,-139.62296,1472.37024,609.23016,-184.18941,1420.58215,645.35803,-80.979,1450.12024
145,1.2,480.21716,-139.52559,1472.7179,609.23016,-184.18941,1420.58215,645.35803,-80.979,1450.12024
146,1.208,480.21716,-139.52559,1472.7179,609.23016,-184.18941,1420.58215,645.41144,-80.60068,1449.95068
147,1.217,479.45929,-139.62296,1472.37024,609.23016,-184.18941,1420.58215,645.41144,-80.60068,1449.95068
148,1.225,479.45929,-139.62296,1472.37024,609.23016,-184.18941,1420.58215,645.41144,-80.60068,1449.95068
149,1.233,479.45929,-139.62296,1472.37024,609.23016,-184.18941,1420.58215,645.41144,-80.60068,1449.95068
150,1.242,480.21716,-139.52559,1472.7179,609.23016,-184.18941,1420.58215,645.41144,-80.60068,1449.95068
151,1.25,480.39896,-139.65129,1472.82288,609.23016,-184.18941,1420.58215,645.41144,-80.60068,1449.95068
152,1.258,480.39896,-139.65129,1472.82288,609.23016,-184.18941,1420.58215,645.43823,-80.77004,1450.16663
153,1.267,480.27371,-138.84921,1473.05518,609.23016,-184.18941,1420.58215,645.43823,-80.77004,1450.16663
154,1.275,480.44067,-139.94586,1473.03564,609.23016,-184.18941,1420.58215,645.43823,-80.77004,1450.16663
155,1.283,480.44067,-139.94586,1473.03564,609.23016,-184.18941,1420.58215,645.38483,-81.14846,1450.33618
156,1.292,480.44067,-139.94586,1473.03564,609.76825,-185.39928,1420.92334,645.38483,-81.14846,1450.33618
157,1.3,480.44067,-139.94586,1473.03564,609.76825,-185.39928,1420.92334,645.38483,-81.14846,1450.33618
158,1.308,480.44067,-139.94586,1473.03564,610.21802,-186.03841,1421.1825,645.38483,-81.14846,1450.33618
159,1.317,480.44067,-139.94586,1473.03564,610.21802,-186.03841,1421.1825,645.75,-81.35014,1449.85693
160,1.325,480.44067,-139.94586,1473.03564,609.95801,-185.69629,1420.93311,645.38483,-81.14846,1450.33618
161,1.333,480.44067,-139.94586,1473.03564,610.21802,-186.03841,1421.1825,645.38483,-81.14846,1450.33618
162,1.342,480.44067,-139.94586,1473.03564,610.21802,-186.03841,1421.1825,645.61377,-81.05051,1449.72644
163,1.35,480.44067,-139.94586,1473.03564,610.21802,-186.03841,1421.1825,645.38483,-81.14846,1450.33618
164,1.358,480.73099,-139.55794,1473.14734,609.95801,-185.69629,1420.93311,645.38483,-81.14846,1450.33618
165,1.367,480.73099,-139.55794,1473.14734,609.95801,-185.69629,1420.93311,645.38483,-81.14846,1450.33618
166,1.375,480.90164,-139.446,1473.08289,609.76825,-185.39928,1420.92334,645.43823,-80.77004,1450.16663
167,1.383,480.90164,-139.446,1473.08289,609.50824,-185.05734,1420.67395,645.43823,-80.77004,1450.16663
168,1.392,480.90164,-139.446,1473.08289,609.4502,-184.40263,1420.70251,645.43823,-80.77004,1450.16663
169,1.4,480.90164,-139.446,1473.08289,609.4502,-184.40263,1420.70251,645.41144,-80.60068,1449.95068
170,1.408,480.90164,-139.446,1473.08289,609.23016,-184.18941,1420.58215,645.41144,-80.60068,1449.95068
171,1.417,480.90164,-139.446,1473.08289,609.23016,-184.18941,1420.58215,645.41144,-80.60068,1449.95068
172,1.425,480.87286,-139.11067,1472.84241,609.23016,-184.18941,1420.58215,645.41144,-80.60068,1449.95068
173,1.433,480.87286,-139.11067,1472.84241,609.66107,-184.03717,1420.09045,645.41144,-80.60068,1449.95068
174,1.442,480.97299,-138.69057,1472.55334,609.66107,-184.03717,1420.09045,645.41144,-80.60068,1449.95068
175,1.45,480.68262,-139.07852,1472.44153,609.23016,-184.18941,1420.58215,645.41144,-80.60068,1449.95068
176,1.458,480.68262,-139.07852,1472.44153,609.66107,-184.03717,1420.09045,645.41144,-80.60068,1449.95068
177,1.467,481.36371,-139.48886,1472.21216,609.66351,-184.32947,1420.69971,645.41144,-80.60068,1449.95068
178,1.475,480.68262,-139.07852,1472.44153,610.09454,-184.17717,1420.20813,645.41144,-80.60068,1449.95068
179,1.483,481.36371,-139.48886,1472.21216,609.7215,-184.98416,1420.67102,645.71179,-80.86873,1450.15308
180,1.492,481.38553,-139.89984,1472.50549,609.91119,-185.28136,1420.68091,645.43823,-80.77004,1450.16663
181,1.5,481.38553,-139.89984,1472.50549,609.91119,-185.28136,1420.68091,645.71179,-80.86873,1450.15308
182,1.508,481.29263,-140.24425,1472.74182,609.91119,-185.28136,1420.68091,645.43823,-80.77004,1450.16663
183,1.517,481.29263,-140.24425,1472.74182,609.91119,-185.28136,1420.68091,645.71179,-80.86873,1450.15308
184,1.525,481.57336,-140.88086,1472.88733,611.12238,-186.15469,1420.93762,645.43823,-80.77004,1450.16663
185,1.533,481.57336,-140.88086,1472.88733,610.54529,-185.63521,1420.68579,645.43823,-80.77004,1450.16663
186,1.542,481.57336,-140.88086,1472.88733,611.12238,-186.15469,1420.93762,645.43823,-80.77004,1450.16663
187,1.55,481.57336,-140.88086,1472.88733,610.54529,-185.63521,1420.68579,645.71179,-80.86873,1450.15308
188,1.558,481.66632,-140.53625,1472.651,610.3421,-185.12901,1420.18945,645.43823,-80.77004,1450.16663
189,1.567,481.67569,-139.51189,1472.61719,610.3421,-185.12901,1420.18945,645.71503,-80.72614,1449.9574
190,1.575,481.67569,-139.51189,1472.61719,610.3421,-185.12901,1420.18945,646.12524,-79.38747,1449.9176
191,1.583,482.08444,-138.90179,1472.17871,610.63776,-183.98097,1420.20801,645.71503,-80.72614,1449.9574
192,1.592,481.7388,-138.81,1471.90784,610.59369,-183.46957,1420.19507,645.71503,-80.72614,1449.9574
