Frame#,Time,L.Forearm.x,L.Forearm.y,L.Forearm.z,L.Ulna.x,L.Ulna.y,L.Ulna.z,L.Radius.x,L.Radius.y,L.Radius.z
1,0,-1480.47632,133.54106,982.03064,-1448.29126,187.2506,923.70178,-1446.64197,115.95985,874.44043
2,0.008,-1475.41577,134.79848,982.17139,-1446.32739,188.15591,923.75122,-1442.18518,117.49065,874.76624
3,0.017,-1466.42554,134.00101,979.86676,-1442.61694,187.27193,923.76086,-1431.61755,113.86252,874.82648
4,0.025,-1465.75989,134.63141,980.862,-1437.02612,187.9641,923.60742,-1431.52136,114.01644,874.66852
5,0.033,-1465.47168,134.36317,980.57855,-1434.44348,188.42068,923.40771,-1424.16528,114.36842,875.47601
6,0.042,-1456.02917,135.54576,980.40656,-1430.93896,189.35468,923.34064,-1421.60681,116.09628,875.48529
7,0.05,-1449.3186,133.81633,979.35181,-1428.34631,189.41492,923.10089,-1419.00952,116.15228,874.31573
8,0.058,-1448.8175,133.09702,980.15161,-1423.28162,190.84755,923.29376,-1418.97815,116.39738,874.38379
9,0.067,-1443.89075,132.34079,979.87933,-1417.05261,186.61162,922.341,-1411.34595,115.9232,871.76062
10,0.075,-1440.0033,133.26189,980.27704,-1412.3855,186.33614,922.04895,-1404.68115,116.23727,871.18469
11,0.083,-1436.22534,133.49521,979.02899,-1409.30029,186.67311,921.52069,-1400.27307,114.7321,873.2959
12,0.092,-1430.66345,133.65805,977.7804,-1405.95642,187.36278,921.97058,-1397.02893,113.67097,873.58734
13,0.1,-1425.24719,132.02922,978.08405,-1399.9762,186.64897,921.69946,-1394.12305,113.33679,871.45667
14,0.108,-1422.58289,131.76884,977.72449,-1394.35486,185.69894,921.93658,-1390.00537,114.04095,870.93188
15,0.117,-1415.84802,131.4623,977.18774,-1390.97266,184.99277,920.52783,-1383.27612,114.13024,871.31952
16,0.125,-1413.85132,132.44954,978.0094,-1385.98853,186.37425,919.74396,-1382.26086,114.44814,871.41516
17,0.133,-1407.13257,131.3934,976.60522,-1380.66113,185.94499,918.40973,-1373.29822,114.22797,869.33246
18,0.142,-1404.76343,133.22131,976.34973,-1375.71729,185.91966,917.89221,-1367.09998,114.65126,870.68048
19,0.15,-1396.6593,133.09367,975.8335,-1371.33337,187.02454,918.17645,-1366.45349,115.41812,869.9837
20,0.158,-1390.96851,133.39645,973.7453,-1367.05212,187.95801,917.55481,-1360.50513,116.16199,867.7536
21,0.167,-1387.06299,133.34918,971.40552,-1360.28723,187.43939,916.54089,-1354.97058,116.64799,866.60559
22,0.175,-1378.98254,133.63686,970.83044,-1356.6626,189.2695,915.73578,-1345.44531,116.96348,866.26703
23,0.183,-1376.91113,135.18829,971.77069,-1350.58948,189.14122,915.71631,-1340.89478,118.45952,865.15186
24,0.192,-1368.89722,137.02795,971.43036,-1343.94507,192.0921,914.17633,-1340.71179,118.85225,864.71179
25,0.2,-1361.54932,135.74854,969.35712,-1339.48962,191.49071,913.87665,-1331.05176,118.92303,863.758
26,0.208,-1358.4082,137.52773,969.69373,-1332.0282,190.52045,913.70691,-1324.37097,118.92382,863.46796
27,0.217,-1351.24207,138.12419,969.50458,-1326.12402,192.14479,912.77765,-1319.65808,120.42318,862.9137
28,0.225,-1345.68176,139.1239,968.13043,-1321.05981,192.47507,913.07959,-1315.17358,121.42139,863.20605
29,0.233,-1340.17883,140.67648,968.73621,-1312.45483,193.09364,911.80115,-1302.9613,120.4418,861.61267
30,0.242,-1331.68604,139.99684,966.90802,-1305.698,193.20267,911.65479,-1298.06006,121.66992,860.73181
31,0.25,-1323.54602,141.22301,966.5697,-1297.6427,194.75647,911.35297,-1291.35913,123.04493,860.90869
32,0.258,-1318.97595,141.41592,967.36438,-1294.36462,196.65837,911.1463,-1287.0824,123.76806,860.79376
33,0.267,-1313.62451,143.3978,967.1875,-1285.28271,196.13951,910.22217,-1277.25439,124.25833,860.54022
34,0.275,-1305.82544,143.23979,967.44037,-1278.62805,196.35974,910.39178,-1269.96594,124.81426,861.22699
35,0.283,-1298.104,142.92664,967.25842,-1270.10742,197.03944,910.39063,-1266.60632,126.55102,861.11206
36,0.292,-1288.125,144.79904,966.24084,-1261.93726,197.56624,910.14911,-1254.57336,125.92776,860.7699
37,0.3,-1283.64685,145.30623,966.06256,-1255.65527,198.56026,909.37354,-1247.98853,127.06924,860.37488
38,0.308,-1277.98059,147.57103,966.9082,-1248.77954,201.79253,910.05286,-1240.64343,127.74596,860.52399
39,0.317,-1268.83984,148.37779,967.15582,-1242.15063,201.60077,910.56085,-1231.65417,128.52028,860.86194
40,0.325,-1261.05798,150.48636,967.8548,-1233.25134,203.20995,912.15167,-1227.1344,129.4765,863.84985
41,0.333,-1251.83313,151.08221,969.1582,-1226.43884,202.82219,914.16809,-1222.5658,131.20238,864.84009
42,0.342,-1250.0365,153.0209,973.11841,-1219.93848,205.22882,915.55176,-1216.30713,133.04961,866.60016
43,0.35,-1240.755,154.15079,973.43365,-1214.29688,206.91324,916.68976,-1210.42737,134.56271,867.8114
44,0.358,-1235.28564,153.95284,975.83655,-1206.66663,208.5285,919.74542,-1200.46777,134.48486,870.67694
45,0.367,-1227.9209,155.60793,977.58844,-1199.26575,208.49336,921.5705,-1192.89514,137.27768,872.03278
46,0.375,-1221.35742,158.00461,978.54865,-1191.09692,210.23973,923.47766,-1186.9342,137.44333,873.71478
47,0.383,-1213.33154,159.42671,980.00598,-1185.25671,211.51906,924.27313,-1179.10718,137.86562,875.59058
48,0.392,-1205.67554,160.25549,980.25958,-1177.29639,211.42851,925.78699,-1174.71997,140.58356,877.7868
49,0.4,-1199.99475,160.60547,982.6261,-1170.49719,214.26276,928.16028,-1164.34705,140.72958,878.52899
50,0.408,-1194.59302,162.39417,984.62823,-1163.76257,214.38557,928.30853,-1156.19678,141.14987,878.74677
51,0.417,-1186.98767,162.8002,985.21631,-1154.97766,214.83388,928.69745,-1152.2052,142.4807,878.2381
52,0.425,-1179.73181,163.64709,985.23163,-1147.4895,215.94797,929.64008,-1144.50317,143.97765,879.70251
53,0.433,-1172.05115,164.3687,984.28625,-1141.81323,217.66801,929.42761,-1134.27246,144.22549,882.19281
54,0.442,-1164.9928,167.38553,984.36383,-1133.46411,219.44608,930.11676,-1126.79407,145.87535,882.99164
55,0.45,-1160.07776,166.73563,985.40503,-1126.88953,218.75851,930.854,-1122.42969,147.81613,882.53015
56,0.458,-1151.98462,169.75533,984.9765,-1120.32532,221.65385,931.20807,-1114.17358,149.4276,882.92987
57,0.467,-1145.05139,170.75632,985.29694,-1113.77734,221.506,930.87732,-1106.82678,149.79237,881.8222
58,0.475,-1137.83936,171.11633,984.8244,-1106.21057,222.76219,931.14111,-1099.78174,151.38667,881.53711
59,0.483,-1132.40979,172.18596,983.99585,-1100.62891,223.85936,931.02985,-1094.00354,152.59302,881.31964
60,0.492,-1127.33875,173.62129,983.3866,-1095.19177,226.23987,931.07831,-1087.82654,150.99939,881.3291
61,0.5,-1120.92688,172.64465,984.9765,-1089.50647,224.644,931.32056,-1081.73743,152.07114,881.26147
62,0.508,-1114.32776,173.00978,985.48065,-1083.34485,225.90671,930.87085,-1079.38721,152.21053,881.18036
63,0.517,-1110.74622,174.35223,984.90088,-1077.03918,225.71991,930.85327,-1071.40393,154.31279,881.17944
64,0.525,-1103.78333,174.82108,985.50153,-1073.42786,226.95766,931.05402,-1069.09045,154.79535,880.93561
65,0.533,-1099.71655,174.67117,986.33661,-1067.24109,227.97263,930.94269,-1062.57495,154.96729,881.33197
66,0.542,-1096.06323,175.76054,986.02997,-1062.7196,227.79012,931.32404,-1058.61096,156.02039,881.08618
67,0.55,-1089.07764,177.22223,986.34259,-1057.24182,229.43893,931.33917,-1053.04126,156.59901,881.99915
68,0.558,-1085.35596,177.02267,986.84399,-1053.56201,229.25385,931.86273,-1048.4021,157.64388,882.26215
69,0.567,-1079.67236,178.95621,987.09692,-1048.42017,229.70412,931.78851,-1044.82605,158.39253,882.22821
70,0.575,-1075.05554,179.80099,986.79236,-1043.62183,231.33235,932.44659,-1038.99646,158.2151,883.03186
71,0.583,-1072.5365,179.77838,986.72052,-1038.10034,230.56352,932.30243,-1033.48499,158.03636,883.98309
72,0.592,-1064.99902,181.0858,988.09967,-1034.72046,231.09538,932.9259,-1029.63599,159.29327,883.94073
73,0.6,-1061.42957,180.49594,987.45074,-1029.88049,232.03905,932.31543,-1023.41431,158.79099,885.31409
74,0.608,-1057.07361,180.10147,987.45172,-1025.60254,231.36505,933.62939,-1018.22089,159.93871,885.78741
75,0.617,-1051.39001,179.96135,988.42242,-1021.15009,231.96239,933.71136,-1013.93579,158.96976,885.336
76,0.625,-1048.33826,180.791,988.62836,-1015.38403,231.40337,933.66901,-1009.80847,159.7717,885.69623
77,0.633,-1043.47083,180.01694,989.25458,-1011.62805,230.84392,933.85626,-1004.86371,160.36424,885.5047
78,0.642,-1037.03162,181.00491,988.82629,-1005.91125,232.0929,933.81714,-1003.42499,160.75688,885.08759
79,0.65,-1033.78882,181.85785,988.71777,-1001.19415,232.90433,933.13672,-1000.72815,160.8351,883.94122
80,0.658,-1028.46338,181.68568,988.18945,-996.44739,232.72958,932.54309,-992.78088,159.99663,883.63153
81,0.667,-1022.92377,181.74594,988.71521,-990.51007,231.77199,932.58551,-990.1051,161.37642,882.7373
82,0.675,-1019.76892,180.3811,987.4693,-986.4624,231.86688,932.21765,-985.91174,160.67117,881.93982
83,0.683,-1014.42981,180.05872,986.45575,-982.005,231.57162,931.58472,-982.05182,160.25206,879.98065
84,0.692,-1009.81036,181.49933,985.98499,-977.34967,232.00648,931.64722,-976.28973,161.51282,880.01868
85,0.7,-1005.95117,181.97319,986.23785,-972.84204,233.10194,930.22308,-972.44611,161.43384,878.11639
86,0.708,-999.40198,181.6886,984.45953,-968.79431,233.00862,928.67798,-968.57959,162.0899,878.16034
87,0.717,-994.24048,182.99655,984.70148,-964.57385,235.16267,927.49969,-963.3327,163.16577,877.94324
88,0.725,-991.46881,183.08994,985.27667,-959.57483,234.89415,927.44446,-959.59668,162.6991,876.51593
89,0.733,-984.57849,184.16849,984.49664,-955.91852,235.46222,927.23627,-948.60559,162.81253,878.48108
90,0.742,-980.33795,182.90639,983.55396,-950.71545,236.07924,927.2569,-946.57568,162.64545,878.57892
91,0.75,-976.74841,182.25694,983.51819,-946.93878,236.01378,926.65405,-940.92719,162.19052,879.78125
92,0.758,-970.51697,182.64764,983.06897,-942.7865,235.08592,927.40619,-933.92487,162.75729,879.79388
93,0.767,-965.66656,182.79205,982.9231,-936.73334,235.6174,925.92261,-929.47302,162.51974,880.52496
94,0.775,-960.45673,182.49306,982.60645,-932.51489,235.24683,925.06848,-923.72266,162.34932,880.65112
95,0.783,-957.00824,182.7121,983.35199,-927.25854,235.56291,925.62604,-916.95062,161.23596,878.69318
96,0.792,-951.81567,181.67894,982.56097,-923.09784,234.29314,925.2099,-913.56628,161.15549,878.20892
97,0.8,-946.12885,180.85208,981.63831,-917.6272,233.9971,925.73779,-909.25653,160.74181,879.04657
98,0.808,-940.2334,180.63434,980.94379,-912.10114,232.46292,924.88861,-903.36755,159.60258,877.71021
99,0.817,-937.23779,180.1436,980.62134,-906.27032,231.59644,924.06024,-897.86963,158.42706,876.53363
100,0.825,-930.50757,178.5127,980.06683,-901.83051,231.88364,923.85828,-894.92535,158.14522,875.82001
101,0.833,-926.24243,177.60422,979.58594,-896.66345,229.11586,922.90356,-890.34821,157.97826,873.13159
102,0.842,-920.81116,177.76106,978.33099,-891.50238,229.10599,922.987,-886.35559,158.33871,871.90009
103,0.85,-917.15924,176.90952,977.17993,-886.26593,229.80869,921.24347,-880.88531,156.92709,870.6897
104,0.858,-911.70471,177.01074,976.47229,-881.59784,229.27255,919.9989,-874.77795,156.96718,870.43481
105,0.867,-908.00891,175.3493,975.13916,-877.30463,229.50337,919.25507,-869.96259,157.97156,870.05646
106,0.875,-901.16333,176.27499,973.95074,-873.08734,229.68001,918.57758,-866.77802,158.06555,869.25732
107,0.883,-895.77411,175.84404,973.67517,-867.40259,229.19095,918.29431,-858.75464,157.85901,869.08234
108,0.892,-891.16364,176.89456,973.2514,-863.45984,229.98259,917.93866,-854.65961,157.09334,868.53064
109,0.9,-884.6485,176.25996,971.72406,-858.03217,230.41144,917.05426,-849.21167,157.20921,867.93036
110,0.908,-881.20313,174.5787,972.45673,-854.03357,229.78116,916.54083,-841.55627,157.93163,867.30084
111,0.917,-874.38452,174.99251,971.90222,-847.79797,230.9843,916.02014,-837.26715,158.41991,867.47675
112,0.925,-867.58514,175.66295,971.39233,-843.47516,230.37366,915.98822,-830.42786,159.15108,867.94031
113,0.933,-861.89929,173.08133,972.26477,-838.48969,229.9771,915.90167,-824.36719,157.99654,868.27533
114,0.942,-856.17993,171.75809,971.44745,-831.50104,229.84026,915.23181,-816.40674,157.5049,867.04156
115,0.95,-848.76752,172.36105,971.89929,-826.10181,228.86568,915.52454,-811.49652,156.11977,867.60828
116,0.958,-843.14734,169.1301,972.62067,-818.47162,225.60234,915.74097,-804.73352,153.10063,867.22327
117,0.967,-836.92499,167.39247,972.68988,-811.78693,224.17551,917.05237,-800.1239,151.96854,867.49744
118,0.975,-829.63025,165.2021,973.33807,-805.41107,222.01607,918.3949,-790.37476,149.67087,869.91846
119,0.983,-823.97607,164.14035,974.09857,-799.83142,220.06721,919.82532,-784.66913,148.52565,870.84943
120,0.992,-816.49359,161.41904,977.21289,-792.57678,218.52733,921.24634,-778.88708,145.14032,871.29248
121,1,-810.10022,160.47202,978.08508,-785.34033,216.43494,923.28204,-772.57965,144.56346,873.64655
122,1.008,-802.9574,159.89914,980.02014,-778.3031,213.89699,925.21771,-765.40234,143.12544,875.16071
123,1.017,-797.27094,157.36902,983.08777,-772.02539,212.04796,926.43683,-760.60095,139.98947,876.15796
124,1.025,-790.09161,156.64421,984.25513,-765.12445,210.01567,928.39691,-755.69385,138.45766,878.43225
125,1.033,-782.362,155.80132,986.72308,-757.00623,209.06239,930.04297,-748.77521,136.7272,879.48694
126,1.042,-775.3092,153.45369,988.5423,-749.60217,206.52905,931.00476,-741.51569,135.98909,881.57123
127,1.05,-768.68884,153.33572,988.89874,-743.62909,205.82112,933.7359,-735.98834,134.49586,882.1579
128,1.058,-762.92029,151.22223,990.27753,-736.07306,205.01176,934.19061,-728.367,133.61201,883.58362
129,1.067,-755.41223,151.29027,990.18591,-728.81543,204.63953,934.9837,-721.66187,133.12717,884.50012
130,1.075,-748.745,150.283,991.32129,-721.57587,202.94424,935.38452,-713.11572,131.2657,886.6264
131,1.083,-740.867,148.63109,991.32471,-713.05707,202.85394,935.76868,-706.45294,131.08826,886.60339
132,1.092,-736.24146,147.33514,992.13184,-706.39014,201.66954,936.11731,-697.90424,130.43465,887.04578
133,1.1,-726.92267,146.84906,991.34314,-698.47412,200.77821,936.6637,-690.13611,129.99498,886.88324
134,1.108,-719.81232,145.23405,990.88141,-690.65375,199.91139,936.49066,-683.34045,129.37349,886.73187
135,1.117,-710.77246,146.65373,990.81311,-683.02155,198.92593,936.17249,-674.59485,128.96413,886.96082
136,1.125,-705.41125,143.47162,990.57642,-675.6886,198.20702,936.75928,-667.85327,127.84155,886.75293
137,1.133,-697.28424,144.37131,989.91534,-668.38019,197.209,936.42651,-659.29132,126.42321,886.24396
138,1.142,-690.19214,143.1716,989.84406,-661.60107,195.65648,936.04547,-652.54706,125.52111,885.72717
139,1.15,-683.49524,142.27216,990.27844,-655.79816,195.57249,935.65997,-645.27606,125.54804,886.2926
140,1.158,-676.43182,141.22763,989.89697,-648.57574,195.83041,935.67419,-638.82831,123.86162,886.40955
141,1.167,-669.79553,140.62463,989.31903,-643.33911,194.73872,935.56006,-632.68872,123.06001,886.05786
142,1.175,-663.45081,139.48117,990.94934,-637.26764,194.41624,935.61218,-625.39288,123.0202,885.77386
143,1.183,-657.32727,139.67444,991.0083,-631.62085,193.32698,935.55219,-617.76898,121.37255,885.47736
144,1.192,-651.664,140.3947,990.79199,-625.5423,193.34756,935.9209,-613.34015,121.50801,886.02307
145,1.2,-645.80096,137.95894,991.59601,-620.4267,192.4297,935.67249,-607.91998,121.50924,886.91724
146,1.208,-641.1015,136.88327,991.64343,-614.37317,192.20262,935.73547,-603.83173,119.98481,887.06055
147,1.217,-635.78619,138.56834,991.51569,-608.75647,190.98053,936.34509,-597.40881,119.42878,887.69476
148,1.225,-630.66467,136.91226,991.82111,-603.18481,190.0636,936.68359,-594.28156,117.83192,887.3161
149,1.233,-626.01324,135.83434,992.34155,-598.71869,188.94633,937.62335,-589.2168,116.91814,887.22845
150,1.242,-621.42596,135.76067,991.89545,-593.05481,188.14343,937.97742,-584.81622,116.9797,887.86407
151,1.25,-616.74554,133.65588,991.49707,-587.58661,186.63968,938.31268,-579.33325,115.02806,888.33844
152,1.258,-612.30066,133.14217,991.85297,-582.43311,186.3168,938.12164,-576.96161,114.76517,887.6684
153,1.267,-606.98315,132.38803,991.78253,-577.12311,184.83102,938.00818,-572.11792,114.64068,887.77185
154,1.275,-602.43878,133.14502,992.0105,-572.06006,184.42464,938.69116,-567.52942,113.08979,888.08148
155,1.283,-597.96527,132.51932,992.36938,-568.01965,184.96648,938.63086,-562.24316,112.57899,887.2785
156,1.292,-593.64703,129.12901,993.13745,-563.73657,184.24663,937.99768,-556.23413,112.95695,887.2135
157,1.3,-587.33313,131.50417,992.70612,-558.1369,184.20859,938.04077,-550.25409,112.61142,887.19012
158,1.308,-583.05249,130.64966,992.64795,-553.23962,183.55536,938.01447,-545.85846,111.65909,887.76825
159,1.317,-576.68274,130.78137,993.26874,-549.00684,183.72658,937.56134,-541.76501,112.48893,887.70197
160,1.325,-572.14001,129.80983,992.62122,-545.05945,184.42503,937.68958,-534.92993,111.93215,888.07428
161,1.333,-566.60822,130.43825,992.95837,-540.08093,184.60812,937.47632,-530.80548,112.78799,887.70526
162,1.342,-561.59955,129.99597,992.70782,-535.60059,185.40317,936.08984,-523.2807,112.78305,887.64301
163,1.35,-556.8197,130.105,992.12335,-530.46021,184.53578,936.07672,-519.79938,112.59742,887.01355
164,1.358,-551.01825,130.1629,991.56787,-525.58978,184.89279,935.45514,-514.40979,112.83416,886.27917
165,1.367,-546.1908,130.76598,991.21594,-520.55463,185.06985,935.30798,-511.30975,112.49411,886.3288
166,1.375,-540.71362,130.22426,990.66028,-516.1925,184.56102,934.84607,-507.63632,112.40569,885.76733
167,1.383,-535.31128,129.97682,988.95593,-510.74185,184.79247,934.67017,-503.60043,111.6059,883.1828
168,1.392,-532.12695,129.02136,988.99188,-505.09863,183.53468,934.49176,-497.93585,111.12736,882.89496
169,1.4,-525.84961,129.14937,988.5993,-500.07025,182.91731,933.94434,-494.37164,111.52367,882.81335
170,1.408,-521.16089,128.57489,988.48053,-494.0939,182.51364,933.69537,-489.1438,110.4067,882.62512
171,1.417,-515.85327,128.75833,987.55353,-488.37894,182.18423,932.9422,-483.42593,110.84823,882.15137
172,1.425,-512.08997,128.42537,987.27991,-482.3613,182.27402,932.67609,-478.06818,110.20394,881.75842
173,1.433,-506.43607,128.67865,986.50275,-475.96213,181.09229,932.57605,-472.13254,109.7583,880.71777
174,1.442,-500.43674,127.85943,986.38763,-470.42255,182.12041,931.43005,-467.5159,110.67767,879.86041
175,1.45,-494.47629,128.5811,985.90686,-465.397,181.67584,930.55206,-460.68469,110.89065,879.64246
176,1.458,-487.93289,128.68474,984.72119,-458.23889,182.13412,929.91138,-453.00009,110.67799,879.21313
177,1.467,-481.2056,128.57588,985.07977,-452.1286,182.34492,929.29651,-447.31744,110.88052,879.71246
178,1.475,-474.8186,129.76463,984.37256,-445.46609,182.6329,928.89301,-440.53473,110.51581,878.29547
179,1.483,-466.75793,130.04024,983.12579,-438.92258,184.00053,928.28668,-433.79413,112.9022,877.55066
180,1.492,-460.79013,131.14423,982.2077,-432.81171,183.75462,927.08435,-425.26468,113.43523,876.6524
181,1.5,-454.26166,132.09424,980.7478,-426.17871,185.37083,925.7605,-420.09665,112.59628,875.67078
182,1.508,-446.88858,132.8074,980.34174,-419.69101,186.13385,925.14404,-412.70599,114.57605,876.05743
183,1.517,-439.40704,133.46832,980.61859,-411.96027,186.6944,924.39954,-405.29111,114.81062,875.30829
184,1.525,-432.46313,133.28633,978.896,-404.67517,186.94691,923.22571,-401.45468,115.3736,873.80872
185,1.533,-425.16251,134.82564,978.29138,-397.76862,187.37167,923.25464,-394.42136,115.1789,871.6991
186,1.542,-418.63846,136.11073,977.68616,-390.23401,187.56528,922.72528,-387.93481,116.63563,870.6886
187,1.55,-411.75323,136.29814,976.85535,-381.32849,188.68256,921.63702,-381.55939,118.25448,870.50165
188,1.558,-404.96844,137.44702,978.62897,-375.0863,188.48952,921.08234,-371.89801,117.93889,869.97766
189,1.567,-396.64227,136.84848,975.21143,-367.29352,189.38998,920.29175,-367.10748,117.19032,869.67194
190,1.575,-389.20001,138.87685,975.1842,-359.89154,190.30621,919.81219,-358.15726,118.6404,868.25739
191,1.583,-382.83655,140.1423,974.40381,-352.33948,191.07936,919.2475,-351.48575,119.99344,868.28217
192,1.592,-373.04587,139.99757,974.98883,-345.2984,192.39288,919.09485,-342.1485,119.8288,868.5415
193,1.6,-367.60934,140.34267,975.34082,-337.62531,193.21275,919.76221,-335.68225,120.28417,869.39758
194,1.608,-360.28598,141.06999,975.88812,-330.2655,192.41982,920.18237,-328.58713,121.92733,870.37384
