Frame#,Time,R.Forearm.x,R.Forearm.y,R.Forearm.z,R.Ulna.x,R.Ulna.y,R.Ulna.z,R.Radius.x,R.Radius.y,R.Radius.z
1,0,-1494.48962,-309.19766,938.60614,-1505.40686,-370.46991,877.31122,-1441.46887,-332.88666,829.70306
2,0.008,-1493.04041,-311.22375,938.94324,-1499.80676,-371.34143,876.83618,-1440.12415,-332.82294,829.98492
3,0.017,-1486.12354,-312.48813,939.3681,-1493.4906,-370.811,876.974,-1433.43372,-334.4501,831.08203
4,0.025,-1477.19934,-311.7579,939.06421,-1489.96362,-370.88205,877.32666,-1426.17786,-334.18423,832.60736
5,0.033,-1474.79919,-310.64078,940.3244,-1485.4032,-370.63202,878.19415,-1422.19141,-333.20547,830.90515
6,0.042,-1468.85229,-311.4191,939.79065,-1480.29456,-371.0968,878.97876,-1417.01538,-332.49127,833.27106
7,0.05,-1466.25366,-311.13635,940.46338,-1472.85938,-370.89334,879.89972,-1412.10913,-331.06238,832.95795
8,0.058,-1458.61719,-311.6214,941.23151,-1468.63696,-370.26013,879.9234,-1407.71094,-329.64255,834.14917
9,0.067,-1455.8158,-311.11826,940.66156,-1463.54016,-369.53833,879.08661,-1401.85095,-328.85834,830.54663
10,0.075,-1449.11243,-311.10416,940.18158,-1458.65076,-369.26477,878.8775,-1397.39661,-328.54202,829.12628
11,0.083,-1445.74951,-308.48166,940.67493,-1451.39612,-370.64145,878.78119,-1392.26453,-327.78333,829.71112
12,0.092,-1438.38037,-309.44992,938.98273,-1445.56543,-369.79019,878.78674,-1390.17456,-325.68466,828.32391
13,0.1,-1433.74341,-308.3035,938.99127,-1441.60034,-369.61566,878.95758,-1382.60828,-326.51056,827.92944
14,0.108,-1428.55823,-307.34293,939.0766,-1434.12646,-369.13309,878.47681,-1377.7356,-326.99625,827.95813
15,0.117,-1424.72205,-308.07776,939.30414,-1430.82422,-368.91351,878.83575,-1372.32507,-325.26379,827.28699
16,0.125,-1418.90393,-307.94003,936.27832,-1424.276,-368.41528,877.79578,-1366.09314,-325.39734,827.14594
17,0.133,-1411.64124,-307.34753,935.23663,-1420.17322,-368.53241,877.10907,-1364.10291,-323.68579,826.44897
18,0.142,-1408.94604,-305.53821,935.18762,-1412.06299,-368.60919,877.13159,-1356.68652,-325.73444,825.95917
19,0.15,-1403.21191,-307.53049,936.03583,-1408.77271,-368.88284,876.91052,-1353.7356,-325.34555,825.6012
20,0.158,-1399.04138,-305.8306,935.60004,-1404.69055,-369.20718,875.677,-1347.27026,-325.41699,824.59894
21,0.167,-1392.3551,-307.5217,935.2522,-1398.99695,-368.0206,874.40387,-1344.44775,-325.10999,823.45056
22,0.175,-1385.71143,-307.77975,933.93628,-1393.64355,-368.22205,873.62854,-1337.40088,-324.49854,823.40479
23,0.183,-1382.30457,-306.40607,932.41443,-1388.76648,-367.43268,871.83423,-1331.10168,-324.18488,822.05359
24,0.192,-1375.95264,-307.02286,931.45605,-1384.64209,-366.64371,871.46777,-1328.62988,-325.47186,821.8985
25,0.2,-1372.49341,-304.50729,931.24188,-1380.75574,-365.94666,871.15417,-1320.77222,-323.98334,821.00653
26,0.208,-1365.45898,-306.39435,931.12469,-1373.82263,-365.79523,870.01471,-1317.39746,-323.6257,820.01831
27,0.217,-1358.87769,-307.49918,930.45691,-1371.01257,-365.36984,869.30902,-1311.51025,-323.90027,819.58868
28,0.225,-1354.17847,-304.04285,928.49493,-1366.75757,-363.67355,868.85822,-1306.73767,-322.21136,817.5741
29,0.233,-1347.64465,-303.71951,927.85193,-1360.80872,-363.11804,866.81567,-1301.70984,-322.67007,816.98352
30,0.242,-1344.85217,-301.95956,927.10864,-1354.34619,-363.56891,866.28986,-1296.01953,-323.59491,814.93146
31,0.25,-1337.5116,-301.0831,927.46893,-1347.85022,-363.14285,865.88696,-1290.948,-321.00351,813.57379
32,0.258,-1334.41309,-300.04269,926.3075,-1343.81494,-362.06125,865.3548,-1286.65283,-322.17444,813.91992
33,0.267,-1327.38611,-298.81625,924.7829,-1340.01868,-361.02322,865.06671,-1282.47253,-320.41629,812.31122
34,0.275,-1322.93311,-299.2283,922.87256,-1334.8573,-359.77078,864.8985,-1276.93225,-321.13297,812.08783
35,0.283,-1317.60413,-298.20486,922.25513,-1328.47449,-360.03564,863.58228,-1271.66187,-320.00247,811.29352
36,0.292,-1312.85889,-297.07156,922.80878,-1324.797,-359.1344,863.39197,-1267.51489,-319.76181,810.9743
37,0.3,-1307.15076,-297.13153,922.44586,-1318.99402,-357.14349,863.71716,-1260.28723,-321.14282,811.13098
38,0.308,-1301.04224,-295.98019,922.67419,-1315.49683,-356.41135,863.8269,-1257.12708,-318.80344,810.29639
39,0.317,-1297.09106,-294.16003,922.84949,-1310.47021,-353.93146,864.11902,-1251.08569,-318.59225,810.70184
40,0.325,-1291.00671,-294.0267,924.30566,-1305.54749,-353.43613,863.9082,-1247.09265,-315.68692,810.8902
41,0.333,-1286.15393,-290.96942,925.24866,-1301.46375,-351.76965,864.77875,-1241.29053,-316.25858,812.05603
42,0.342,-1280.69092,-291.91113,925.62982,-1296.97693,-349.8233,865.75061,-1238.75781,-314.96393,812.80566
43,0.35,-1274.51782,-289.09698,926.25153,-1291.75977,-350.51733,867.2995,-1231.9613,-313.49615,812.21326
44,0.358,-1270.47791,-287.92825,926.31238,-1286.64258,-349.28354,868.19171,-1229.02893,-313.02344,813.89008
45,0.367,-1264.65173,-284.29889,928.83954,-1282.39514,-346.37302,868.6449,-1222.63074,-310.80011,815.43506
46,0.375,-1259.19836,-284.20056,929.90686,-1278.34131,-346.01584,870.37775,-1218.87695,-309.54022,816.2572
47,0.383,-1255.06604,-284.06711,931.09906,-1272.302,-343.68723,870.85638,-1214.17981,-309.96313,817.50989
48,0.392,-1249.28967,-283.29709,931.49207,-1267.80469,-343.49533,871.76508,-1209.04114,-306.18936,817.87714
49,0.4,-1244.6637,-282.96649,931.19757,-1263.55225,-341.93027,871.66449,-1203.16577,-306.72482,817.73328
50,0.408,-1239.10083,-281.53708,931.77338,-1257.39441,-339.70157,872.17218,-1199.18909,-304.24222,817.9469
51,0.417,-1233.86853,-280.2121,931.83563,-1253.11084,-338.63852,871.64722,-1193.17651,-303.60025,818.13873
52,0.425,-1229.89758,-279.54541,932.01654,-1248.22266,-337.25027,871.69025,-1189.3855,-302.90234,818.26965
53,0.433,-1223.48438,-278.92883,931.95941,-1243.15637,-336.69168,872.01312,-1183.68848,-301.60458,818.56622
54,0.442,-1219.20154,-276.7048,931.87231,-1238.61145,-335.55881,871.8783,-1180.12842,-301.94351,818.43719
55,0.45,-1213.62488,-277.4411,931.59424,-1231.74304,-334.56,871.68195,-1172.97241,-300.02069,817.83514
56,0.458,-1208.51416,-275.29642,931.36255,-1227.67603,-333.69815,871.46417,-1170.1311,-299.12839,817.35486
57,0.467,-1203.64075,-274.28067,930.71442,-1221.96704,-332.10873,871.19098,-1163.44226,-297.83679,817.25732
58,0.475,-1198.63879,-272.21439,930.7276,-1216.89221,-332.16232,871.19995,-1158.58533,-296.7428,817.47638
59,0.483,-1193.13757,-271.60641,930.31409,-1211.68103,-332.99066,871.85779,-1154.28198,-297.22281,816.83264
60,0.492,-1187.70447,-269.58701,930.25549,-1205.37585,-331.37411,871.0625,-1147.16394,-295.32993,816.90424
61,0.5,-1182.61353,-268.5105,930.16498,-1200.69177,-330.64078,871.01923,-1143.90845,-294.18732,816.67322
62,0.508,-1178.8385,-270.05991,929.79486,-1195.77563,-329.27319,870.76996,-1137.68848,-295.8266,816.44293
63,0.517,-1172.29199,-267.11969,929.74011,-1190.35107,-328.55011,870.36377,-1132.14417,-293.27191,816.07263
64,0.525,-1167.12756,-268.76532,929.40442,-1185.92456,-327.03485,870.64136,-1127.71448,-293.09689,816.15485
65,0.533,-1162.19824,-267.15717,929.18616,-1179.81323,-325.40222,871.00635,-1120.50317,-291.0202,816.25079
66,0.542,-1156.68115,-264.95889,930.18726,-1175.51013,-325.42059,871.39948,-1117.59192,-289.83093,817.33282
67,0.55,-1152.02673,-266.30267,930.6236,-1171.25757,-323.84897,871.53467,-1111.69629,-289.89075,816.94952
68,0.558,-1147.73059,-264.06348,931.42334,-1166.12854,-322.92303,871.41168,-1105.90295,-288.12137,817.22656
69,0.567,-1141.42529,-264.82199,931.80182,-1161.25476,-323.36874,871.60443,-1101.67566,-288.51633,817.83917
70,0.575,-1137.9845,-263.22174,932.62427,-1155.95422,-322.18018,871.90656,-1095.7843,-287.59348,817.38263
71,0.583,-1132.94055,-264.86713,932.09119,-1151.84167,-320.83566,871.85925,-1091.70642,-286.55475,818.23389
72,0.592,-1126.49316,-263.2305,932.39655,-1147.71423,-321.20917,871.86255,-1086.57397,-287.35263,818.62524
73,0.6,-1123.01892,-263.6601,933.20782,-1141.31433,-319.79773,871.40704,-1081.7749,-287.33267,818.60547
74,0.608,-1117.7063,-263.4086,932.55396,-1137.37183,-319.49713,871.85748,-1077.19275,-285.87607,819.15375
75,0.617,-1113.81311,-260.63483,932.15063,-1133.57642,-319.3739,871.62488,-1071.94739,-286.65247,818.80048
76,0.625,-1108.4021,-262.82401,932.24634,-1128.30383,-320.15509,871.92432,-1069.05286,-285.93967,819.81561
77,0.633,-1102.76587,-263.17575,932.61066,-1123.19055,-319.38501,872.30292,-1062.08423,-286.16351,819.91034
78,0.642,-1098.71301,-260.97415,932.42188,-1118.19604,-319.34668,872.33594,-1057.34631,-286.23801,818.7373
79,0.65,-1094.08923,-262.0488,931.8291,-1113.26343,-318.71164,871.62451,-1053.05664,-285.40118,819.00073
80,0.658,-1089.97412,-261.35306,931.47382,-1108.42712,-318.11011,871.81726,-1047.09607,-284.58392,819.30499
81,0.667,-1083.5437,-259.90085,931.448,-1104.09875,-317.04605,871.91858,-1043.39929,-284.68961,819.85809
82,0.675,-1080.10425,-259.11667,930.13025,-1098.07935,-318.87454,870.93121,-1037.88269,-285.14264,819.52246
83,0.683,-1075.44299,-261.53348,930.64972,-1092.7804,-318.35025,870.91931,-1032.5166,-284.23605,818.62378
84,0.692,-1068.73035,-259.29999,930.49414,-1088.51782,-318.32974,871.62506,-1028.12415,-283.48508,818.97021
85,0.7,-1064.36975,-260.17291,929.66113,-1083.25903,-317.23343,871.17151,-1021.96246,-283.11166,817.62866
86,0.708,-1060.00793,-259.19473,930.02423,-1077.69922,-316.67334,870.21948,-1017.42426,-281.66156,817.32629
87,0.717,-1054.17786,-257.673,929.60315,-1071.75854,-317.55902,869.84558,-1012.95294,-282.41565,817.82788
88,0.725,-1049.36218,-260.7789,929.28448,-1066.87793,-318.26697,869.94116,-1007.26794,-284.38098,817.27271
89,0.733,-1044.16931,-259.93182,929.76123,-1061.64526,-317.18616,869.07098,-1002.0943,-283.2384,816.66162
90,0.742,-1038.56946,-259.65002,929.48389,-1056.9845,-316.98898,869.13092,-997.31604,-283.15179,817.02734
91,0.75,-1033.81677,-260.2178,929.50934,-1052.10547,-317.60059,869.12872,-991.9104,-283.47562,816.45367
92,0.758,-1027.51697,-261.97256,930.10449,-1047.0509,-319.79272,868.31104,-986.54724,-282.86417,815.86346
93,0.767,-1021.92419,-260.83997,928.77527,-1041.07068,-318.77182,868.13739,-981.64557,-283.71039,815.89569
94,0.775,-1016.98669,-260.99478,928.08282,-1036.37952,-318.46661,867.48676,-975.966,-284.39914,815.73773
95,0.783,-1011.20331,-261.03314,928.75494,-1030.58459,-320.26367,867.28845,-969.84375,-284.30453,815.18164
96,0.792,-1006.19891,-262.77344,927.0921,-1025.12817,-319.68457,867.13556,-965.53235,-285.86679,814.15051
97,0.8,-999.49011,-262.87021,927.12463,-1019.36432,-320.22733,866.53522,-961.25537,-287.30844,814.38727
98,0.808,-994.18842,-264.19171,925.65186,-1012.74634,-322.53851,865.84772,-954.28748,-286.35321,812.94397
99,0.817,-988.24188,-265.37869,925.45691,-1007.69293,-322.78009,864.7829,-947.45758,-286.99182,811.67261
100,0.825,-980.96747,-265.0712,924.34839,-1000.90479,-323.80551,864.37164,-942.02576,-289.15945,810.6532
101,0.833,-976.25922,-265.85654,924.08545,-994.73218,-325.60068,864.90222,-936.81689,-288.72702,810.31219
102,0.842,-968.64203,-267.86871,922.48529,-988.27856,-326.42914,863.31848,-930.32153,-289.44345,808.56506
103,0.85,-963.67896,-267.52594,922.95831,-981.56342,-326.99973,862.47552,-923.96979,-290.10486,808.52972
104,0.858,-957.44635,-269.65808,921.17609,-974.50116,-328.19061,862.16101,-918.13184,-290.04095,807.49756
105,0.867,-950.70435,-270.29333,920.1037,-967.99579,-327.61499,861.26575,-910.90924,-291.10175,806.5603
106,0.875,-942.96735,-269.38428,919.83911,-961.46466,-329.17218,861.05695,-905.3576,-292.082,805.21942
107,0.883,-936.98761,-270.87347,919.27368,-954.13458,-329.35684,860.646,-898.89288,-293.79285,804.74835
108,0.892,-930.15918,-272.64499,918.48901,-947.44116,-332.00351,858.96332,-890.61176,-292.56097,804.25073
109,0.9,-923.17029,-273.73569,917.74329,-939.82581,-333.11493,858.8045,-884.39941,-294.85083,803.45233
110,0.908,-914.95947,-274.82422,917.06042,-932.33502,-334.04053,858.13458,-877.63916,-295.71548,801.89398
111,0.917,-908.38104,-275.68027,916.40948,-925.68042,-335.19318,857.3808,-871.26288,-296.61407,801.02344
112,0.925,-901.02264,-276.5932,915.4447,-917.97461,-336.28296,855.76697,-863.55719,-298.18094,799.68793
113,0.933,-893.5733,-276.89291,914.19324,-909.94281,-337.38361,855.19836,-856.9848,-299.00021,798.18933
114,0.942,-886.35596,-280.45807,913.96185,-903.62903,-339.45544,854.53015,-850.57043,-300.8454,798.07788
115,0.95,-878.21112,-278.53915,913.19647,-895.92651,-340.32483,854.245,-842.10199,-301.48135,796.64618
116,0.958,-871.2843,-281.41916,913.04816,-888.39758,-342.04755,854.19867,-835.21088,-304.66327,797.49805
117,0.967,-864.01575,-282.99014,913.16772,-881.16418,-343.25745,854.97125,-827.48047,-305.21494,797.36053
118,0.975,-855.0929,-285.00827,914.00598,-874.33197,-343.7645,855.48541,-820.56952,-307.28967,797.98712
119,0.983,-848.80322,-284.84821,915.95587,-866.07269,-345.44186,856.44116,-813.54657,-307.86356,798.43683
120,0.992,-839.78955,-288.3804,917.16888,-859.2417,-345.54852,857.48529,-804.84082,-308.52411,800.11346
121,1,-831.65802,-286.18866,917.71167,-851.90588,-346.73016,859.13452,-798.37274,-310.39127,800.55701
122,1.008,-825.27722,-287.96213,919.2774,-845.15765,-346.71378,861.66602,-791.77454,-310.79422,802.36035
123,1.017,-818.35321,-289.52194,922.23993,-837.63586,-348.71649,863.06152,-783.76245,-312.14066,805.47327
124,1.025,-810.54907,-288.55386,923.8125,-830.66925,-349.43527,865.67175,-776.78168,-311.9278,806.93994
125,1.033,-802.57141,-291.24512,925.8595,-822.31055,-349.70499,867.91998,-767.99402,-314.62543,809.64923
126,1.042,-795.24384,-290.27301,928.63556,-815.03351,-351.17093,869.37683,-760.56927,-313.327,811.57941
127,1.05,-788.14905,-291.5322,930.64001,-807.24768,-351.37881,871.15662,-752.92914,-314.04584,813.37207
128,1.058,-781.61047,-293.67111,931.82062,-799.56018,-353.24353,873.33795,-745.10736,-314.20065,815.44867
129,1.067,-773.70056,-292.41959,933.16132,-791.59644,-353.85272,874.75012,-737.33752,-315.51001,817.39001
130,1.075,-767.89417,-294.63016,934.56342,-783.66376,-354.83395,875.22278,-728.84833,-315.08484,818.75195
131,1.083,-760.94568,-297.63086,935.96143,-776.20978,-356.42081,876.1225,-721.63287,-316.40063,819.92059
132,1.092,-754.05145,-297.43161,936.56366,-768.56909,-357.81763,876.70044,-714.49945,-316.63007,822.06305
133,1.1,-747.4223,-298.22812,937.77057,-760.258,-358.01706,877.28961,-706.15356,-317.34439,822.28973
134,1.108,-740.18805,-301.17703,937.83887,-753.21686,-360.61774,878.23346,-698.09094,-317.74792,823.6604
135,1.117,-732.93604,-301.52798,938.62384,-744.59888,-360.38358,877.7998,-689.82959,-318.65692,824.44202
136,1.125,-725.72083,-303.08572,938.01501,-737.40497,-363.03967,877.93683,-682.09589,-318.99429,824.63739
137,1.133,-720.70648,-304.21289,938.66119,-731.11078,-364.10028,878.08911,-673.64117,-319.5473,825.60254
138,1.142,-713.42865,-304.98636,938.47827,-722.32709,-366.48676,878.28284,-667.5813,-323.33807,826.62421
139,1.15,-706.15479,-306.22318,938.9729,-715.73279,-365.51755,878.64429,-659.41974,-323.62802,826.83716
140,1.158,-699.99591,-308.03717,939.20276,-706.80829,-367.37317,878.91589,-651.64093,-325.2019,828.12299
141,1.167,-692.06348,-308.25439,939.31543,-701.33246,-367.83099,878.81366,-644.18066,-325.35684,828.82721
142,1.175,-685.71173,-309.16571,939.45703,-694.07855,-370.00195,879.89673,-636.33215,-326.14264,829.47687
143,1.183,-679.68036,-311.75027,939.91003,-686.94574,-369.77695,880.14551,-629.21167,-327.76981,830.32465
144,1.192,-672.2746,-310.76749,941.42487,-680.10193,-371.90015,881.10223,-622.35577,-328.97134,831.4939
145,1.2,-666.14709,-310.55133,942.00604,-673.42047,-371.39474,882.01746,-615.38879,-329.3089,832.64893
146,1.208,-659.72809,-311.33017,942.02258,-666.75378,-371.15262,881.9281,-608.43066,-329.53879,833.51294
147,1.217,-653.22296,-310.69928,942.90436,-660.17065,-373.00504,882.26447,-601.05835,-330.68442,834.19421
148,1.225,-646.94141,-312.20081,943.80176,-654.02332,-373.09799,883.09625,-594.72247,-330.25168,834.70813
149,1.233,-640.47571,-312.55429,944.22858,-646.75641,-372.56656,883.23206,-588.5705,-329.83624,834.48932
150,1.242,-634.02161,-313.42587,944.85889,-640.68097,-373.25513,883.17194,-581.80664,-331.50781,836.15411
151,1.25,-627.77112,-314.71893,945.20526,-634.68713,-372.88019,884.35754,-575.06525,-330.29453,837.0816
152,1.258,-621.48206,-313.69305,945.47858,-628.96185,-373.8894,885.51233,-568.74091,-330.95084,837.88477
153,1.267,-615.29889,-313.96854,946.86414,-621.30646,-373.4548,885.31036,-562.13538,-330.31235,836.98505
154,1.275,-609.9068,-313.93399,946.82037,-615.56354,-373.61069,885.30365,-555.41779,-330.48944,838.41864
155,1.283,-604.02368,-315.07846,946.52313,-609.48212,-373.89963,885.68054,-550.21912,-330.32516,838.66754
156,1.292,-597.14642,-314.80646,947.15552,-602.86237,-373.44791,886.09412,-544.49146,-331.06506,838.49237
157,1.3,-591.41614,-314.86288,946.85181,-596.74091,-373.75842,886.35016,-537.8277,-330.83414,838.98395
158,1.308,-586.71283,-315.84497,947.8446,-590.87646,-375.0592,885.96088,-532.05487,-330.72464,838.89801
159,1.317,-580.18823,-314.60892,947.66602,-585.11249,-375.67545,885.84546,-525.11475,-332.89252,840.65326
160,1.325,-574.65033,-316.18723,947.7345,-578.84088,-373.8345,886.43201,-519.61591,-332.01773,840.38141
161,1.333,-567.81445,-315.89496,948.00061,-573.35602,-374.91025,885.77185,-512.99652,-331.24149,840.22241
162,1.342,-563.00659,-315.45395,947.65704,-566.75696,-375.26196,885.97302,-506.73196,-332.03049,840.08893
163,1.35,-557.77057,-316.28888,947.33051,-560.88196,-374.44498,884.90717,-501.14886,-331.77423,840.47595
164,1.358,-551.42627,-315.87787,947.37164,-555.76196,-374.62527,885.21027,-496.20908,-330.47922,839.45978
165,1.367,-544.69824,-315.37579,946.8468,-549.72632,-374.11356,884.40491,-489.10995,-330.80029,840.06366
166,1.375,-539.88391,-314.39124,946.88409,-544.28082,-374.50165,883.89697,-483.50836,-330.81903,839.64148
167,1.383,-534.17719,-315.9104,946.47986,-537.77979,-373.45282,883.75104,-477.94669,-329.81845,839.15039
168,1.392,-528.50958,-315.05017,945.31122,-532.20013,-373.65012,882.95166,-471.65659,-329.54776,839.07568
169,1.4,-522.15161,-314.4205,944.61328,-525.1709,-373.29547,882.03448,-465.99063,-329.14603,838.27295
170,1.408,-516.44574,-313.66537,943.81152,-519.57172,-373.06754,881.82446,-460.95154,-328.77426,837.40033
171,1.417,-510.76273,-314.24985,943.26312,-515.41345,-371.98517,880.65375,-454.43875,-327.53952,836.55994
172,1.425,-506.03412,-313.73392,941.86304,-507.97659,-372.13898,880.07849,-448.73187,-327.46362,835.65259
173,1.433,-500.0632,-312.62958,941.4079,-501.94147,-371.33514,879.25873,-443.00974,-326.69363,834.20618
174,1.442,-494.83987,-311.93542,940.93036,-498.64627,-370.75961,878.75873,-436.03549,-326.14999,834.38116
175,1.45,-488.94083,-311.68332,939.97247,-492.01279,-369.53833,877.36505,-432.09052,-326.04504,833.02875
176,1.458,-482.87445,-311.1409,939.5343,-486.60117,-369.74915,876.83234,-426.29321,-326.32007,832.13458
177,1.467,-477.33453,-310.88153,938.2074,-480.88397,-367.81738,875.99146,-420.15375,-324.93411,830.76489
178,1.475,-471.73834,-309.16559,937.59167,-475.37869,-368.65176,875.22852,-416.34024,-325.27393,829.10657
179,1.483,-465.39273,-309.18353,937.01202,-470.20605,-367.94165,874.40729,-409.69205,-324.53339,829.36542
180,1.492,-459.83762,-308.65323,936.1795,-465.34744,-366.39291,873.19257,-403.99576,-326.01117,828.51648
181,1.5,-455.33707,-308.77319,934.6532,-459.16449,-367.28979,871.96509,-399.04773,-325.76663,827.7854
182,1.508,-447.90863,-307.2605,933.65643,-454.92996,-366.98273,871.32092,-393.23572,-324.76535,827.20599
183,1.517,-442.79669,-308.06021,934.33307,-450.31848,-365.67654,870.41418,-387.03381,-324.61664,825.71832
184,1.525,-438.45609,-308.21829,933.32458,-443.16846,-365.94638,869.44403,-381.94077,-324.19681,824.7785
185,1.533,-431.8187,-307.06723,931.10132,-439.17374,-365.68988,869.09521,-377.21667,-323.59543,824.39642
186,1.542,-426.47675,-306.73029,930.89886,-433.93152,-363.66794,867.9173,-371.05682,-322.56332,823.78015
187,1.55,-421.09219,-306.21893,930.45331,-428.74997,-364.04041,867.96515,-365.35703,-322.99374,822.72876
188,1.558,-415.85495,-305.46548,929.76904,-422.43527,-362.82318,866.48743,-360.22964,-322.00183,822.04883
