Frame#,Time,L.Forearm.x,L.Forearm.y,L.Forearm.z,L.Ulna.x,L.Ulna.y,L.Ulna.z,L.Radius.x,L.Radius.y,L.Radius.z
1,0,-12.65345,296.64685,706.25031,7.06633,264.86298,609.37897,76.10338,205.15317,648.42786
2,0.008,-12.65345,296.64685,706.25031,7.14585,263.49701,608.99445,76.10338,205.15317,648.42786
3,0.017,-13.15837,296.94022,705.9231,7.14585,263.49701,608.99445,74.85162,204.22125,648.15601
4,0.025,-13.66746,297.01996,705.57501,7.14585,263.49701,608.99445,74.85237,205.71194,648.42645
5,0.033,-13.54801,297.03903,705.51837,6.73114,263.16882,608.6366,74.87771,204.45816,647.59869
6,0.042,-13.66342,296.84653,705.41742,6.42654,262.96521,608.51123,74.85237,205.71194,648.42645
7,0.05,-13.7938,296.68909,705.25861,6.42654,262.96521,608.51123,74.87771,204.45816,647.59869
8,0.058,-13.96301,296.46362,705.33154,6.7076,262.13382,608.05957,74.79415,204.33572,647.69354
9,0.067,-13.96301,296.46362,705.33154,6.62935,262.2597,608.25806,74.71229,203.76921,647.52942
10,0.075,-13.96301,296.46362,705.33154,6.7076,262.13382,608.05957,74.71229,203.76921,647.52942
11,0.083,-13.96167,296.29034,705.26471,6.53202,262.04852,608.18158,74.71229,203.76921,647.52942
12,0.092,-14.04457,296.28995,705.48853,6.53202,262.04852,608.18158,74.30893,204.56465,648.35834
13,0.1,-14.04457,296.28995,705.48853,6.53202,262.04852,608.18158,74.30893,204.56465,648.35834
14,0.108,-14.04457,296.28995,705.48853,6.53202,262.04852,608.18158,74.30893,204.56465,648.35834
15,0.117,-14.04457,296.28995,705.48853,6.53202,262.04852,608.18158,74.30392,203.40169,647.34167
16,0.125,-14.04457,296.28995,705.48853,6.53202,262.04852,608.18158,74.30392,203.40169,647.34167
17,0.133,-14.20017,296.29843,705.53149,6.53202,262.04852,608.18158,74.30392,203.40169,647.34167
18,0.142,-14.20017,296.29843,705.53149,6.53202,262.04852,608.18158,74.30392,203.40169,647.34167
19,0.15,-14.20017,296.29843,705.53149,6.53202,262.04852,608.18158,74.30392,203.40169,647.34167
20,0.158,-14.20017,296.29843,705.53149,6.53202,262.04852,608.18158,74.30515,203.19846,647.18713
21,0.167,-14.20017,296.29843,705.53149,6.44898,261.91055,608.35168,74.30515,203.19846,647.18713
22,0.175,-14.20017,296.29843,705.53149,6.44898,261.91055,608.35168,74.12783,203.08113,647.26306
23,0.183,-14.20017,296.29843,705.53149,6.44898,261.91055,608.35168,74.12783,203.08113,647.26306
24,0.192,-14.20017,296.29843,705.53149,7.22328,262.21146,607.75043,74.10522,203.46315,647.73401
25,0.2,-14.20017,296.29843,705.53149,7.22328,262.21146,607.75043,73.80081,203.33904,647.67029
26,0.208,-14.22526,296.21094,705.62097,7.22328,262.21146,607.75043,73.80081,203.33904,647.67029
27,0.217,-14.03052,295.48526,705.65051,7.22328,262.21146,607.75043,73.82484,203.22525,647.77771
28,0.225,-14.0297,295.33527,706.11212,7.22328,262.21146,607.75043,73.95023,202.92505,648.20441
29,0.233,-13.77526,295.27524,706.03094,7.46753,262.16068,607.96997,73.84891,202.72853,648.38031
30,0.242,-13.77526,295.27524,706.03094,7.46753,262.16068,607.96997,73.84891,202.72853,648.38031
31,0.25,-13.14858,294.67538,706.06519,7.69442,262.25555,608.12323,73.84891,202.72853,648.38031
32,0.258,-13.14858,294.67538,706.06519,7.69442,262.25555,608.12323,74.10992,202.68993,648.27856
33,0.267,-13.14858,294.67538,706.06519,7.69442,262.25555,608.12323,74.08677,203.63477,649.52911
34,0.275,-13.14858,294.67538,706.06519,7.69442,262.25555,608.12323,74.10992,202.68993,648.27856
35,0.283,-13.14858,294.67538,706.06519,7.75202,262.15228,608.20612,74.10992,202.68993,648.27856
36,0.292,-12.86957,294.51642,706.25513,8.17847,261.98569,608.20447,74.10992,202.68993,648.27856
37,0.3,-12.73879,294.4917,706.23511,8.17847,261.98569,608.20447,74.10992,202.68993,648.27856
38,0.308,-12.73879,294.4917,706.23511,8.17847,261.98569,608.20447,75.03002,205.2085,649.39661
39,0.317,-12.73879,294.4917,706.23511,8.17847,261.98569,608.20447,75.41449,204.72325,649.53864
40,0.325,-12.73879,294.4917,706.23511,8.37688,261.91226,608.4491,75.33203,205.29524,649.38373
41,0.333,-12.56941,294.39761,706.26691,7.56987,261.53079,609.01636,75.58045,205.57677,649.22925
42,0.342,-12.33258,294.25235,706.14252,7.56987,261.53079,609.01636,75.61795,204.92435,649.38092
43,0.35,-12.33258,294.25235,706.14252,7.56987,261.53079,609.01636,75.78116,205.00218,649.29608
44,0.358,-12.24973,294.25281,705.91876,7.56987,261.53079,609.01636,75.881,205.22554,649.08917
45,0.367,-12.22287,294.10968,706.23901,7.95184,261.63022,609.13165,75.80099,205.0659,648.98669
46,0.375,-11.77562,293.96185,706.16486,9.24495,261.93744,608.57721,75.70736,204.98869,648.81403
47,0.383,-11.77562,293.96185,706.16486,9.24495,261.93744,608.57721,76.00934,205.07533,648.80127
48,0.392,-11.77562,293.96185,706.16486,9.24495,261.93744,608.57721,76.03705,204.85876,648.97107
49,0.4,-11.5213,293.90161,706.08374,9.24495,261.93744,608.57721,76.48546,204.5808,648.99506
50,0.408,-11.43846,293.90207,705.85999,9.24495,261.93744,608.57721,76.9508,204.3891,648.91809
51,0.417,-11.43846,293.90207,705.85999,9.24495,261.93744,608.57721,76.9508,204.3891,648.91809
52,0.425,-11.43846,293.90207,705.85999,9.24495,261.93744,608.57721,76.9508,204.3891,648.91809
53,0.433,-11.30805,294.05969,706.01898,9.24495,261.93744,608.57721,76.9508,204.3891,648.91809
54,0.442,-11.19137,293.98135,705.75568,9.5476,261.46463,608.41754,76.9508,204.3891,648.91809
55,0.45,-11.32176,293.82364,705.59668,9.97407,261.29776,608.41589,76.9508,204.3891,648.91809
56,0.458,-11.32176,293.82364,705.59668,9.26629,260.96964,608.9184,77.19296,204.40813,648.65521
57,0.467,-11.32176,293.82364,705.59668,9.26629,260.96964,608.9184,77.13242,203.7493,648.63751
58,0.475,-11.19137,293.98135,705.75568,9.50585,260.89642,609.12335,77.3487,204.26077,648.46368
59,0.483,-11.19137,293.98135,705.75568,9.34921,261.1076,608.74835,77.4356,203.4911,648.52637
60,0.492,-11.18978,293.67218,705.69409,9.50585,260.89642,609.12335,77.4356,203.4911,648.52637
61,0.5,-9.96181,294.02567,706.24908,9.51442,260.7739,609.24286,76.29736,201.42821,648.76099
62,0.508,-9.37345,293.12146,706.57953,10.07227,260.54562,609.04755,76.29736,201.42821,648.76099
63,0.517,-9.26723,293.26797,706.72687,10.05078,260.46771,609.45331,76.17889,201.35576,647.64044
64,0.525,-9.10909,293.18823,706.73743,10.32523,260.57935,609.83276,76.16486,201.05774,647.79797
65,0.533,-9.12483,293.14893,706.74719,10.75289,259.89932,609.74347,76.2983,201.01723,648.95898
66,0.542,-8.78448,292.94153,706.80255,10.72331,259.56854,609.80273,77.44335,200.75421,649.50281
67,0.55,-8.53203,292.7955,706.96625,11.74055,259.77954,609.52655,77.49207,200.93449,649.63617
68,0.558,-8.55536,292.64124,707.0329,11.74055,259.77954,609.52655,77.25455,200.97188,649.75983
69,0.567,-8.70614,292.26175,707.3634,11.74055,259.77954,609.52655,77.4352,201.17078,650.29529
70,0.575,-8.70614,292.26175,707.3634,11.74055,259.77954,609.52655,77.15787,200.92973,650.07452
71,0.583,-8.5866,292.29041,707.43585,11.74055,259.77954,609.52655,77.12911,201.38551,648.94165
72,0.592,-8.5866,292.29041,707.43585,12.20647,259.60675,609.56879,76.95052,201.33194,649.25677
73,0.6,-8.60582,291.88339,707.64856,12.20647,259.60675,609.56879,77.11642,201.10773,648.9917
74,0.608,-8.31261,291.64804,707.45081,12.05331,259.32303,609.61987,77.42397,200.34915,650.16827
75,0.617,-9.08424,291.57465,706.92456,11.97142,259.95792,609.8761,78.23129,202.18954,649.04913
76,0.625,-8.09635,291.13861,707.91614,12.16194,259.83023,609.61078,77.67871,200.31203,648.79651
77,0.633,-8.24256,290.99445,707.88702,12.22329,258.79837,609.14795,77.63995,200.53014,648.83539
78,0.642,-8.24256,290.99445,707.88702,12.09716,258.64041,609.49475,77.65997,200.33997,648.5946
79,0.65,-7.6399,290.7659,707.61761,12.53517,258.20547,609.92633,77.63187,200.01329,648.51282
80,0.658,-7.23124,290.62323,707.74902,12.33207,257.90778,609.6734,77.67015,199.86992,648.34198
81,0.667,-6.77327,290.30789,707.8537,12.52974,257.91174,609.61792,77.98878,199.31653,648.67157
82,0.675,-6.60932,289.90485,707.32892,13.01934,257.6156,609.6665,77.86015,198.93919,648.34955
83,0.683,-6.28105,289.37137,707.4411,13.01934,257.6156,609.6665,78.31704,198.774,648.46661
84,0.692,-6.40479,289.23773,707.33301,11.80422,256.25989,609.9104,78.58334,199.10274,648.44208
85,0.7,-7.17766,289.30322,706.72986,11.95988,256.01764,609.87628,78.75217,198.77695,648.80096
86,0.708,-7.0407,288.91238,706.62573,12.46722,256.4068,609.49756,79.24164,196.04916,650.10327
87,0.717,-6.52733,288.98441,706.40869,12.66399,256.05228,609.49579,79.41509,195.61447,650.29401
88,0.725,-5.20431,288.71399,707.2533,12.68804,255.52835,609.44427,79.41509,195.61447,650.29401
89,0.733,-4.8002,288.58731,707.22253,13.24725,255.33693,609.59985,79.56517,195.57727,650.00452
90,0.742,-4.91185,288.40073,707.47699,13.18256,254.73927,609.56628,79.56517,195.57727,650.00452
91,0.75,-4.61312,288.50632,707.22205,13.18256,254.73927,609.56628,79.56517,195.57727,650.00452
92,0.758,-4.61312,288.50632,707.22205,14.14853,255.26451,609.67267,79.56517,195.57727,650.00452
93,0.767,-4.61312,288.50632,707.22205,14.14853,255.26451,609.67267,79.65372,195.91309,650.25635
94,0.775,-4.61312,288.50632,707.22205,14.39167,255.53635,609.92322,79.50364,195.95023,650.54578
95,0.783,-4.61312,288.50632,707.22205,14.39167,255.53635,609.92322,79.90382,195.85916,650.59747
96,0.792,-4.61312,288.50632,707.22205,14.39167,255.53635,609.92322,79.90382,195.85916,650.59747
97,0.8,-4.61312,288.50632,707.22205,15.56512,256.77042,609.71124,79.88527,195.78123,650.53442
98,0.808,-4.68323,288.93057,707.21869,15.56512,256.77042,609.71124,79.88527,195.78123,650.53442
99,0.817,-4.68323,288.93057,707.21869,15.49244,257.03543,609.96436,79.83035,195.65546,650.64258
100,0.825,-4.68323,288.93057,707.21869,15.56512,256.77042,609.71124,79.50779,195.90407,650.47351
101,0.833,-4.68323,288.93057,707.21869,15.45724,256.62512,609.70862,79.45284,195.77829,650.58167
102,0.842,-4.83483,288.91144,707.41327,15.35685,256.87308,609.94672,79.45284,195.77829,650.58167
103,0.85,-4.68323,288.93057,707.21869,15.45724,256.62512,609.70862,79.45284,195.77829,650.58167
104,0.858,-5.06343,288.38156,707.67151,15.08112,256.5827,609.84717,79.45284,195.77829,650.58167
105,0.867,-5.13352,288.80585,707.66815,14.10852,255.90895,609.85052,79.45284,195.77829,650.58167
106,0.875,-5.29409,288.53192,707.79767,13.85341,255.7702,609.69971,79.45284,195.77829,650.58167
107,0.883,-5.6812,288.52237,707.82098,13.41291,255.74994,609.79602,79.45284,195.77829,650.58167
108,0.892,-6.97345,288.58353,707.11133,13.41291,255.74994,609.79602,80.37717,197.27013,650.48718
109,0.9,-6.97345,288.58353,707.11133,12.29557,255.15652,610.2226,79.42577,195.79333,650.66449
110,0.908,-6.97345,288.58353,707.11133,12.15567,255.12073,610.29944,79.42577,195.79333,650.66449
111,0.917,-6.383,288.27917,708.26422,12.15567,255.12073,610.29944,79.42577,195.79333,650.66449
112,0.925,-6.47265,288.24957,708.33093,12.15567,255.12073,610.29944,79.42577,195.79333,650.66449
113,0.933,-7.57905,288.11719,707.78485,12.15567,255.12073,610.29944,79.42577,195.79333,650.66449
114,0.942,-7.57905,288.11719,707.78485,11.86687,255.11743,610.13513,79.252,195.65874,650.75916
115,0.95,-7.57905,288.11719,707.78485,11.59611,255.62555,610.30829,79.13395,195.55669,651.01465
116,0.958,-7.88915,288.3681,707.7265,11.59611,255.62555,610.30829,78.70158,195.88469,651.19781
117,0.967,-8.08234,288.46426,707.7002,11.39935,255.98021,610.31006,78.50677,195.90332,651.1698
118,0.975,-7.36448,288.58795,708.16833,10.95877,256.17545,610.33557,78.50677,195.90332,651.1698
119,0.983,-7.49636,288.67963,708.33105,11.05737,255.68588,610.19482,78.24753,196.2588,651.03015
120,0.992,-8.26889,288.68228,707.76251,10.95877,256.17545,610.33557,77.99464,196.31418,650.74023
121,1,-8.32836,289.14749,707.74463,10.79322,256.30084,610.68591,77.56504,196.57002,650.36346
122,1.008,-8.58593,289.29227,707.52625,10.89183,255.81136,610.54523,77.26952,197.07065,650.63611
123,1.017,-9.59995,289.6008,707.44824,10.89183,255.81136,610.54523,77.26952,197.07065,650.63611
124,1.025,-9.59995,289.6008,707.44824,10.73956,255.92128,610.48053,76.98013,197.13855,650.78241
125,1.033,-9.1947,290.20355,707.92627,9.89661,255.9113,610.2666,76.83614,198.36453,650.73071
126,1.042,-9.31647,289.92868,707.89056,9.72082,256.23685,610.26038,76.83614,198.36453,650.73071
127,1.05,-9.65813,290.51584,707.90186,9.27478,256.4227,610.2066,76.38825,198.07243,650.7016
128,1.058,-9.77997,290.24097,707.86615,9.24501,257.23203,610.20172,76.20402,198.01488,650.73505
129,1.067,-10.30342,290.53064,707.8692,8.69246,256.55576,610.07745,75.34927,199.58415,648.7522
130,1.075,-10.66567,290.70483,707.77887,8.36605,256.67493,609.92584,75.34927,199.58415,648.7522
131,1.083,-10.84333,291.01486,707.75134,8.02859,257.27429,610.15118,75.34927,199.58415,648.7522
132,1.092,-11.00863,290.95065,707.66498,8.02859,257.27429,610.15118,74.90115,200.01962,648.83643
133,1.1,-11.19202,290.85248,707.59351,7.6591,257.34631,610.29974,74.74792,200.02969,649.07117
134,1.108,-11.62439,290.21408,707.53906,7.35507,257.54315,610.17279,74.49355,200.14186,648.70093
135,1.117,-11.72227,290.46936,707.42719,7.21853,257.54218,610.3252,73.77763,199.85262,648.54199
136,1.125,-12.33108,290.95465,707.56488,7.99245,258.0249,609.63599,73.78336,200.18275,648.94525
137,1.133,-13.05112,291.24631,707.62775,7.77424,258.26505,609.82745,73.40442,200.20811,649.04156
138,1.142,-13.20243,291.50089,707.48639,7.77424,258.26505,609.82745,73.10291,200.25645,648.86688
139,1.15,-13.51912,291.04379,707.51587,7.34101,258.27957,609.63513,73.35493,200.4929,649.00464
140,1.158,-13.70252,290.85388,707.75781,6.74117,258.41156,609.70093,73.35493,200.4929,649.00464
141,1.167,-13.93345,291.00513,707.88385,6.74117,258.41156,609.70093,73.10291,200.25645,648.86688
142,1.175,-14.05493,290.90289,707.97595,6.27482,258.58511,609.65851,73.09362,200.5314,649.10645
143,1.183,-14.05493,290.90289,707.97595,6.27482,258.58511,609.65851,73.09362,200.5314,649.10645
144,1.192,-14.67652,290.92676,707.93835,5.06066,258.66461,610.61816,72.99174,200.19209,648.78796
145,1.2,-15.02142,291.09567,707.9566,4.84785,258.77609,610.57025,72.99174,200.19209,648.78796
146,1.208,-15.37138,290.83185,707.93988,4.84785,258.77609,610.57025,73.05775,199.63406,648.91486
147,1.217,-15.16496,291.11142,708.00244,4.84785,258.77609,610.57025,73.05775,199.63406,648.91486
148,1.225,-15.16496,291.11142,708.00244,4.84785,258.77609,610.57025,72.8773,199.66147,649.03967
149,1.233,-15.16496,291.11142,708.00244,4.84785,258.77609,610.57025,72.8773,199.66147,649.03967
150,1.242,-15.52998,290.91864,707.75439,4.84785,258.77609,610.57025,73.17233,200.3562,649.15723
151,1.25,-15.52998,290.91864,707.75439,4.86549,258.80725,610.82477,73.20781,200.06824,649.23694
152,1.258,-16.12371,291.24817,707.94299,4.86549,258.80725,610.82477,72.77306,201.65108,651.03479
153,1.267,-16.12371,291.24817,707.94299,4.86549,258.80725,610.82477,72.68158,201.6862,651.17767
154,1.275,-16.12371,291.24817,707.94299,4.86549,258.80725,610.82477,72.81851,202.24742,651.05798
155,1.283,-16.96594,291.00592,707.45905,4.86549,258.80725,610.82477,73.55446,203.69308,650.8186
156,1.292,-16.72625,291.32187,707.526,4.86549,258.80725,610.82477,73.47419,203.25175,650.91333
157,1.3,-16.96594,291.00592,707.45905,4.84989,258.70193,610.93414,73.47419,203.25175,650.91333
158,1.308,-16.96594,291.00592,707.45905,4.84785,258.77609,610.57025,73.55446,203.69308,650.8186
159,1.317,-16.96594,291.00592,707.45905,4.84785,258.77609,610.57025,73.55446,203.69308,650.8186
160,1.325,-16.96594,291.00592,707.45905,4.84989,258.70193,610.93414,73.55446,203.69308,650.8186
161,1.333,-16.96594,291.00592,707.45905,4.83226,258.67081,610.67963,73.47419,203.25175,650.91333
162,1.342,-16.79973,290.8266,707.3573,5.06066,258.66461,610.61816,73.896,203.1199,650.55157
163,1.35,-16.58336,290.57504,707.1062,4.84785,258.77609,610.57025,74.03084,203.30528,650.51801
164,1.358,-16.38288,290.49564,707.11407,5.94796,258.74521,609.8175,73.85831,203.28979,650.46967
165,1.367,-16.58336,290.57504,707.1062,6.27482,258.58511,609.65851,74.00477,202.925,650.50653
166,1.375,-16.71971,290.44107,706.80225,6.27482,258.58511,609.65851,73.85831,203.28979,650.46967
167,1.383,-16.71971,290.44107,706.80225,6.09222,258.68451,609.61218,73.85831,203.28979,650.46967
168,1.392,-16.6385,290.6152,706.64532,6.09222,258.68451,609.61218,73.85831,203.28979,650.46967
169,1.4,-16.81909,290.71506,706.43652,6.09222,258.68451,609.61218,74.00752,203.1566,650.30463
170,1.408,-16.70602,290.94342,706.16046,6.09222,258.68451,609.61218,74.02479,203.29256,650.17676
171,1.417,-16.63487,290.97058,706.00006,5.8941,258.75775,609.36755,74.02479,203.29256,650.17676
172,1.425,-16.41377,291.3201,705.9046,5.8941,258.75775,609.36755,73.46786,202.20052,650.36987
173,1.433,-16.41377,291.3201,705.9046,5.87954,258.67429,608.92615,73.46786,202.20052,650.36987
174,1.442,-16.54458,291.16293,705.74561,5.87954,258.67429,608.92615,73.32057,202.3262,650.54211
175,1.45,-16.54458,291.16293,705.74561,5.55481,258.84592,609.14813,73.25144,202.6987,650.17578
176,1.458,-16.54458,291.16293,705.74561,5.54273,258.76416,608.63654,73.39875,202.573,650.0036
177,1.467,-16.42768,291.08405,705.48193,5.54273,258.76416,608.63654,73.25144,202.6987,650.17578
178,1.475,-16.42768,291.08405,705.48193,5.28721,258.5004,608.57434,73.25144,202.6987,650.17578
179,1.483,-16.42768,291.08405,705.48193,5.28721,258.5004,608.57434,73.25144,202.6987,650.17578
180,1.492,-16.42768,291.08405,705.48193,5.0618,258.48718,608.64618,73.19552,203.37347,649.9765
181,1.5,-16.62284,291.81036,705.45227,5.0618,258.48718,608.64618,73.19552,203.37347,649.9765
182,1.508,-16.56853,291.21429,705.40717,4.73713,258.65921,608.86816,73.25144,202.6987,650.17578
183,1.517,-16.76368,291.94058,705.3775,4.73713,258.65921,608.86816,73.19552,203.37347,649.9765
184,1.525,-17.45882,292.05515,705.60999,4.53341,258.36209,608.61548,73.19552,203.37347,649.9765
185,1.533,-17.24624,291.97656,705.51605,4.73713,258.65921,608.86816,73.19552,203.37347,649.9765
186,1.542,-17.02515,292.32614,705.42059,4.4925,258.71033,608.64825,72.53824,203.53433,649.84625
187,1.55,-17.69012,292.67493,705.54974,4.36513,259.62292,608.77759,73.28473,204.89088,649.66284
188,1.558,-17.70211,292.80359,705.4339,4.28033,259.74384,608.60974,73.06307,204.95282,649.78577
189,1.567,-17.76073,293.2684,705.41638,4.07667,259.44684,608.35712,73.06307,204.95282,649.78577
190,1.575,-17.76073,293.2684,705.41638,4.12688,259.67371,608.10205,72.86886,205.02072,649.39484
191,1.583,-17.26809,293.13898,705.84668,4.33052,259.97067,608.35474,72.00653,204.03712,649.33325
192,1.592,-17.76073,293.2684,705.41638,3.7,259.84125,608.1037,73.00001,205.33273,649.05212
193,1.6,-17.76073,293.2684,705.41638,3.42798,259.89859,608.12067,73.00001,205.33273,649.05212
194,1.608,-17.63016,293.39447,705.31775,3.42798,259.89859,608.12067,72.00653,204.03712,649.33325
195,1.617,-17.63016,293.39447,705.31775,3.42798,259.89859,608.12067,72.24444,204.00047,649.20935
196,1.625,-17.63016,293.39447,705.31775,3.42798,259.89859,608.12067,72.00513,204.11852,649.11072
197,1.633,-17.63016,293.39447,705.31775,3.43427,260.03085,607.99323,72.24444,204.00047,649.20935
198,1.642,-17.63016,293.39447,705.31775,3.42798,259.89859,608.12067,72.00653,204.03712,649.33325
199,1.65,-17.63016,293.39447,705.31775,3.42798,259.89859,608.12067,72.00653,204.03712,649.33325
200,1.658,-17.63016,293.39447,705.31775,3.63167,260.19553,608.37323,72.77831,205.39468,649.17511
201,1.667,-17.63016,293.39447,705.31775,3.90367,260.13818,608.35632,72.0608,203.6579,649.51978
202,1.675,-17.76073,293.2684,705.41638,4.33052,259.97067,608.35474,72.0608,203.6579,649.51978
203,1.683,-17.78274,293.28918,705.63007,4.33052,259.97067,608.35474,72.56327,204.35938,649.58466
204,1.692,-17.99195,292.81085,705.84143,4.33052,259.97067,608.35474,72.56327,204.35938,649.58466
205,1.7,-17.99195,292.81085,705.84143,4.28033,259.74384,608.60974,72.56327,204.35938,649.58466
206,1.708,-17.99195,292.81085,705.84143,4.28033,259.74384,608.60974,72.56327,204.35938,649.58466
207,1.717,-17.93337,292.34607,705.85895,4.36513,259.62292,608.77759,72.56327,204.35938,649.58466
208,1.725,-17.93337,292.34607,705.85895,4.60969,259.57181,608.99738,72.56327,204.35938,649.58466
