Frame#,Time,L.Forearm.x,L.Forearm.y,L.Forearm.z,L.Ulna.x,L.Ulna.y,L.Ulna.z,L.Radius.x,L.Radius.y,L.Radius.z
1,0,-143.50726,305.56219,645.84766,-80.98834,306.68698,567.1272,-18.06455,240.44087,612.23254
2,0.008,-143.50726,305.56219,645.84766,-81.00173,306.79288,567.04083,-18.02448,240.74864,612.03259
3,0.017,-143.07349,305.75156,645.69696,-81.00173,306.79288,567.04083,-18.02448,240.74864,612.03259
4,0.025,-143.03522,305.58936,645.71704,-81.00173,306.79288,567.04083,-18.02448,240.74864,612.03259
5,0.033,-142.89532,305.81717,645.68048,-81.00173,306.79288,567.04083,-18.06108,240.75217,611.70044
6,0.042,-143.5629,306.88831,645.21368,-81.36848,306.76196,566.88757,-18.06108,240.75217,611.70044
7,0.05,-143.5629,306.88831,645.21368,-81.3674,306.96448,567.02448,-17.60772,241.09166,611.73151
8,0.058,-143.68362,306.81317,645.32861,-81.32868,307.18637,567.11652,-18.06108,240.75217,611.70044
9,0.067,-143.76134,306.8728,645.47125,-81.53141,307.05997,566.99384,-18.06108,240.75217,611.70044
10,0.075,-143.9507,306.35391,645.14026,-81.53141,307.05997,566.99384,-18.16662,240.87894,611.85602
11,0.083,-143.84981,306.59482,645.29541,-81.53141,307.05997,566.99384,-18.02448,240.74864,612.03259
12,0.092,-143.76134,306.8728,645.47125,-81.53141,307.05997,566.99384,-18.16662,240.87894,611.85602
13,0.1,-144.1107,306.40793,645.43396,-81.78442,307.12866,566.93494,-18.16662,240.87894,611.85602
14,0.108,-144.05521,306.50562,645.44098,-81.85789,307.23245,566.8692,-18.16662,240.87894,611.85602
15,0.117,-144.05521,306.50562,645.44098,-81.78442,307.12866,566.93494,-18.16662,240.87894,611.85602
16,0.125,-144.27686,306.18954,645.40076,-81.78442,307.12866,566.93494,-18.13006,240.87534,612.18817
17,0.133,-144.42297,306.26285,645.27954,-81.78442,307.12866,566.93494,-18.16662,240.87894,611.85602
18,0.142,-144.42297,306.26285,645.27954,-81.78442,307.12866,566.93494,-18.16662,240.87894,611.85602
19,0.15,-144.42297,306.26285,645.27954,-81.78442,307.12866,566.93494,-18.16662,240.87894,611.85602
20,0.158,-144.58354,306.47635,645.04395,-81.78442,307.12866,566.93494,-18.16662,240.87894,611.85602
21,0.167,-144.28587,306.52026,645.0578,-81.85789,307.23245,566.8692,-18.16662,240.87894,611.85602
22,0.175,-144.23036,306.06613,645.01599,-81.92762,307.34052,566.72961,-18.16662,240.87894,611.85602
23,0.183,-143.82709,306.85471,645.2251,-81.92762,307.34052,566.72961,-18.16662,240.87894,611.85602
24,0.192,-143.80774,307.01999,645.0567,-81.85789,307.23245,566.8692,-18.16662,240.87894,611.85602
25,0.2,-143.74068,306.92648,644.90723,-81.85789,307.23245,566.8692,-18.07543,242.19025,611.82397
26,0.208,-144.24579,306.43027,644.92426,-81.92762,307.34052,566.72961,-17.99927,241.01601,611.76117
27,0.217,-144.02417,306.74637,644.96448,-81.92762,307.34052,566.72961,-17.99927,241.01601,611.76117
28,0.225,-143.9623,306.61041,644.867,-81.78442,307.12866,566.93494,-18.07543,242.19025,611.82397
29,0.233,-144.16078,306.59491,645.12457,-81.65998,308.33044,567.11859,-17.90818,242.32713,611.72913
30,0.242,-144.29115,306.47787,645.10986,-81.85789,307.23245,566.8692,-18.07543,242.19025,611.82397
31,0.25,-144.28587,306.52026,645.0578,-81.92879,307.95572,567.12756,-18.07543,242.19025,611.82397
32,0.258,-144.50754,306.20419,645.01758,-81.92762,307.34052,566.72961,-18.07543,242.19025,611.82397
33,0.267,-144.50754,306.20419,645.01758,-81.85789,307.23245,566.8692,-18.07543,242.19025,611.82397
34,0.275,-144.50754,306.20419,645.01758,-81.78442,307.12866,566.93494,-18.07543,242.19025,611.82397
35,0.283,-144.59416,306.24811,644.70331,-81.85789,307.23245,566.8692,-17.90818,242.32713,611.72913
36,0.292,-144.67188,306.30774,644.84595,-81.92762,307.34052,566.72961,-18.16662,240.87894,611.85602
37,0.3,-144.59416,306.24811,644.70331,-81.92762,307.34052,566.72961,-18.16662,240.87894,611.85602
38,0.308,-144.59416,306.24811,644.70331,-81.92762,307.34052,566.72961,-18.16662,240.87894,611.85602
39,0.317,-144.59416,306.24811,644.70331,-81.92762,307.34052,566.72961,-18.2973,241.02774,611.74707
40,0.325,-144.59416,306.24811,644.70331,-82.13131,307.33728,566.41101,-18.2973,241.02774,611.74707
41,0.333,-144.59416,306.24811,644.70331,-82.13131,307.33728,566.41101,-18.16662,240.87894,611.85602
42,0.342,-144.59416,306.24811,644.70331,-82.13131,307.33728,566.41101,-18.16662,240.87894,611.85602
43,0.35,-144.59416,306.24811,644.70331,-81.92762,307.34052,566.72961,-18.2973,241.02774,611.74707
44,0.358,-144.67188,306.30774,644.84595,-81.92762,307.34052,566.72961,-18.16662,240.87894,611.85602
45,0.367,-144.67188,306.30774,644.84595,-81.92762,307.34052,566.72961,-17.90818,242.32713,611.72913
46,0.375,-144.67188,306.30774,644.84595,-81.92762,307.34052,566.72961,-17.99927,241.01601,611.76117
47,0.383,-144.50754,306.20419,645.01758,-81.92762,307.34052,566.72961,-17.99927,241.01601,611.76117
48,0.392,-144.50754,306.20419,645.01758,-81.85789,307.23245,566.8692,-18.07543,242.19025,611.82397
49,0.4,-144.29115,306.47787,645.10986,-81.59275,307.60303,566.93414,-18.07543,242.19025,611.82397
50,0.408,-144.29115,306.47787,645.10986,-81.51928,307.4993,566.99988,-18.16662,240.87894,611.85602
51,0.417,-143.92337,306.72064,645.27124,-81.51928,307.4993,566.99988,-18.07543,242.19025,611.82397
52,0.425,-143.76134,306.8728,645.47125,-81.85533,307.85199,567.1933,-18.16662,240.87894,611.85602
53,0.433,-143.76134,306.8728,645.47125,-81.2663,307.43057,567.05878,-17.99927,241.01601,611.76117
54,0.442,-143.76134,306.8728,645.47125,-81.31653,307.62567,567.1225,-17.99927,241.01601,611.76117
55,0.45,-143.68221,306.70544,645.60236,-81.13461,308.27994,567.43964,-17.99927,241.01601,611.76117
56,0.458,-143.76134,306.8728,645.47125,-81.13461,308.27994,567.43964,-17.99927,241.01601,611.76117
57,0.467,-143.46333,306.77545,645.68634,-81.06355,307.55692,567.1814,-18.16662,240.87894,611.85602
58,0.475,-143.40051,306.53836,645.67126,-81.06355,307.55692,567.1814,-17.60772,241.09166,611.73151
59,0.483,-143.17238,306.40668,645.65002,-80.89954,307.46143,567.21204,-17.60772,241.09166,611.73151
60,0.492,-143.04106,306.51569,645.54193,-81.06355,307.55692,567.1814,-18.06108,240.75217,611.70044
61,0.5,-143.10904,306.75461,645.56781,-81.06355,307.55692,567.1814,-17.44038,241.2287,611.6366
62,0.508,-143.04106,306.51569,645.54193,-80.89954,307.46143,567.21204,-17.60772,241.09166,611.73151
63,0.517,-143.04106,306.51569,645.54193,-80.89954,307.46143,567.21204,-17.44038,241.2287,611.6366
64,0.525,-142.68176,306.58691,645.33575,-80.89954,307.46143,567.21204,-17.44038,241.2287,611.6366
65,0.533,-142.92906,306.68921,645.44177,-80.89954,307.46143,567.21204,-17.60772,241.09166,611.73151
66,0.542,-142.79379,306.41339,645.43597,-80.89954,307.46143,567.21204,-17.60772,241.09166,611.73151
67,0.55,-142.79379,306.41339,645.43597,-80.89954,307.46143,567.21204,-17.60772,241.09166,611.73151
68,0.558,-142.84171,305.98581,645.71503,-80.89954,307.46143,567.21204,-17.44038,241.2287,611.6366
69,0.567,-142.84171,305.98581,645.71503,-80.89954,307.46143,567.21204,-17.57117,241.08812,612.0636
70,0.575,-142.72581,305.77454,645.7171,-80.89954,307.46143,567.21204,-17.40383,241.2252,611.96869
71,0.583,-142.84171,305.98581,645.71503,-80.89954,307.46143,567.21204,-17.40383,241.2252,611.96869
72,0.592,-142.5945,305.88354,645.60901,-80.89954,307.46143,567.21204,-17.57117,241.08812,612.0636
73,0.6,-142.97304,305.8768,645.82306,-80.89954,307.46143,567.21204,-17.57117,241.08812,612.0636
74,0.608,-142.97304,305.8768,645.82306,-80.89954,307.46143,567.21204,-17.57117,241.08812,612.0636
75,0.617,-143.06987,306.11752,645.73627,-80.89954,307.46143,567.21204,-17.40383,241.2252,611.96869
76,0.625,-143.17238,306.40668,645.65002,-80.89954,307.46143,567.21204,-17.57117,241.08812,612.0636
77,0.633,-142.97452,305.98468,645.54932,-81.32868,307.18637,567.11652,-17.40383,241.2252,611.96869
78,0.642,-143.40198,306.64615,645.39758,-81.16575,306.8884,567.01025,-17.60772,241.09166,611.73151
79,0.65,-143.75127,306.18127,645.36035,-81.53141,307.05997,566.99384,-17.89372,240.88922,611.60553
80,0.658,-144.03297,306.34833,645.29138,-81.78442,307.12866,566.93494,-17.89372,240.88922,611.60553
81,0.667,-144.42982,306.14456,644.87494,-81.78442,307.12866,566.93494,-18.06108,240.75217,611.70044
82,0.675,-144.42982,306.14456,644.87494,-81.85789,307.23245,566.8692,-18.06108,240.75217,611.70044
83,0.683,-144.42982,306.14456,644.87494,-81.92762,307.34052,566.72961,-18.16662,240.87894,611.85602
84,0.692,-144.59416,306.24811,644.70331,-81.92762,307.34052,566.72961,-18.16662,240.87894,611.85602
85,0.7,-144.59416,306.24811,644.70331,-81.92762,307.34052,566.72961,-18.16662,240.87894,611.85602
86,0.708,-144.59416,306.24811,644.70331,-81.92762,307.34052,566.72961,-17.99927,241.01601,611.76117
87,0.717,-144.91028,306.21808,644.70251,-81.92762,307.34052,566.72961,-18.16662,240.87894,611.85602
88,0.725,-144.91028,306.21808,644.70251,-82.22874,307.45062,566.78986,-18.2973,241.02774,611.74707
89,0.733,-144.91028,306.21808,644.70251,-82.22874,307.45062,566.78986,-18.2973,241.02774,611.74707
90,0.742,-144.91028,306.21808,644.70251,-82.22874,307.45062,566.78986,-18.2973,241.02774,611.74707
91,0.75,-144.91028,306.21808,644.70251,-82.22874,307.45062,566.78986,-18.2973,241.02774,611.74707
92,0.758,-144.91028,306.21808,644.70251,-82.39709,307.45776,566.5719,-18.2061,242.33893,611.71503
93,0.767,-145.10632,306.52069,644.76593,-82.22874,307.45062,566.78986,-18.2061,242.33893,611.71503
94,0.775,-144.98799,306.27774,644.84515,-82.39155,307.7486,566.89624,-18.2061,242.33893,611.71503
95,0.783,-144.67188,306.30774,644.84595,-82.29958,308.17383,567.04822,-18.2061,242.33893,611.71503
96,0.792,-144.67188,306.30774,644.84595,-82.29958,308.17383,567.04822,-18.2061,242.33893,611.71503
97,0.8,-144.67188,306.30774,644.84595,-82.1614,308.36172,567.09436,-18.2061,242.33893,611.71503
98,0.808,-144.62584,306.44717,644.93835,-82.1614,308.36172,567.09436,-18.2061,242.33893,611.71503
99,0.817,-144.62584,306.44717,644.93835,-82.1614,308.36172,567.09436,-18.07543,242.19025,611.82397
100,0.825,-144.50754,306.20419,645.01758,-81.99852,308.06375,566.98798,-17.90818,242.32713,611.72913
101,0.833,-144.29115,306.47787,645.10986,-81.8266,308.62399,567.29877,-18.04144,242.45537,611.63477
102,0.842,-143.79567,306.86945,645.26831,-81.6637,308.32608,567.19244,-18.07543,242.19025,611.82397
103,0.85,-143.93912,306.91095,645.16479,-81.73344,308.43411,567.05286,-18.07543,242.19025,611.82397
104,0.858,-143.93912,306.91095,645.16479,-81.73344,308.43411,567.05286,-17.90818,242.32713,611.72913
105,0.867,-143.66429,306.97849,645.16022,-81.461,308.45239,567.31506,-17.90818,242.32713,611.72913
106,0.875,-143.66429,306.97849,645.16022,-81.13461,308.27994,567.43964,-17.90818,242.32713,611.72913
107,0.883,-143.66429,306.97849,645.16022,-81.33732,308.15369,567.31702,-17.54591,241.35548,611.79218
108,0.892,-143.38986,306.81961,645.14325,-81.13461,308.27994,567.43964,-17.99927,241.01601,611.76117
109,0.9,-143.52794,307.18149,645.07715,-81.06355,307.55692,567.1814,-18.06108,240.75217,611.70044
110,0.908,-143.18643,306.92911,644.91071,-81.06355,307.55692,567.1814,-17.89372,240.88922,611.60553
111,0.917,-142.70386,306.68704,644.86926,-80.89954,307.46143,567.21204,-18.06108,240.75217,611.70044
112,0.925,-142.84023,306.48401,644.95233,-80.89954,307.46143,567.21204,-17.89372,240.88922,611.60553
113,0.933,-143.08751,306.5863,645.05835,-80.73659,307.16354,567.10577,-17.86313,240.72978,611.48108
114,0.942,-142.84023,306.48401,644.95233,-80.73659,307.16354,567.10577,-18.06108,240.75217,611.70044
115,0.95,-142.64096,305.95425,645.12537,-80.73659,307.16354,567.10577,-18.06108,240.75217,611.70044
116,0.958,-143.29198,306.35016,644.79553,-80.73659,307.16354,567.10577,-17.86313,240.72978,611.48108
117,0.967,-142.76869,305.80536,645.12836,-80.73659,307.16354,567.10577,-17.86313,240.72978,611.48108
118,0.975,-143.47278,305.73141,645.12958,-80.93935,307.03717,566.98309,-17.89372,240.88922,611.60553
119,0.983,-143.56273,305.28021,645.04626,-80.73659,307.16354,567.10577,-18.06108,240.75217,611.70044
120,0.992,-143.58815,305.42868,644.81012,-81.36848,306.76196,566.88757,-18.06108,240.75217,611.70044
121,1,-144.02699,305.69122,644.6554,-81.20447,306.66644,566.91815,-18.06108,240.75217,611.70044
122,1.008,-144.02699,305.69122,644.6554,-81.36848,306.76196,566.88757,-18.06108,240.75217,611.70044
123,1.017,-144.30907,306.21967,644.76001,-81.36848,306.76196,566.88757,-18.06108,240.75217,611.70044
124,1.025,-144.196,306.14365,644.62549,-81.53141,307.05997,566.99384,-18.06108,240.75217,611.70044
125,1.033,-144.196,306.14365,644.62549,-81.69498,306.93454,566.76288,-17.89372,240.88922,611.60553
126,1.042,-144.4734,306.32321,644.58838,-81.76472,307.0426,566.62323,-18.06108,240.75217,611.70044
127,1.05,-144.4734,306.32321,644.58838,-81.92762,307.34052,566.72961,-18.16662,240.87894,611.85602
128,1.058,-144.59416,306.24811,644.70331,-81.92762,307.34052,566.72961,-18.16662,240.87894,611.85602
129,1.067,-144.59416,306.24811,644.70331,-81.92762,307.34052,566.72961,-18.16662,240.87894,611.85602
130,1.075,-144.71245,306.49106,644.62408,-81.92762,307.34052,566.72961,-18.16662,240.87894,611.85602
131,1.083,-144.9119,306.61386,644.48041,-81.85917,307.39682,566.66034,-18.16662,240.87894,611.85602
132,1.092,-144.71245,306.49106,644.62408,-81.92762,307.34052,566.72961,-18.16662,240.87894,611.85602
133,1.1,-144.71245,306.49106,644.62408,-81.85917,307.39682,566.66034,-17.90818,242.32713,611.72913
134,1.108,-144.71245,306.49106,644.62408,-81.92762,307.34052,566.72961,-18.2973,241.02774,611.74707
135,1.117,-144.71245,306.49106,644.62408,-81.92762,307.34052,566.72961,-18.2061,242.33893,611.71503
136,1.125,-144.59169,306.56616,644.50916,-81.85917,307.39682,566.66034,-18.04144,242.45537,611.63477
137,1.133,-144.53586,306.79346,644.48499,-81.85917,307.39682,566.66034,-17.90818,242.32713,611.72913
138,1.142,-144.59169,306.56616,644.50916,-82.02545,307.37476,566.31042,-18.07543,242.19025,611.82397
139,1.15,-144.59169,306.56616,644.50916,-81.99852,308.06375,566.98798,-18.04144,242.45537,611.63477
140,1.158,-144.59169,306.56616,644.50916,-81.93009,308.12003,566.9187,-18.04144,242.45537,611.63477
141,1.167,-144.51868,306.72659,644.33221,-81.93009,308.12003,566.9187,-18.04144,242.45537,611.63477
142,1.175,-144.31592,307.06433,644.20258,-81.66501,308.49036,566.98358,-17.90818,242.32713,611.72913
143,1.183,-144.01877,307.39758,644.31885,-81.66501,308.49036,566.98358,-17.90818,242.32713,611.72913
144,1.192,-144.38832,306.84366,644.34698,-81.66501,308.49036,566.98358,-17.90818,242.32713,611.72913
145,1.2,-144.18558,307.18137,644.21735,-81.66501,308.49036,566.98358,-17.90818,242.32713,611.72913
146,1.208,-144.28479,306.98569,644.38483,-81.59405,307.76736,566.72528,-17.90818,242.32713,611.72913
147,1.217,-144.18558,307.18137,644.21735,-81.59405,307.76736,566.72528,-17.90818,242.32713,611.72913
148,1.225,-144.01877,307.39758,644.31885,-81.34109,307.6987,566.78418,-17.90818,242.32713,611.72913
149,1.233,-143.91347,306.92935,644.32471,-81.59405,307.76736,566.72528,-18.16662,240.87894,611.85602
150,1.242,-144.01877,307.39758,644.31885,-81.66249,307.71106,566.79449,-17.99927,241.01601,611.76117
151,1.25,-144.31592,307.06433,644.20258,-81.92762,307.34052,566.72961,-18.06108,240.75217,611.70044
152,1.258,-144.40038,306.48364,644.4115,-81.85917,307.39682,566.66034,-17.99927,241.01601,611.76117
153,1.267,-144.196,306.14365,644.62549,-81.92762,307.34052,566.72961,-17.99927,241.01601,611.76117
154,1.275,-144.12711,306.28317,644.47009,-81.85917,307.39682,566.66034,-17.99927,241.01601,611.76117
155,1.283,-144.19762,306.82132,644.28186,-81.69627,307.09894,566.55402,-17.89372,240.88922,611.60553
156,1.292,-144.15312,306.38138,644.30548,-81.85917,307.39682,566.66034,-17.89372,240.88922,611.60553
157,1.3,-144.20842,306.61914,644.11108,-81.85917,307.39682,566.66034,-18.06108,240.75217,611.70044
158,1.308,-144.47304,306.65659,643.90314,-81.69627,307.09894,566.55402,-17.89372,240.88922,611.60553
159,1.317,-144.21492,306.75644,643.9679,-81.68926,307.01108,566.1582,-17.89372,240.88922,611.60553
160,1.325,-144.2274,307.23505,643.50568,-81.68926,307.01108,566.1582,-17.89372,240.88922,611.60553
161,1.333,-143.97282,306.91345,643.48364,-81.64124,307.71091,566.39374,-17.69581,240.86674,611.38617
162,1.342,-144.09261,306.97794,643.25226,-81.64124,307.71091,566.39374,-17.69581,240.86674,611.38617
163,1.35,-143.67937,307.25699,643.47382,-81.17444,307.38092,566.13446,-17.69581,240.86674,611.38617
164,1.358,-143.60912,307.37112,643.54041,-81.51066,307.74454,566.28668,-17.71034,242.30473,611.50989
165,1.367,-143.93394,307.57855,643.49585,-81.57563,307.74719,566.20184,-17.60478,242.17792,611.35431
166,1.375,-143.83141,307.50708,643.40247,-81.65849,307.69101,566.27545,-17.1514,242.51733,611.38538
167,1.383,-143.83141,307.50708,643.40247,-81.51066,307.74454,566.28668,-17.45474,242.66656,611.76013
168,1.392,-143.60133,307.19128,643.58929,-81.51066,307.74454,566.28668,-17.45474,242.66656,611.76013
169,1.4,-143.91191,307.82556,643.61011,-81.9002,308.51709,566.75653,-17.25694,242.64415,611.54095
170,1.408,-143.93394,307.57855,643.49585,-81.76965,308.55069,566.64954,-17.71034,242.30473,611.50989
171,1.417,-143.76711,307.79477,643.59741,-81.64124,307.71091,566.39374,-17.25694,242.64415,611.54095
172,1.425,-144.38411,307.34314,643.73151,-81.9002,308.51709,566.75653,-17.71034,242.30473,611.50989
173,1.433,-144.1813,307.68082,643.60199,-81.64124,307.71091,566.39374,-17.71034,242.30473,611.50989
174,1.442,-143.76711,307.79477,643.59741,-81.64124,307.71091,566.39374,-17.71034,242.30473,611.50989
175,1.45,-143.76711,307.79477,643.59741,-81.64124,307.71091,566.39374,-17.90818,242.32713,611.72913
176,1.458,-143.76711,307.79477,643.59741,-81.64124,307.71091,566.39374,-17.90818,242.32713,611.72913
177,1.467,-144.09703,307.35211,643.52045,-81.64124,307.71091,566.39374,-17.71034,242.30473,611.50989
178,1.475,-144.29982,307.01443,643.65002,-81.64124,307.71091,566.39374,-17.90818,242.32713,611.72913
179,1.483,-143.93394,307.57855,643.49585,-81.64124,307.71091,566.39374,-17.71034,242.30473,611.50989
180,1.492,-143.91806,307.56036,643.68475,-81.64124,307.71091,566.39374,-17.45474,242.66656,611.76013
181,1.5,-143.76711,307.79477,643.59741,-81.64124,307.71091,566.39374,-17.90818,242.32713,611.72913
182,1.508,-143.76711,307.79477,643.59741,-81.64124,307.71091,566.39374,-17.90818,242.32713,611.72913
183,1.517,-143.76711,307.79477,643.59741,-81.9002,308.51709,566.75653,-17.71034,242.30473,611.50989
184,1.525,-143.83141,307.50708,643.40247,-81.9002,308.51709,566.75653,-17.71034,242.30473,611.50989
185,1.533,-143.83141,307.50708,643.40247,-81.64656,308.47031,566.46039,-17.45474,242.66656,611.76013
186,1.542,-143.93394,307.57855,643.49585,-81.76965,308.55069,566.64954,-18.04144,242.45537,611.63477
187,1.55,-144.09703,307.35211,643.52045,-81.76965,308.55069,566.64954,-17.45474,242.66656,611.76013
188,1.558,-143.5336,307.47842,643.78314,-81.64124,307.71091,566.39374,-17.45474,242.66656,611.76013
189,1.567,-143.5414,307.86758,643.61035,-81.76965,308.55069,566.64954,-17.45474,242.66656,611.76013
190,1.575,-143.66457,307.72327,643.50403,-81.76965,308.55069,566.64954,-17.45474,242.66656,611.76013
191,1.583,-143.83141,307.50708,643.40247,-81.76965,308.55069,566.64954,-17.25694,242.64415,611.54095
192,1.592,-143.96222,307.095,643.26703,-81.51066,307.74454,566.28668,-18.04144,242.45537,611.63477
193,1.6,-143.79913,307.32144,643.24243,-81.51066,307.74454,566.28668,-17.58797,242.7948,611.66583
194,1.608,-143.83141,307.50708,643.40247,-81.51066,307.74454,566.28668,-18.04144,242.45537,611.63477
195,1.617,-143.79913,307.32144,643.24243,-81.51066,307.74454,566.28668,-17.90818,242.32713,611.72913
196,1.625,-143.96222,307.095,643.26703,-81.17444,307.38092,566.13446,-17.60478,242.17792,611.35431
197,1.633,-143.79913,307.32144,643.24243,-81.17444,307.38092,566.13446,-17.81532,242.08069,611.1734
198,1.642,-143.96222,307.095,643.26703,-81.17444,307.38092,566.13446,-17.89372,240.88922,611.60553
199,1.65,-143.96222,307.095,643.26703,-81.34827,307.52579,566.54535,-17.44038,241.2287,611.6366
