Frame#,Time,R.Forearm.x,R.Forearm.y,R.Forearm.z,R.Ulna.x,R.Ulna.y,R.Ulna.z,R.Radius.x,R.Radius.y,R.Radius.z
1,0,82.20803,-66.01972,1005.44836,188.43137,-80.54797,1004.48309,223.23001,18.15415,983.34662
2,0.008,82.64953,-64.78503,1005.53912,188.6418,-80.25346,1004.25525,223.39452,19.00377,983.34406
3,0.017,82.64953,-64.78503,1005.53912,188.75908,-80.32262,1004.29828,223.71834,18.96441,983.14557
4,0.025,82.73541,-64.56654,1005.38153,188.60045,-80.12832,1003.94702,223.63771,19.23654,982.98779
5,0.033,82.86224,-64.63439,1005.21259,188.65875,-80.01859,1003.29712,224.00621,19.12026,982.84064
6,0.042,83.40117,-62.34404,1005.2381,188.65875,-80.01859,1003.29712,224.40446,19.10174,981.51013
7,0.05,83.51438,-62.50954,1005.29321,188.53191,-79.77776,1002.62598,224.09778,19.27362,980.69586
8,0.058,83.40117,-62.34404,1005.2381,188.5461,-79.78798,1002.62573,224.6012,18.89691,979.7359
9,0.067,83.67238,-62.20219,1005.09961,189.19188,-79.43047,1002.02173,224.6012,18.89691,979.7359
10,0.075,83.51954,-62.11966,1004.9483,189.43227,-79.42756,1001.65515,224.74728,18.93078,979.60547
11,0.083,83.46093,-62.00215,1004.85718,188.26105,-78.96543,1000.7926,225.49129,18.4678,979.46527
12,0.092,83.3432,-62.16391,1004.64783,188.44962,-78.5239,1000.56244,225.31638,19.53704,979.06171
13,0.1,83.36976,-61.6442,1004.09839,188.48555,-78.43541,1000.39386,225.4075,19.36174,978.62079
14,0.108,82.64162,-62.98242,1002.9057,188.32739,-78.24823,1000.42383,224.63081,19.29295,978.24268
15,0.117,82.96445,-63.18779,1003.2782,188.4456,-77.91099,1000.34918,224.65126,19.11502,977.85944
16,0.125,83.61844,-61.81178,1003.1908,188.61841,-78.25388,1000.4704,224.08446,19.566,977.88416
17,0.133,83.70325,-61.69736,1003.07947,188.63713,-77.9551,1000.41638,224.69391,21.79695,977.57935
18,0.142,83.76752,-61.6364,1002.55664,188.90569,-77.9227,1000.22443,224.86363,22.4961,977.448
19,0.15,83.76752,-61.6364,1002.55664,188.9873,-77.81564,1000.15985,225.1815,23.08734,976.74365
20,0.158,84.04145,-62.14895,1002.78156,189.18365,-77.75925,999.93768,225.33951,22.83414,976.04059
21,0.167,84.328,-61.97112,1002.63184,189.52641,-77.4777,999.57654,225.05475,23.51442,976.49683
22,0.175,84.28461,-61.97972,1002.75739,189.52641,-77.4777,999.57654,225.9865,22.60625,976.14227
23,0.183,84.328,-61.97112,1002.63184,189.41325,-77.38605,999.38495,225.9865,22.60625,976.14227
24,0.192,84.4104,-61.79529,1002.1712,189.80159,-77.43516,999.39716,226.22855,23.13177,976.3205
25,0.2,84.82883,-61.90438,1002.08008,189.93974,-76.674,999.27924,226.68338,22.72316,976.211
26,0.208,85.07863,-61.94941,1002.29108,190.05293,-76.76567,999.47089,226.68338,22.72316,976.211
27,0.217,84.71775,-61.23839,1002.23248,189.97852,-76.55424,999.35522,226.68338,22.72316,976.211
28,0.225,84.77469,-61.71091,1001.93842,190.17044,-76.45327,999.40576,226.22855,23.13177,976.3205
29,0.233,84.81783,-61.41931,1002.13123,190.17044,-76.45327,999.40576,226.07436,23.76234,977.26862
30,0.242,85.12655,-61.53717,1002.17157,190.17044,-76.45327,999.40576,226.07436,23.76234,977.26862
31,0.25,85.14301,-61.12455,1002.14276,190.17044,-76.45327,999.40576,226.55127,23.26332,977.02368
32,0.258,85.14301,-61.12455,1002.14276,190.17044,-76.45327,999.40576,226.61739,22.9929,976.61731
33,0.267,85.05204,-60.93941,1002.15741,190.17044,-76.45327,999.40576,226.61739,22.9929,976.61731
34,0.275,85.11687,-60.99854,1002.2182,190.702,-76.03142,999.64557,226.55127,23.26332,977.02368
35,0.283,85.05204,-60.93941,1002.15741,190.66977,-75.84819,999.74969,226.55127,23.26332,977.02368
36,0.292,85.02458,-61.20839,1002.7077,190.66977,-75.84819,999.74969,226.55127,23.26332,977.02368
37,0.3,85.12035,-60.87578,1002.742,190.78627,-75.68904,999.94397,226.55127,23.26332,977.02368
38,0.308,85.13258,-60.94012,1003.06647,190.96582,-75.66027,999.87451,226.17145,23.72796,977.34283
39,0.317,85.19395,-60.65234,1003.15625,191.34373,-75.36996,1000.15833,226.55127,23.26332,977.02368
40,0.325,85.07763,-60.56682,1003.29059,191.22758,-75.52912,999.96399,226.17145,23.72796,977.34283
41,0.333,85.37016,-60.00026,1003.48694,192.00572,-74.62103,1000.28381,226.17145,23.72796,977.34283
42,0.342,85.75822,-59.31015,1003.76678,192.00572,-74.62103,1000.28381,226.17145,23.72796,977.34283
43,0.35,84.98538,-58.35443,1003.85278,192.00572,-74.62103,1000.28381,226.17145,23.72796,977.34283
44,0.358,85.83464,-59.2705,1003.53088,192.00572,-74.62103,1000.28381,226.17145,23.72796,977.34283
45,0.367,85.90534,-59.24788,1003.68567,192.13524,-74.50187,1000.37451,225.70854,24.2223,977.59827
46,0.375,85.76728,-59.10985,1003.9093,192.30678,-74.32412,1000.76105,225.70854,24.2223,977.59827
47,0.383,85.91439,-59.04758,1003.82819,192.25452,-74.22504,1000.81958,225.92036,23.92276,977.68414
48,0.392,85.91439,-59.04758,1003.82819,192.50078,-74.28027,1000.96161,226.1107,23.62185,977.7865
49,0.4,85.76728,-59.10985,1003.9093,192.54434,-74.00051,1001.21338,226.07005,23.48235,977.92529
50,0.408,85.591,-59.03801,1004.08698,192.81554,-74.19992,1001.85083,226.12041,24.23935,978.25647
51,0.417,85.591,-59.03801,1004.08698,192.28589,-73.86738,1002.51154,226.53366,24.33948,979.23206
52,0.425,85.91055,-57.8394,1004.81,191.78618,-73.96378,1002.72583,227.01967,24.63464,979.86121
53,0.433,86.39655,-57.89684,1005.25293,191.78618,-73.96378,1002.72583,227.18561,25.59597,979.91687
54,0.442,86.29021,-58.11417,1005.48572,191.71498,-73.94192,1003.23236,227.14252,25.89568,980.85706
55,0.45,86.35715,-57.66685,1005.83459,192.91391,-73.17439,1004.3587,227.19846,25.82391,981.54449
56,0.458,86.23908,-57.61991,1005.93042,192.85698,-72.62333,1004.61072,227.01315,26.42813,982.07507
57,0.467,86.72865,-56.32357,1006.54962,192.85768,-72.63663,1005.25787,227.01315,26.42813,982.07507
58,0.475,86.72535,-56.4261,1006.68335,192.85768,-72.63663,1005.25787,227.25386,28.52319,982.62537
59,0.483,86.89407,-56.09657,1006.85187,193.03239,-71.89682,1005.44397,226.79161,29.0162,982.87946
60,0.492,86.89407,-56.09657,1006.85187,192.99176,-72.0851,1005.71515,226.79161,29.0162,982.87946
61,0.5,86.76338,-56.03405,1006.82922,192.85182,-72.02412,1005.82733,226.79161,29.0162,982.87946
62,0.508,86.92928,-55.90019,1006.99036,192.99342,-71.57804,1005.88385,226.79161,29.0162,982.87946
63,0.517,86.73891,-55.90369,1007.08234,192.99342,-71.57804,1005.88385,227.17691,28.83896,983.09802
64,0.525,86.73171,-55.60733,1007.27124,192.99342,-71.57804,1005.88385,227.17691,28.83896,983.09802
65,0.533,86.92326,-55.47184,1007.57465,193.01721,-71.50299,1005.98694,227.53517,29.44629,983.40271
66,0.542,86.85751,-55.65034,1008.02411,193.01721,-71.50299,1005.98694,227.53517,29.44629,983.40271
67,0.55,86.87447,-55.74606,1007.90186,193.10304,-71.03091,1005.62622,227.90331,29.02791,983.15265
68,0.558,86.57532,-55.0322,1007.83203,193.42763,-70.88004,1005.48779,228.58357,28.71814,983.26367
69,0.567,86.62821,-55.07701,1007.7984,193.57368,-71.37973,1005.70831,228.58357,28.71814,983.26367
70,0.575,86.99796,-54.98961,1007.89526,193.61671,-71.47545,1005.63782,229.30994,27.6773,983.25641
71,0.583,87.08913,-55.15835,1007.89404,193.77341,-71.91101,1005.47919,229.54128,27.44996,983.27277
72,0.592,87.08913,-55.15835,1007.89404,193.75775,-72.46136,1005.71478,229.54128,27.44996,983.27277
73,0.6,87.08913,-55.15835,1007.89404,193.86313,-72.98379,1005.62311,229.76028,27.31913,983.22156
74,0.608,87.20874,-55.31194,1007.94403,193.75996,-73.17504,1005.22864,229.76028,27.31913,983.22156
75,0.617,87.32459,-55.48347,1007.97534,193.93864,-73.35007,1005.1955,231.11679,26.2353,983.50677
76,0.625,87.79717,-56.09782,1008.07538,193.50467,-73.66054,1005.18054,231.38063,25.98183,983.52069
77,0.633,88.18653,-56.39846,1008.18445,193.50467,-73.66054,1005.18054,231.13939,25.45681,983.34296
78,0.642,88.18653,-56.39846,1008.18445,193.66452,-74.24842,1004.86993,231.13939,25.45681,983.34296
79,0.65,88.51427,-56.76374,1007.92834,193.86565,-74.62037,1004.62689,231.13939,25.45681,983.34296
80,0.658,88.82044,-56.95269,1007.83002,193.9359,-74.97133,1004.51196,231.13939,25.45681,983.34296
81,0.667,88.91008,-57.38514,1007.91211,193.9359,-74.97133,1004.51196,231.603,24.96279,983.08856
82,0.675,89.0518,-57.39749,1008.12201,193.9359,-74.97133,1004.51196,231.89467,24.86013,983.31128
83,0.683,89.14738,-57.5666,1008.11145,194.37317,-75.87827,1005.05804,231.89467,24.86013,983.31128
84,0.692,88.99991,-57.86833,1008.19525,194.06224,-75.87455,1005.04095,232.08362,24.55942,983.41547
85,0.7,89.00663,-58.1741,1008.784,194.02232,-76.3667,1005.30737,232.08362,24.55942,983.41547
86,0.708,89.10628,-58.14024,1008.46423,193.70265,-75.86732,1005.71741,232.08362,24.55942,983.41547
87,0.717,89.04701,-58.2935,1008.88977,194.04146,-76.44947,1005.51379,232.08362,24.55942,983.41547
88,0.725,89.00663,-58.1741,1008.784,194.2803,-76.60542,1005.80035,231.75714,24.15468,984.00861
89,0.733,89.04701,-58.2935,1008.88977,194.12184,-76.4846,1005.78656,231.71681,24.01529,984.14752
90,0.742,88.92633,-58.32647,1008.94977,193.9718,-76.41718,1005.69556,231.71681,24.01529,984.14752
91,0.75,88.64312,-58.36432,1009.04749,194.12184,-76.4846,1005.78656,231.71681,24.01529,984.14752
92,0.758,88.75464,-58.15924,1008.96271,194.08708,-76.34454,1005.94958,231.56042,22.51467,984.3728
93,0.767,88.30557,-58.23166,1009.48132,193.9315,-76.33578,1006.16034,231.48997,21.93589,984.42548
94,0.775,88.25864,-59.01001,1009.25598,193.78452,-76.50046,1006.21753,231.37689,20.88874,984.27875
95,0.783,88.3318,-59.00105,1009.05347,193.63159,-76.60195,1006.6463,231.4537,21.76467,984.58691
96,0.792,88.0601,-59.02106,1009.13593,193.64302,-76.49435,1006.48364,231.38312,21.18605,984.63971
97,0.8,87.38084,-59.17256,1008.67236,193.78452,-76.50046,1006.21753,231.14511,19.08292,984.08942
98,0.808,87.13213,-59.73996,1008.68188,193.63959,-76.70715,1007.02759,230.91478,19.35864,984.03442
99,0.817,86.65635,-59.5479,1009.19312,193.53844,-76.62707,1006.87982,230.91478,19.35864,984.03442
100,0.825,87.13213,-59.73996,1008.68188,193.53844,-76.62707,1006.87982,230.91478,19.35864,984.03442
101,0.833,86.87612,-59.73672,1008.52869,193.38994,-76.87339,1006.68353,230.91478,19.35864,984.03442
102,0.842,86.87612,-59.73672,1008.52869,193.23991,-76.80601,1006.59259,230.52794,19.53668,983.81519
103,0.85,86.87612,-59.73672,1008.52869,193.38994,-76.87339,1006.68353,230.91478,19.35864,984.03442
104,0.858,86.87612,-59.73672,1008.52869,193.38994,-76.87339,1006.68353,230.52794,19.53668,983.81519
105,0.867,86.87612,-59.73672,1008.52869,193.37843,-76.98084,1006.84625,230.52794,19.53668,983.81519
106,0.875,86.87612,-59.73672,1008.52869,193.38994,-76.87339,1006.68353,230.52794,19.53668,983.81519
107,0.883,86.87612,-59.73672,1008.52869,192.95529,-77.18332,1006.66882,231.14511,19.08292,984.08942
108,0.892,86.87612,-59.73672,1008.52869,193.23991,-76.80601,1006.59259,230.67336,18.83319,983.85693
109,0.9,86.87612,-59.73672,1008.52869,192.9438,-77.29079,1006.83154,231.14511,19.08292,984.08942
110,0.908,87.20044,-59.51115,1008.83929,192.9438,-77.29079,1006.83154,231.14511,19.08292,984.08942
111,0.917,87.13213,-59.73996,1008.68188,192.9438,-77.29079,1006.83154,231.14511,19.08292,984.08942
112,0.925,87.32452,-59.89224,1009.0672,193.25192,-77.96356,1006.87103,230.9037,18.55741,983.91199
113,0.933,87.10219,-59.84441,1009.91699,193.41896,-77.91409,1007.297,230.9037,18.55741,983.91199
114,0.942,87.52505,-60.01679,1009.39545,193.36024,-78.07135,1007.24469,231.38219,18.59309,984.46661
115,0.95,87.46819,-60.13015,1009.50134,193.17282,-78.25742,1007.20349,231.21864,18.1228,984.37415
116,0.958,87.43298,-60.5546,1009.55774,193.36024,-78.07135,1007.24469,231.21864,18.1228,984.37415
117,0.967,87.83438,-60.80083,1009.80145,193.35287,-78.89538,1007.51697,231.80067,16.09748,984.60236
118,0.975,87.83438,-60.80083,1009.80145,193.58743,-79.20055,1007.39178,231.80067,16.09748,984.60236
119,0.983,87.83438,-60.80083,1009.80145,193.82579,-79.49751,1007.349,231.80067,16.09748,984.60236
120,0.992,87.83438,-60.80083,1009.80145,193.83955,-79.63394,1007.19342,231.5881,16.1583,984.12238
121,1,87.66882,-61.24395,1010.15289,193.61757,-79.91936,1007.3504,231.5881,16.1583,984.12238
122,1.008,87.76617,-61.02951,1009.64417,193.61757,-79.91936,1007.3504,231.5881,16.1583,984.12238
123,1.017,87.76617,-61.02951,1009.64417,193.61757,-79.91936,1007.3504,231.92778,15.90722,983.89624
124,1.025,87.76617,-61.02951,1009.64417,193.61757,-79.91936,1007.3504,231.92778,15.90722,983.89624
125,1.033,87.62887,-61.36225,1009.63055,193.61757,-79.91936,1007.3504,231.80373,16.79679,984.11493
126,1.042,87.62887,-61.36225,1009.63055,193.61757,-79.91936,1007.3504,232.06854,16.73978,984.29822
127,1.05,87.82401,-60.90854,1009.45789,193.96077,-80.13204,1007.23627,231.80373,16.79679,984.11493
128,1.058,87.82401,-60.90854,1009.45789,193.83835,-80.08811,1007.38086,231.80373,16.79679,984.11493
129,1.067,87.82401,-60.90854,1009.45789,193.7281,-80.13847,1007.50385,231.80373,16.79679,984.11493
130,1.075,87.82401,-60.90854,1009.45789,193.61264,-80.0005,1007.22321,231.80373,16.79679,984.11493
131,1.083,87.81857,-61.04733,1009.37445,193.97032,-80.90588,1007.06256,232.06854,16.73978,984.29822
132,1.092,87.57758,-61.66552,1009.09283,193.80898,-81.63576,1007.07843,231.80373,16.79679,984.11493
133,1.1,87.57758,-61.66552,1009.09283,194.12247,-82.0555,1007.24829,231.63515,17.27198,983.98425
134,1.108,87.67245,-61.99421,1008.38452,194.22084,-82.12931,1006.87225,231.80373,16.79679,984.11493
135,1.117,87.57322,-62.23751,1008.16449,194.22084,-82.12931,1006.87225,231.63515,17.27198,983.98425
136,1.125,87.63196,-62.12654,1008.06561,194.12302,-82.28786,1006.63574,231.63515,17.27198,983.98425
137,1.133,87.63196,-62.12654,1008.06561,194.29716,-82.44815,1006.66583,231.78894,17.13324,983.47473
138,1.142,87.63196,-62.12654,1008.06561,193.92529,-82.26383,1006.49847,231.81557,16.69854,983.28528
139,1.15,87.63196,-62.12654,1008.06561,193.91701,-82.25298,1006.26178,231.81557,16.69854,983.28528
140,1.158,87.59306,-62.32124,1007.91919,194.09328,-82.37481,1006.30524,231.81557,16.69854,983.28528
141,1.167,87.63196,-62.12654,1008.06561,194.34506,-82.66297,1006.43964,232.07335,16.58308,983.24115
142,1.175,87.59306,-62.32124,1007.91919,194.55078,-82.76506,1006.29407,232.07335,16.58308,983.24115
143,1.183,87.59306,-62.32124,1007.91919,194.55078,-82.76506,1006.29407,232.07335,16.58308,983.24115
144,1.192,87.63196,-62.12654,1008.06561,194.44624,-82.61125,1006.14752,232.07335,16.58308,983.24115
145,1.2,87.63196,-62.12654,1008.06561,194.55078,-82.76506,1006.29407,232.07335,16.58308,983.24115
146,1.208,87.63196,-62.12654,1008.06561,194.33524,-82.67864,1005.48877,232.33965,15.65258,983.34229
147,1.217,87.59306,-62.32124,1007.91919,194.3857,-82.89497,1005.09296,232.07335,16.58308,983.24115
148,1.225,87.59306,-62.32124,1007.91919,193.75865,-83.47332,1004.92084,232.07335,16.58308,983.24115
149,1.233,87.6658,-62.30103,1007.77686,193.65224,-83.24149,1004.79681,232.33965,15.65258,983.34229
150,1.242,87.6658,-62.30103,1007.77686,193.37709,-83.09283,1004.97485,232.07335,16.58308,983.24115
151,1.25,87.92074,-62.18345,1007.06427,193.37709,-83.09283,1004.97485,232.07335,16.58308,983.24115
152,1.258,87.88536,-61.85073,1006.78839,193.42107,-83.21048,1004.57831,231.81924,16.61267,982.99939
153,1.267,88.04588,-62.1044,1006.59937,193.42107,-83.21048,1004.57831,231.72484,16.14779,982.73041
154,1.275,88.00855,-61.91492,1006.45258,193.22556,-83.28229,1004.2063,231.78888,15.98225,982.37939
155,1.283,87.75506,-62.12425,1006.09088,193.4084,-83.16068,1004.40649,231.86682,15.60666,981.401
156,1.292,87.70058,-62.54053,1006.13708,193.22556,-83.28229,1004.2063,231.64511,15.84584,981.29425
157,1.3,87.86746,-63.17828,1006.20117,193.22556,-83.28229,1004.2063,231.64511,15.84584,981.29425
158,1.308,87.94824,-62.94009,1006.35522,193.22093,-83.43598,1004.10168,231.94283,15.69315,981.26318
159,1.317,87.94824,-62.94009,1006.35522,193.17857,-83.46495,1003.63538,231.99541,15.56802,981.0094
160,1.325,87.86746,-63.17828,1006.20117,193.17169,-83.35051,1003.45874,232.26176,14.6371,981.10992
161,1.333,87.86746,-63.17828,1006.20117,193.49083,-83.89976,1003.35565,231.90224,15.38036,980.67456
162,1.342,88.17921,-63.17665,1006.21533,193.62001,-84.1468,1003.49121,231.90224,15.38036,980.67456
163,1.35,88.2351,-63.04328,1006.09637,193.69072,-83.9786,1003.23724,232.34673,14.54412,980.59869
164,1.358,88.2351,-63.04328,1006.09637,193.69072,-83.9786,1003.23724,232.77292,14.24958,980.36603
165,1.367,87.93149,-62.77713,1005.99725,193.69072,-83.9786,1003.23724,232.53264,13.65802,980.34631
166,1.375,88.0295,-62.91226,1005.93896,193.50404,-84.16495,1003.19604,232.53264,13.65802,980.34631
167,1.383,88.08935,-62.82509,1005.88324,193.51942,-84.25409,1003.08325,232.89754,12.9356,980.20294
168,1.392,88.03913,-63.28031,1005.47339,193.40143,-84.04012,1002.78918,232.89754,12.9356,980.20294
169,1.4,87.20829,-65.4622,1005.49066,193.74448,-84.11005,1002.74329,233.01538,12.94934,979.68237
170,1.408,87.618,-66.02574,1005.8327,193.51942,-84.25409,1003.08325,232.9962,12.82944,979.81848
171,1.417,87.64048,-66.43224,1005.88947,193.96887,-84.55581,1003.16138,233.01538,12.94934,979.68237
172,1.425,87.66425,-66.52567,1005.59015,193.96887,-84.55581,1003.16138,233.25348,12.87554,979.60754
173,1.433,87.75787,-66.45445,1005.75793,193.92355,-84.74732,1003.03064,233.25348,12.87554,979.60754
174,1.442,87.8919,-66.5033,1005.81244,194.06822,-85.07699,1002.94464,233.7724,12.61081,979.57031
175,1.45,87.93119,-66.36562,1005.70441,194.06822,-85.07699,1002.94464,233.7724,12.61081,979.57031
176,1.458,87.8919,-66.5033,1005.81244,194.06822,-85.07699,1002.94464,233.48473,11.78711,979.41577
177,1.467,87.99351,-66.6386,1005.86169,194.44885,-85.83324,1002.9989,233.58089,11.05447,979.45129
178,1.475,88.25187,-66.71851,1005.9538,194.44885,-85.83324,1002.9989,234.10083,10.67305,979.534
179,1.483,88.40703,-67.14323,1005.94525,194.46799,-86.43195,1003.15961,234.19557,11.13769,979.80365
180,1.492,88.5561,-67.18258,1005.99371,194.46799,-86.43195,1003.15961,234.45444,10.94247,979.84082
181,1.5,88.5561,-67.18258,1005.99371,194.58728,-86.68206,1003.13428,234.35973,10.47777,979.57111
182,1.508,88.7594,-67.134,1005.97656,194.58728,-86.68206,1003.13428,234.61914,10.19772,979.6958
183,1.517,88.36118,-67.30379,1006.07129,194.55855,-86.58555,1003.40308,234.61914,10.19772,979.6958
184,1.525,88.53677,-67.70141,1006.50433,194.52797,-86.76833,1003.28674,234.71382,10.6625,979.96545
185,1.533,88.71808,-67.67104,1006.49963,194.52797,-86.76833,1003.28674,234.71382,10.6625,979.96545
186,1.542,88.53677,-67.70141,1006.50433,194.52797,-86.76833,1003.28674,234.78827,9.72108,979.82599
187,1.55,88.35299,-67.82655,1006.58649,194.52797,-86.76833,1003.28674,234.78827,9.72108,979.82599
188,1.558,88.53677,-67.70141,1006.50433,194.52797,-86.76833,1003.28674,234.81218,9.82062,980.22186
189,1.567,88.53408,-67.80499,1006.58875,194.52797,-86.76833,1003.28674,234.76065,10.15962,980.74146
190,1.575,88.71808,-67.67104,1006.49963,194.52797,-86.76833,1003.28674,234.76065,10.15962,980.74146
191,1.583,88.53408,-67.80499,1006.58875,194.52797,-86.76833,1003.28674,234.76065,10.15962,980.74146
192,1.592,88.91815,-67.59423,1006.71021,194.52797,-86.76833,1003.28674,234.95982,9.99534,980.78497
193,1.6,88.67027,-68.25005,1006.75092,194.52797,-86.76833,1003.28674,234.95982,9.99534,980.78497
194,1.608,88.79133,-68.11414,1006.71301,194.79132,-86.85767,1003.30396,234.95982,9.99534,980.78497
195,1.617,88.87947,-68.17307,1006.95422,194.86002,-86.94418,1003.40149,235.0202,9.84828,980.8988
196,1.625,88.87947,-68.17307,1006.95422,194.86002,-86.94418,1003.40149,235.42651,9.35665,981.36432
197,1.633,89.06342,-68.0392,1006.86505,194.35072,-87.07604,1003.48071,235.42651,9.35665,981.36432
198,1.642,89.19019,-67.51931,1006.86224,194.42355,-87.25354,1003.38708,235.05208,9.02065,981.43762
199,1.65,89.06342,-68.0392,1006.86505,194.42355,-87.25354,1003.38708,235.42651,9.35665,981.36432
200,1.658,88.87947,-68.17307,1006.95422,194.42355,-87.25354,1003.38708,235.24808,9.3612,981.47296
201,1.667,88.87947,-68.17307,1006.95422,194.42355,-87.25354,1003.38708,235.05208,9.02065,981.43762
202,1.675,88.87947,-68.17307,1006.95422,194.42355,-87.25354,1003.38708,234.89931,8.99764,981.55859
