Frame#,Time,R.Forearm.x,R.Forearm.y,R.Forearm.z,R.Ulna.x,R.Ulna.y,R.Ulna.z,R.Radius.x,R.Radius.y,R.Radius.z
1,0,-42.0207,-217.35829,661.42572,-10.96414,-205.1595,580.77252,36.80947,-111.19342,609.34009
2,0.008,-42.11736,-216.35881,662.4549,-10.5274,-205.67421,581.44348,35.71753,-110.97108,608.93799
3,0.017,-42.4799,-215.85669,662.45166,-10.57772,-206.40656,581.85229,35.37592,-109.56251,606.9267
4,0.025,-42.54744,-216.03809,662.96393,-10.47321,-206.29968,582.13544,35.07175,-109.29034,606.87079
5,0.033,-42.77907,-215.53673,663.26239,-10.19629,-206.33018,582.02197,35.045,-112.03207,608.8736
6,0.042,-42.77907,-215.53673,663.26239,-10.19219,-206.36334,582.63354,34.80643,-110.72591,608.82526
7,0.05,-42.65505,-216.03609,663.14789,-9.72365,-206.1183,583.16229,33.59671,-110.04926,608.8645
8,0.058,-42.59547,-215.35126,663.09412,-9.76822,-205.35451,583.37585,33.59671,-110.04926,608.8645
9,0.067,-42.36597,-215.23424,663.24463,-9.64052,-205.24792,583.53693,33.47824,-109.87856,609.04938
10,0.075,-42.13474,-214.41591,663.31384,-9.38566,-204.7178,583.5799,32.48283,-109.33208,609.56067
11,0.083,-42.10448,-213.72121,663.63116,-9.43364,-203.54919,583.00439,33.0834,-108.69205,609.86322
12,0.092,-41.66644,-212.93532,663.76465,-9.2385,-203.18761,582.81189,33.30419,-108.7264,609.75195
13,0.1,-41.00335,-212.29089,663.49689,-9.38194,-202.56256,582.5022,33.92405,-108.90594,610.01453
14,0.108,-40.568,-212.37959,663.23853,-9.14935,-201.45885,581.71088,35.28486,-109.27727,610.08905
15,0.117,-40.43312,-212.59276,663.10138,-9.41897,-201.32869,581.28088,35.93283,-107.52631,610.45807
16,0.125,-39.52556,-212.90332,663.17358,-9.37801,-201.16333,581.18842,36.99728,-108.93571,611.16376
17,0.133,-39.08899,-214.08946,662.36121,-9.10521,-201.36394,580.77557,37.47122,-109.2941,611.65607
18,0.142,-39.1245,-214.21933,661.82471,-8.95848,-201.03496,580.47119,37.70617,-108.00463,611.74347
19,0.15,-38.89512,-214.42282,661.59973,-8.95848,-201.03496,580.47119,38.36427,-108.07342,612.31116
20,0.158,-38.89512,-214.42282,661.59973,-8.5562,-201.58702,580.05884,39.34638,-109.82473,612.55646
21,0.167,-38.89512,-214.42282,661.59973,-8.5562,-201.58702,580.05884,38.91962,-108.24804,611.86627
22,0.175,-38.91134,-214.56969,661.71436,-8.73235,-201.99144,580.10773,37.90242,-110.56461,610.716
23,0.183,-38.87355,-213.91838,662.01904,-8.22447,-202.46925,580.46948,37.87558,-110.3471,610.33575
24,0.192,-38.87355,-213.91838,662.01904,-8.04519,-202.80373,580.73926,37.14582,-108.04823,607.16052
25,0.2,-38.87355,-213.91838,662.01904,-7.72649,-203.61963,581.36066,36.8704,-109.17944,607.35669
26,0.208,-39.22073,-213.80347,662.88916,-8.17138,-204.15175,582.37531,36.47858,-108.93842,607.04004
27,0.217,-39.57195,-213.71616,663.10596,-8.22589,-204.64395,583.26367,36.32837,-110.63719,608.8028
28,0.225,-39.5773,-213.01555,663.50861,-8.22589,-204.64395,583.26367,35.75207,-109.26167,606.61981
29,0.233,-40.25599,-212.99765,663.67792,-7.97071,-204.30186,583.88678,34.9235,-109.23956,607.69666
30,0.242,-41.21611,-213.24382,663.47113,-8.02425,-204.26498,584.01581,34.6605,-107.93822,606.53162
31,0.25,-41.52084,-213.32019,663.55945,-8.02378,-204.25327,584.52643,34.52047,-108.00523,606.61975
32,0.258,-41.49995,-213.17523,663.63312,-7.97808,-204.1414,584.815,34.47845,-109.52312,608.37585
33,0.267,-41.49995,-213.17523,663.63312,-7.97808,-204.1414,584.815,33.56813,-109.31804,609.38452
34,0.275,-41.73346,-212.87561,663.93213,-7.82313,-203.43355,585.03912,33.43801,-108.19014,609.57001
35,0.283,-41.73346,-212.87561,663.93213,-7.61349,-202.71703,584.96497,33.12761,-107.61889,609.57935
36,0.292,-41.73346,-212.87561,663.93213,-7.93261,-202.66968,585.02863,32.44057,-106.47406,609.2879
37,0.3,-41.79041,-212.10022,663.92249,-7.97053,-202.46465,585.14154,33.02824,-104.96439,608.65363
38,0.308,-41.60835,-211.41344,664.15289,-8.68854,-202.11671,584.42981,32.88832,-105.03135,608.7417
39,0.317,-41.40044,-211.36615,663.95099,-9.08502,-201.10556,583.33441,32.74251,-106.72138,610.32281
40,0.325,-41.17737,-212.04204,663.93335,-9.76971,-200.89467,582.91718,33.14717,-107.32681,610.4259
41,0.333,-41.06106,-212.06328,663.86041,-9.88288,-201.37192,582.23236,34.21358,-108.60323,611.16547
42,0.342,-41.03251,-213.14774,663.30243,-10.01155,-201.27977,581.67981,34.23293,-108.96214,611.60974
43,0.35,-40.91194,-214.32899,662.7735,-10.07249,-201.69991,581.45111,34.72894,-108.08042,611.12506
44,0.358,-40.90397,-214.33537,662.20215,-10.40597,-201.61668,580.95459,35.49109,-108.78036,610.81097
45,0.367,-41.4265,-215.54306,661.76355,-11.14031,-202.32399,580.35144,35.75666,-109.63829,611.27856
46,0.375,-41.37456,-216.20834,661.53436,-11.89135,-203.60397,580.19043,35.82671,-110.81374,611.34668
47,0.383,-41.39307,-215.38512,661.63428,-11.89135,-203.60397,580.19043,36.09661,-110.92659,611.07349
48,0.392,-41.98903,-216.3235,661.66779,-12.20993,-203.98701,580.08838,35.978,-111.45807,610.6803
49,0.4,-42.14157,-216.65416,661.6698,-12.22874,-204.14201,579.98004,36.41801,-111.64129,610.54022
50,0.408,-42.30597,-217.22099,661.76361,-12.48372,-204.76776,580.17688,35.88169,-112.1934,610.46039
51,0.417,-42.56428,-218.7635,661.17975,-12.05497,-205.30064,580.37616,34.95605,-111.42567,609.18652
52,0.425,-42.70691,-218.7252,661.29218,-12.05497,-205.30064,580.37616,34.62847,-111.48915,609.24402
53,0.433,-42.87665,-218.36044,661.52515,-11.68653,-206.39188,581.10785,34.94215,-113.92935,609.91949
54,0.442,-43.02728,-217.93275,661.78888,-11.0705,-207.07045,581.49109,34.72012,-114.58007,609.85699
55,0.45,-43.43241,-217.75066,661.58545,-10.80514,-207.18016,581.6297,34.39676,-114.7483,609.8623
56,0.458,-43.74884,-216.10597,662.54767,-10.80514,-207.18016,581.6297,34.00402,-114.53862,609.4649
57,0.467,-43.74018,-216.82384,662.74054,-10.85267,-206.92563,581.72363,33.0993,-112.7803,608.64673
58,0.475,-43.86488,-216.22752,662.95001,-11.0521,-206.91179,581.84924,33.0059,-112.8624,608.88544
59,0.483,-43.93689,-216.9995,662.56549,-11.0521,-206.91179,581.84924,32.83898,-112.68452,609.03406
60,0.492,-43.74845,-217.3472,662.93964,-11.2459,-206.53226,581.92706,31.95943,-112.72636,609.61188
61,0.5,-43.74845,-217.3472,662.93964,-11.2459,-206.53226,581.92706,31.90919,-112.17432,609.88702
62,0.508,-43.45586,-217.21741,663.08746,-11.31236,-206.3909,582.19409,31.95393,-111.51555,609.85889
63,0.517,-43.3125,-216.3546,663.3656,-11.22702,-206.37756,582.03546,32.28026,-111.36971,609.85638
64,0.525,-43.43708,-216.42886,663.43457,-11.37617,-205.63132,581.75244,32.28026,-111.36971,609.85638
65,0.533,-43.26303,-216.38446,663.5014,-11.8632,-205.42836,581.591,34.08438,-110.42881,609.86432
66,0.542,-43.08866,-216.1879,663.4248,-11.66737,-205.43851,581.44855,34.44221,-112.96092,610.78302
67,0.55,-42.60797,-216.50595,663.336,-11.4728,-204.94479,581.08954,34.81422,-112.81287,611.12708
68,0.558,-42.36061,-216.57707,663.22882,-11.79894,-204.9361,580.39636,36.07159,-113.26961,611.11902
69,0.567,-42.04628,-217.45305,662.79425,-11.79894,-204.9361,580.39636,35.89504,-111.58155,610.93365
70,0.575,-41.30724,-218.82603,661.69336,-12.22874,-204.14201,579.98004,36.2266,-112.83887,611.02252
71,0.583,-41.3164,-219.04985,661.44684,-12.22874,-204.14201,579.98004,36.49009,-114.08688,611.30182
72,0.592,-41.18061,-219.29971,661.39093,-11.87502,-204.21281,580.00909,36.64961,-115.06039,611.21582
73,0.6,-40.89699,-219.60875,661.38721,-11.4389,-204.26614,580.02582,36.431,-113.54168,610.60925
74,0.608,-40.81749,-219.31566,661.51257,-10.87454,-204.86711,580.46008,36.34184,-112.01008,610.26086
75,0.617,-40.75237,-218.99266,661.79858,-10.72683,-205.66028,581.56921,36.34065,-113.49597,610.37933
76,0.625,-40.44558,-217.77158,662.76086,-10.47321,-206.29968,582.13544,35.77513,-111.84682,609.41577
77,0.633,-40.91709,-216.65314,663.24469,-9.38293,-206.38914,583.06354,33.82527,-108.64013,607.74652
78,0.642,-41.49455,-216.15234,663.5097,-8.93274,-205.70671,583.51514,33.88188,-108.76856,606.08026
79,0.65,-42.15182,-215.56674,663.96912,-9.05625,-205.85921,584.349,33.04895,-109.88041,607.4292
80,0.658,-42.52371,-214.69264,664.43359,-8.7163,-206.25398,585.47833,32.62258,-109.6763,607.5603
81,0.667,-42.60857,-214.80472,664.61414,-8.63956,-206.40077,585.89514,32.62258,-109.6763,607.5603
82,0.675,-42.58809,-214.87958,665.6347,-8.84949,-205.96986,586.33246,33.37273,-108.9707,607.96564
83,0.683,-42.44313,-214.32216,666.02673,-8.46846,-205.33157,586.87231,31.37509,-106.1658,607.09857
84,0.692,-42.42138,-214.34764,666.37378,-8.06747,-204.83606,587.03357,30.88406,-105.86611,607.32574
85,0.7,-42.09456,-213.64388,666.71631,-8.03103,-203.51019,586.79376,31.24648,-105.74444,607.79102
86,0.708,-42.02607,-212.62253,666.83411,-8.03103,-203.51019,586.79376,30.61965,-107.22952,608.70001
87,0.717,-41.6892,-212.74031,667.02496,-7.66674,-202.33086,586.60913,31.2484,-106.77843,609.53418
88,0.725,-41.19552,-212.44656,666.92944,-7.66674,-202.33086,586.60913,31.28736,-106.52309,609.7688
89,0.733,-40.95259,-212.89842,666.8548,-7.51942,-202.27742,586.17303,32.932,-104.67966,608.99744
90,0.742,-39.82159,-213.13684,666.4798,-7.33144,-202.28418,586.02039,33.29371,-105.22897,609.52374
91,0.75,-39.1993,-212.68839,666.28192,-7.64345,-202.18002,585.49182,33.29057,-106.74138,610.90662
92,0.758,-38.99694,-213.74689,664.97809,-7.52328,-201.8499,584.98676,34.72635,-105.80314,612.53577
93,0.767,-38.72366,-213.61847,664.70245,-7.96233,-201.13966,583.66461,34.72635,-105.80314,612.53577
94,0.775,-38.49839,-214.20456,664.35291,-7.77657,-201.2569,583.31323,35.37259,-106.2292,612.59015
95,0.783,-37.96263,-214.56335,663.93176,-7.62533,-201.03166,583.25592,35.54314,-106.85699,613.01019
96,0.792,-38.00793,-214.69223,663.52692,-7.63823,-202.07233,583.23907,36.14636,-106.68095,612.07813
97,0.8,-37.88954,-214.73775,663.65857,-7.61648,-202.33434,583.83044,36.37474,-107.44695,611.4223
98,0.808,-38.21755,-214.29358,664.53015,-7.55641,-202.59851,584.42596,36.54073,-108.37555,610.66754
99,0.817,-38.2836,-214.18558,664.5202,-7.09597,-203.10538,585.0246,36.26326,-108.63127,610.49011
100,0.825,-38.50864,-213.33972,665.14197,-6.80727,-203.76563,585.40894,35.27206,-108.88383,609.45349
101,0.833,-38.70736,-213.12663,665.37848,-6.56435,-203.82466,585.48474,34.07544,-109.17499,608.64954
102,0.842,-39.20505,-213.06577,666.1875,-6.54531,-203.66998,585.59326,33.55842,-108.93798,607.49872
103,0.85,-39.50319,-213.02501,666.43164,-6.73087,-204.29349,586.02325,33.96682,-107.84162,606.81885
104,0.858,-40.10836,-213.08801,666.44165,-7.19782,-204.4684,586.4455,33.3777,-108.10143,606.59808
105,0.867,-40.48391,-213.58403,667.22687,-7.45919,-204.49969,586.76373,32.84883,-107.55044,607.6991
106,0.875,-41.04528,-213.5844,667.22339,-7.7776,-204.28493,586.95319,32.79865,-106.55114,607.78064
107,0.883,-41.63242,-213.5157,667.03448,-7.85422,-204.7662,587.2265,33.23278,-106.39262,608.14642
108,0.892,-41.75422,-213.47992,667.10901,-8.29134,-204.2558,587.28564,32.97963,-106.63689,608.66693
109,0.9,-41.75422,-213.47992,667.10901,-8.41807,-203.84743,587.19019,31.10883,-107.21185,609.19946
110,0.908,-41.75422,-213.47992,667.10901,-8.24436,-203.28822,586.99188,31.10883,-107.21185,609.19946
111,0.917,-41.63242,-213.5157,667.03448,-8.27019,-203.28618,586.8418,31.53989,-107.06069,609.3407
112,0.925,-41.57502,-213.64914,666.89325,-8.12335,-202.85127,586.8028,32.02608,-107.12779,609.44659
113,0.933,-40.89771,-212.92853,667.00989,-8.10581,-202.549,586.39111,32.18361,-107.48502,610.07721
114,0.942,-40.06086,-212.79564,666.60492,-8.6751,-202.37318,585.8562,32.62187,-108.71231,610.02026
115,0.95,-39.75488,-212.87505,666.2865,-9.01958,-202.63885,585.12054,34.02235,-108.96283,611.15271
116,0.958,-39.3849,-212.9926,665.71082,-9.47239,-202.39552,584.38934,34.01999,-108.47707,612.06763
117,0.967,-39.28846,-214.45551,664.85168,-10.64418,-202.57426,583.00787,34.91688,-107.41429,611.4538
118,0.975,-39.10208,-214.39827,664.67255,-10.57606,-202.68582,582.8678,35.88595,-108.4249,611.52863
119,0.983,-39.45268,-214.65488,664.31061,-10.5433,-203.04137,582.38257,35.95729,-109.06936,611.6806
120,0.992,-39.73082,-214.60202,664.31671,-10.46389,-203.24295,582.03955,35.78684,-109.74648,611.29657
121,1,-40.11256,-215.34509,663.8902,-10.56626,-203.27089,582.24567,35.78684,-109.74648,611.29657
122,1.008,-40.24773,-215.68991,664.16473,-10.65702,-204.66884,582.633,36.00486,-109.65377,611.21045
123,1.017,-40.42128,-216.14873,664.20178,-10.78181,-205.37204,583.04779,36.04134,-111.71709,610.64587
124,1.025,-40.63502,-216.47839,664.26489,-10.13795,-205.46838,583.60291,35.60361,-111.51616,610.44989
125,1.033,-41.00831,-216.36143,664.67645,-10.08236,-205.80917,584.05011,34.26518,-109.18267,607.73022
126,1.042,-41.33146,-216.29059,665.3595,-10.40606,-206.20944,584.95355,34.17664,-109.0647,607.02075
127,1.05,-41.57422,-215.74921,665.7699,-10.07555,-207.20811,585.60699,33.40405,-109.2749,606.82605
128,1.058,-41.44389,-215.76173,665.8584,-9.56335,-207.81113,586.1947,33.61871,-111.26702,606.40161
129,1.067,-42.53888,-215.50833,666.12482,-9.62738,-207.95589,586.45752,32.62364,-109.95427,607.82544
130,1.075,-42.38676,-215.16347,666.42242,-9.47627,-208.01076,586.64136,32.62571,-109.3216,607.06732
131,1.083,-42.38676,-215.16347,666.42242,-9.43085,-207.56851,586.84467,32.40776,-108.90482,607.46484
132,1.092,-42.27728,-214.931,666.58844,-9.43085,-207.56851,586.84467,32.40776,-108.90482,607.46484
133,1.1,-42.16373,-214.74115,666.50555,-9.06123,-206.60541,586.95898,31.99589,-109.53571,608.57098
134,1.108,-41.6801,-214.64629,666.76727,-8.94512,-205.05067,586.70135,32.23177,-109.09542,608.84552
135,1.117,-41.26835,-213.30247,667.23645,-8.60436,-204.71625,586.71362,32.16291,-108.79159,609.1225
136,1.125,-40.98678,-213.12286,667.39447,-8.38798,-204.19511,586.61664,32.45749,-108.54437,609.85858
137,1.133,-40.47659,-212.81955,667.03961,-8.11131,-203.55051,586.14349,32.55089,-108.40488,609.89868
138,1.142,-39.96105,-212.98157,666.80463,-7.93831,-203.53067,585.93481,32.99684,-108.49122,610.02972
139,1.15,-39.74083,-213.18637,666.54596,-7.8991,-203.01273,585.29413,33.54874,-109.08758,610.60907
140,1.158,-39.1993,-212.68839,666.28192,-7.86073,-202.78426,584.94897,34.28194,-109.74973,611.75238
141,1.167,-39.11894,-213.93248,664.922,-8.63273,-202.30016,584.19897,34.89849,-107.03922,611.55017
142,1.175,-38.98588,-214.13626,664.64276,-8.67172,-202.30077,583.03003,35.69799,-108.44984,612.0459
143,1.183,-38.96414,-213.88173,664.45044,-9.23891,-202.82626,582.56079,36.42987,-108.79459,612.39972
144,1.192,-38.69429,-214.89101,663.242,-9.17198,-202.24603,581.87219,36.91008,-109.3176,612.39587
145,1.2,-38.5683,-215.20114,663.20105,-9.44162,-202.98647,581.9812,36.71436,-109.20973,612.00482
146,1.208,-38.86806,-215.80341,663.22607,-9.71562,-203.11984,582.02161,36.3511,-109.95869,611.71252
147,1.217,-38.98727,-216.76634,663.15509,-9.0319,-204.26323,582.50616,36.77935,-110.24976,611.04602
148,1.225,-39.14889,-216.26349,663.25421,-8.69655,-204.69757,583.36371,36.61223,-112.57327,609.96722
149,1.233,-39.06414,-216.00206,663.28937,-8.66817,-204.9726,583.56439,36.04112,-111.13423,610.05945
150,1.242,-39.49883,-215.75369,663.55658,-8.37825,-205.07227,583.8045,35.49498,-107.84469,609.04547
151,1.25,-39.41967,-215.57692,664.92914,-7.97394,-205.07509,584.92291,34.79282,-110.52427,607.81958
152,1.258,-39.35603,-215.33745,665.20618,-7.63862,-205.69011,585.39508,33.94078,-111.76444,607.00708
153,1.267,-39.83487,-214.34813,666.11237,-7.82974,-205.69455,585.72717,33.4445,-109.66829,607.64246
154,1.275,-40.14365,-215.0746,666.24005,-7.39337,-206.13609,586.36108,33.04202,-108.79893,606.96204
155,1.283,-40.16832,-214.29297,666.40106,-7.37542,-206.2576,586.66693,33.47255,-108.06454,606.96918
156,1.292,-40.64405,-213.79085,666.7757,-7.23036,-205.86328,587.18884,33.44976,-109.64584,609.26965
157,1.3,-40.86253,-213.47217,667.20966,-7.42262,-204.83392,587.37347,33.11626,-109.64613,609.26068
158,1.308,-40.75395,-213.28624,667.40607,-7.43237,-204.52179,588.11816,32.85476,-107.61705,609.68494
159,1.317,-40.47962,-211.67468,667.74493,-7.56648,-203.76997,587.24841,32.74066,-107.47196,609.66754
160,1.325,-40.47962,-211.67468,667.74493,-7.28861,-202.77153,586.6825,32.85445,-107.23324,610.07605
161,1.333,-40.30309,-211.73,667.797,-7.23752,-202.27721,586.62134,32.09354,-106.16988,609.61578
162,1.342,-39.99898,-211.92348,667.58411,-7.60906,-202.22768,586.60339,32.86293,-104.91901,608.89618
163,1.35,-39.94837,-212.5688,667.16644,-7.43068,-202.15599,586.12933,32.41586,-106.8672,610.32532
164,1.358,-39.51258,-212.58226,666.81042,-6.88494,-202.26715,586.34943,32.93587,-107.16543,610.55225
165,1.367,-39.29888,-212.50739,665.99292,-7.94475,-202.37646,585.17816,34.3255,-107.60186,612.00513
166,1.375,-38.99694,-213.74689,664.97809,-8.40556,-201.64323,584.14728,34.76039,-108.55165,612.75525
167,1.383,-38.98588,-214.13626,664.64276,-8.80449,-202.07063,583.20361,35.53934,-108.88068,613.02362
168,1.392,-38.75414,-214.41003,664.28827,-8.48546,-202.28233,581.6239,35.94578,-107.40919,612.78119
169,1.4,-38.50598,-214.97327,663.40942,-9.17198,-202.24603,581.87219,36.57409,-108.62068,613.20721
170,1.408,-38.50131,-215.48602,663.30579,-9.24418,-202.50284,581.64819,37.67801,-108.81623,612.43738
171,1.417,-38.37967,-216.22644,663.25854,-9.02363,-202.08064,581.14587,37.61052,-109.40733,612.48322
172,1.425,-38.46426,-216.46651,663.23254,-8.278,-203.2242,581.96985,36.91056,-109.46379,611.58191
173,1.433,-38.64267,-216.86607,663.32037,-8.49026,-203.94521,582.22375,37.14072,-109.94272,610.73486
174,1.442,-38.60138,-216.65175,663.29962,-8.25143,-204.59659,583.35284,36.91475,-111.60787,610.55182
175,1.45,-38.62309,-215.60229,663.43622,-8.2234,-205.07759,583.91235,36.31785,-110.61444,610.68079
176,1.458,-38.93307,-215.22751,664.51807,-7.56029,-205.28464,584.54718,36.05565,-110.21539,610.10144
177,1.467,-39.28851,-215.0992,664.93018,-7.23894,-205.49301,585.33466,35.96824,-110.14693,609.54834
178,1.475,-39.3785,-214.21973,665.50378,-7.30323,-206.27707,585.76398,35.26059,-109.76507,609.37689
179,1.483,-39.71511,-215.26021,665.97064,-7.01837,-206.40575,586.1897,34.27451,-109.35559,608.98718
180,1.492,-39.9229,-214.74275,666.41687,-7.09432,-206.76682,586.82294,33.02081,-109.42086,608.87628
181,1.5,-39.94466,-214.54053,666.54388,-6.58833,-206.44324,587.10461,32.30067,-109.39959,608.56873
182,1.508,-40.33481,-214.18663,666.74286,-6.67733,-206.02666,587.66736,32.23177,-109.09542,608.84552
183,1.517,-40.36613,-213.69342,667.29651,-6.66221,-205.03665,587.92004,32.16291,-108.79159,609.1225
184,1.525,-40.36613,-213.69342,667.29651,-6.87946,-205.03812,588.06256,31.9195,-107.90147,609.23169
185,1.533,-40.68614,-213.52744,667.26172,-7.1908,-204.03929,587.07672,32.13063,-108.03799,609.36389
186,1.542,-40.36613,-213.69342,667.29651,-7.56713,-203.20886,586.83002,32.18551,-107.48215,610.078
187,1.55,-40.10976,-213.75806,667.1106,-7.66008,-202.72205,586.66455,32.34924,-107.4376,610.4079
188,1.558,-39.74609,-212.92813,666.65076,-7.48174,-202.65039,586.19061,32.6444,-108.28181,610.80658
189,1.567,-39.57912,-213.13376,666.44336,-6.83459,-202.60265,585.62946,33.2336,-109.07406,611.60956
190,1.575,-39.2625,-214.3187,665.42804,-8.13812,-202.43898,584.9787,34.32772,-109.12113,612.73566
191,1.583,-39.01302,-214.52875,664.76172,-7.86945,-202.59743,583.80847,35.17887,-109.28519,613.03168
192,1.592,-38.91206,-214.59961,664.49768,-8.97793,-202.28377,583.13586,35.56023,-109.09658,613.16791
193,1.6,-38.66944,-214.92719,663.6933,-8.77285,-202.54759,582.64069,36.10215,-108.43868,613.33887
194,1.608,-38.55837,-215.68318,663.45642,-8.48546,-202.28233,581.6239,36.36045,-108.95209,613.20038
195,1.617,-38.55807,-216.62607,663.34644,-8.85676,-203.02095,581.78809,37.34392,-109.78513,612.91492
196,1.625,-38.64267,-216.86607,663.32037,-8.278,-203.2242,581.96985,37.34083,-110.44768,612.77838
197,1.633,-38.78141,-217.14774,663.27472,-8.49026,-203.94521,582.22375,36.89186,-110.3455,611.92059
198,1.642,-38.78141,-217.14774,663.27472,-8.27476,-204.27003,582.88708,36.09802,-109.7116,611.03949
199,1.65,-39.00086,-217.09277,663.19183,-8.39424,-204.83919,583.52405,36.52641,-111.88126,611.20209
200,1.658,-38.95932,-215.73038,663.18054,-8.37825,-205.07227,583.8045,36.29699,-111.34839,610.72992
