Frame#,Time,R.Forearm.x,R.Forearm.y,R.Forearm.z,R.Ulna.x,R.Ulna.y,R.Ulna.z,R.Radius.x,R.Radius.y,R.Radius.z
1,0,-1508.19946,-226.71109,1093.25232,-1508.15454,-263.96741,992.45392,-1457.13025,-190.33176,957.40338
2,0.008,-1500.72705,-225.12209,1093.39063,-1502.07581,-263.06265,990.66034,-1451.39417,-187.98666,953.91663
3,0.017,-1498.4729,-224.13075,1091.00574,-1499.91296,-261.90253,989.2876,-1451.37695,-188.213,952.95703
4,0.025,-1493.81775,-223.07175,1089.15234,-1494.89368,-262.9903,988.61285,-1447.9834,-189.688,950.19189
5,0.033,-1491.32007,-224.80254,1088.68823,-1489.75574,-264.00912,987.98157,-1445.48352,-186.87181,950.0412
6,0.042,-1485.64429,-223.79083,1085.73877,-1484.55615,-263.60422,987.08759,-1437.8313,-186.9315,947.99976
7,0.05,-1480.05969,-223.16263,1085.74011,-1479.5647,-262.34897,987.18933,-1435.21338,-186.42888,947.25385
8,0.058,-1477.78235,-223.73285,1084.15063,-1475.60559,-262.27954,983.5741,-1431.63306,-190.01283,946.23553
9,0.067,-1473.54993,-225.98708,1082.82837,-1472.60535,-263.95456,982.45758,-1424.09509,-188.17937,945.77869
10,0.075,-1469.23474,-227.93823,1081.16956,-1466.89331,-262.68872,980.04889,-1420.10571,-190.32277,945.7663
11,0.083,-1463.68201,-225.97603,1081.00537,-1462.51086,-264.50308,979.5777,-1411.82983,-189.72679,945.9668
12,0.092,-1458.19617,-232.0808,1080.31848,-1458.43079,-263.06982,976.43787,-1406.81396,-192.07213,946.07819
13,0.1,-1451.76013,-232.3295,1078.97168,-1455.28101,-264.25827,976.22681,-1402.34607,-193.78905,945.94037
14,0.108,-1449.19824,-233.53745,1077.99585,-1450.01196,-265.61447,973.63843,-1393.40271,-194.11971,945.0661
15,0.117,-1442.8042,-236.13347,1075.00073,-1444.96777,-266.2019,972.05591,-1384.33643,-193.90041,944.81329
16,0.125,-1436.03247,-238.21481,1073.97766,-1438.35596,-265.50922,967.92688,-1381.74524,-196.16766,943.52313
17,0.133,-1431.6991,-239.79858,1072.6532,-1433.24133,-266.77032,967.38611,-1375.1217,-198.73338,943.41937
18,0.142,-1423.95386,-240.39999,1071.30444,-1427.61157,-268.29443,966.59747,-1366.56018,-198.78842,942.19208
19,0.15,-1418.41504,-242.82133,1071.53833,-1421.57092,-268.86481,963.88037,-1358.92358,-198.70297,940.66846
20,0.158,-1411.74084,-243.06595,1068.77954,-1413.43555,-268.73355,961.69189,-1354.68799,-200.19385,939.99951
21,0.167,-1403.79358,-245.54488,1067.95337,-1405.85571,-269.92386,961.82629,-1345.61389,-195.64561,937.8996
22,0.175,-1395.65271,-247.0601,1066.36584,-1396.97253,-271.1694,958.67523,-1339.45972,-199.22548,934.10321
23,0.183,-1388.83057,-244.23244,1065.15601,-1388.76416,-271.55188,958.17371,-1331.95605,-197.70746,933.54755
24,0.192,-1379.93079,-244.20155,1063.79797,-1379.57874,-273.59634,959.32983,-1327.73608,-198.58701,932.1394
25,0.2,-1371.18481,-245.00287,1062.86243,-1369.24329,-274.89771,958.75867,-1321.77686,-198.56891,930.07526
26,0.208,-1362.92407,-244.32205,1062.93762,-1360.53149,-275.36938,958.47253,-1313.32654,-197.95126,927.0224
27,0.217,-1354.46472,-244.05937,1062.18762,-1353.00159,-277.49911,959.67719,-1305.24622,-198.54684,928.22504
28,0.225,-1346.05579,-243.53427,1063.43787,-1342.49402,-277.98447,958.7226,-1299.69897,-200.26003,925.97333
29,0.233,-1335.90137,-243.49245,1064.00378,-1333.15906,-279.55832,960.92126,-1290.89111,-200.02385,926.81909
30,0.242,-1328.64563,-246.16174,1065.88428,-1324.82996,-282.48059,961.63708,-1282.69971,-199.56404,926.4209
31,0.25,-1319.89661,-248.62234,1064.78381,-1317.2002,-281.68268,962.66248,-1275.84851,-203.20305,927.51501
32,0.258,-1310.8905,-253.20961,1064.5498,-1308.0592,-284.6463,963.18481,-1266.72705,-203.50208,929.52832
33,0.267,-1302.35388,-254.93884,1066.80652,-1299.76135,-286.69247,963.27527,-1258.78271,-207.01794,931.79364
34,0.275,-1294.59924,-256.67108,1067.02563,-1292.2085,-288.21906,964.01129,-1247.91418,-208.16583,933.34436
35,0.283,-1287.31165,-258.47803,1066.87793,-1284.47729,-291.28055,965.59937,-1240.44409,-211.84235,934.02356
36,0.292,-1277.47693,-262.62112,1069.26367,-1274.3844,-294.24185,965.98322,-1228.96265,-213.41302,937.32428
37,0.3,-1270.33362,-266.02646,1071.55371,-1267.59143,-295.39087,966.09772,-1220.64099,-216.17572,938.63855
38,0.308,-1260.13171,-268.56415,1073.40747,-1257.46924,-297.46945,967.24463,-1212.10559,-220.02713,940.31793
39,0.317,-1250.87695,-270.24652,1075.12488,-1250.35022,-299.04413,968.58026,-1200.29163,-221.45074,944.89771
40,0.325,-1244.15723,-274.83426,1074.64355,-1240.6062,-300.14386,969.36041,-1189.57312,-223.39035,945.86615
41,0.333,-1235.4762,-278.03107,1074.67932,-1231.26074,-303.65799,969.51105,-1181.10205,-227.12181,945.85742
42,0.342,-1226.73901,-279.58307,1075.12903,-1222.69531,-304.98233,970.22101,-1171.25061,-226.37024,947.64136
43,0.35,-1217.1842,-281.77402,1075.83118,-1212.26929,-305.89474,969.49347,-1161.33533,-228.11037,950.75177
44,0.358,-1208.36353,-281.78595,1076.59265,-1203.20386,-309.33438,971.65411,-1152.2572,-229.89761,950.86884
45,0.367,-1200.15723,-283.33136,1077.48914,-1191.48083,-310.07837,971.67285,-1143.80786,-230.3018,950.82239
46,0.375,-1192.77246,-283.65378,1078.30029,-1181.10168,-310.77036,973.03662,-1135.07446,-229.34659,951.32111
47,0.383,-1181.53918,-282.69406,1078.88818,-1170.8103,-312.89673,975.1275,-1127.76843,-229.77855,951.86346
48,0.392,-1174.54932,-284.53644,1079.22754,-1160.70068,-313.79266,974.96088,-1119.77966,-229.68224,951.14722
49,0.4,-1166.59546,-284.40097,1080.02698,-1151.0553,-315.97794,977.8573,-1110.52063,-229.42955,951.57495
50,0.408,-1158.02417,-284.62299,1080.49524,-1140.43408,-316.31293,978.97876,-1101.05859,-230.62607,951.96356
51,0.417,-1148.75818,-284.21414,1080.97839,-1130.42224,-316.52567,979.24799,-1094.29077,-232.33269,951.2196
52,0.425,-1141.22375,-286.22775,1081.35156,-1120.81982,-316.2858,980.43372,-1085.3136,-232.99857,952.37714
53,0.433,-1133.25818,-285.09882,1081.99548,-1112.3147,-317.13837,981.4942,-1076.44824,-233.05794,951.68414
54,0.442,-1126.03601,-286.2244,1082.55835,-1103.22925,-315.15726,980.55438,-1067.56055,-232.68491,952.54156
55,0.45,-1117.38123,-285.88245,1081.02209,-1097.19482,-318.67715,981.55518,-1059.15906,-233.14864,954.16962
56,0.458,-1110.36292,-288.14899,1081.16736,-1090.02161,-320.99484,980.41339,-1049.22778,-235.49043,954.89227
57,0.467,-1103.49402,-289.45505,1081.13953,-1082.40979,-319.79242,979.8114,-1041.15479,-236.79626,956.36584
58,0.475,-1095.31128,-290.88965,1081.86841,-1076.18774,-321.59924,979.62842,-1032.52356,-236.34763,956.56989
59,0.483,-1088.96411,-293.21582,1081.63953,-1070.83777,-324.56778,978.3476,-1022.41278,-238.34465,958.02362
60,0.492,-1080.7179,-293.22998,1082.10718,-1064.45007,-326.60583,977.96545,-1016.04736,-240.67917,960.91187
61,0.5,-1075.21228,-296.82001,1082.38318,-1056.57324,-325.59842,977.44653,-1008.61823,-244.74138,961.54358
62,0.508,-1068.26343,-298.7818,1081.80627,-1051.22412,-326.63266,976.06256,-1001.05469,-242.73355,962.10992
63,0.517,-1061.51855,-300.94958,1081.72668,-1044.51843,-325.96838,976.29669,-994.0061,-245.0058,961.99457
64,0.525,-1054.55823,-300.26273,1081.69153,-1035.24097,-329.27637,974.40918,-987.14679,-246.526,963.20093
65,0.533,-1048.67371,-301.84924,1081.11377,-1030.83997,-328.00662,976.21564,-979.47699,-246.12747,963.828
66,0.542,-1040.703,-301.7374,1081.40906,-1024.01746,-327.66055,976.49817,-974.14832,-247.46881,963.35754
67,0.55,-1035.16187,-302.01419,1081.54932,-1016.40234,-327.82373,976.63507,-964.71667,-245.19647,962.07825
68,0.558,-1028.52234,-302.91293,1081.78882,-1008.31085,-330.1842,976.27087,-959.57288,-246.37785,961.15991
69,0.567,-1019.17932,-300.5712,1080.91919,-999.15472,-328.76999,976.88824,-952.19098,-243.46565,959.61182
70,0.575,-1014.43756,-300.80481,1081.25049,-990.78442,-330.21609,977.53143,-945.7403,-242.25865,958.20441
71,0.583,-1006.8172,-298.1702,1079.70007,-981.76672,-328.49097,979.28955,-942.32214,-244.64923,956.97363
72,0.592,-1001.43225,-298.88751,1079.61633,-975.70349,-328.59796,979.86151,-935.70459,-244.28543,956.65942
73,0.6,-992.52594,-294.5871,1079.521,-966.19989,-327.96548,978.69739,-927.98151,-242.96204,955.82275
74,0.608,-985.31012,-294.33969,1079.1947,-960.94922,-328.67828,979.36353,-919.54688,-241.6113,955.06256
75,0.617,-979.34918,-294.5719,1079.1228,-951.21313,-326.11279,978.54816,-913.19641,-242.49503,954.47345
76,0.625,-973.9433,-295.39063,1078.88403,-944.62262,-327.02029,979.51544,-904.70398,-241.9044,954.19006
77,0.633,-967.69147,-295.15369,1078.38257,-938.53741,-326.66202,977.98157,-898.7522,-243.44339,954.99762
78,0.642,-961.34723,-294.93521,1077.65308,-933.89502,-327.6622,976.4635,-891.93939,-243.45363,955.31281
79,0.65,-955.00909,-297.5126,1077.12427,-927.66248,-328.27313,975.90521,-884.59595,-243.41776,955.51416
80,0.658,-947.83289,-296.87534,1076.34436,-922.15375,-325.54276,973.17224,-876.92767,-244.49089,957.23108
81,0.667,-941.78076,-297.68896,1074.54907,-916.7016,-328.20694,972.17267,-869.07507,-243.81633,958.84717
82,0.675,-937.28516,-299.93442,1075.24512,-911.00806,-326.4581,971.36047,-859.34137,-244.36061,960.63025
83,0.683,-930.63721,-301.40176,1074.10828,-906.06177,-327.45914,970.06354,-852.89032,-245.7507,961.20386
84,0.692,-923.4762,-300.63293,1074.1853,-900.37128,-324.79108,968.83929,-845.36969,-243.34991,961.59039
85,0.7,-919.14325,-301.40994,1073.42737,-894.47247,-324.29211,968.71454,-840.88397,-242.93176,961.95422
86,0.708,-913.02734,-298.38812,1073.07886,-888.40155,-322.89627,968.45679,-830.3595,-235.38812,964.57166
87,0.717,-906.86902,-297.73157,1073.91931,-882.33734,-322.27637,970.43854,-825.73431,-236.46243,964.70111
88,0.725,-899.49347,-296.49417,1073.9989,-874.03711,-320.66812,970.34851,-821.10333,-239.53905,964.73468
89,0.733,-894.63818,-293.10193,1075.09009,-867.97766,-318.96399,971.21844,-813.8996,-237.07195,965.24042
90,0.742,-887.94525,-290.89297,1074.86499,-859.88654,-317.23544,973.57233,-810.96008,-234.42586,964.18488
91,0.75,-880.74774,-288.41885,1075.06567,-851.98077,-314.69437,975.43164,-803.2699,-229.90015,963.09845
92,0.758,-875.51184,-284.66785,1076.40015,-843.56635,-313.15002,975.38092,-798.99017,-227.22879,964.13519
93,0.767,-870.24457,-284.17978,1076.1571,-838.52173,-312.3306,978.55334,-794.3111,-226.7146,963.63977
94,0.775,-864.04608,-280.13657,1076.92529,-830.59552,-309.09113,979.66718,-784.49707,-222.1254,964.12189
95,0.783,-857.56836,-276.87085,1077.41443,-826.09735,-308.52301,979.70508,-780.98865,-219.01752,964.06665
96,0.792,-851.82849,-276.46872,1078.88281,-817.80115,-305.46951,981.39203,-775.54547,-218.00819,964.19391
97,0.8,-845.88739,-273.74133,1079.26086,-812.41113,-303.84061,981.78418,-771.54041,-219.55806,963.21692
98,0.808,-839.57581,-272.33212,1079.88232,-806.88098,-302.90823,983.21027,-765.94714,-217.93716,962.98413
99,0.817,-834.43121,-270.76889,1080.87402,-803.21216,-303.70993,982.8678,-760.90338,-214.78816,963.12299
100,0.825,-829.336,-271.01575,1082.8103,-796.27368,-300.12851,983.85907,-755.42139,-215.81163,964.51251
101,0.833,-822.19482,-267.73395,1083.16943,-793.79211,-299.87488,985.05457,-748.21783,-213.67819,966.2771
102,0.842,-816.71826,-269.32385,1083.08057,-789.29919,-299.43683,984.92841,-743.61676,-217.54102,967.48389
103,0.85,-811.24506,-270.38046,1084.36401,-785.30157,-299.27811,984.26282,-737.51123,-217.99153,968.58459
104,0.858,-806.13477,-267.75299,1085.18835,-782.0589,-297.82959,984.02386,-730.65948,-216.46474,969.63855
105,0.867,-800.58313,-270.19742,1086.57007,-778.07318,-297.42902,983.90015,-725.66107,-216.62599,970.37085
106,0.875,-794.67841,-268.33423,1087.64954,-774.10834,-295.56647,984.0448,-719.99084,-218.12198,972.94
107,0.883,-789.00635,-267.98203,1089.46802,-770.06445,-295.46954,983.94727,-714.93744,-215.88065,972.40558
108,0.892,-783.41974,-269.03946,1089.6167,-765.88092,-294.18692,985.21552,-710.21704,-218.36339,973.48602
109,0.9,-778.99066,-268.17288,1090.68665,-760.68665,-294.09048,986.4577,-704.22522,-217.00519,974.3739
110,0.908,-773.42755,-267.36273,1092.3645,-755.3725,-293.54327,987.24738,-699.47443,-215.68155,974.63147
111,0.917,-766.91858,-264.93945,1093.34351,-750.6333,-291.93323,988.47803,-695.17126,-215.31949,975.0863
112,0.925,-761.61523,-263.18008,1093.81787,-744.80328,-291.45267,990.10962,-690.16742,-212.79161,973.89459
113,0.933,-757.12085,-263.3158,1094.67273,-738.47357,-290.75574,991.47809,-688.36951,-212.57393,973.62225
114,0.942,-750.41174,-260.54785,1095.28748,-732.95844,-291.31256,992.14178,-681.50806,-210.53151,973.2525
115,0.95,-745.26648,-258.45364,1096.80444,-725.58496,-289.77219,993.75214,-679.22894,-209.27223,971.37463
116,0.958,-739.74854,-255.41911,1096.13367,-720.37836,-287.74057,994.72668,-673.53027,-206.92804,968.97107
117,0.967,-734.64697,-255.19933,1095.40637,-714.31329,-288.00623,994.14508,-671.69971,-207.36572,967.54889
118,0.975,-728.12738,-252.68114,1095.31116,-710.46271,-288.72137,995.55499,-667.14307,-207.19946,965.84662
119,0.983,-721.65308,-248.8423,1094.53247,-703.29913,-287.67548,995.06366,-664.63245,-206.06912,964.48065
120,0.992,-716.948,-249.64052,1094.90234,-699.32227,-287.49939,995.7265,-658.53296,-204.30157,963.37823
121,1,-712.97626,-251.646,1094.75903,-696.65833,-287.61246,995.2981,-656.79102,-204.43567,962.61273
122,1.008,-707.42151,-248.34355,1093.91272,-691.91205,-287.7037,994.29785,-651.75012,-205.44138,960.87726
123,1.017,-703.66858,-248.83252,1093.79285,-687.28369,-286.30347,993.58923,-648.12634,-206.51541,960.82843
124,1.025,-699.40399,-251.25043,1093.19214,-684.90625,-288.16705,992.47601,-644.30969,-207.55104,960.11292
125,1.033,-693.27429,-248.81779,1092.5802,-682.59204,-289.30954,990.58057,-640.43933,-207.67336,959.03094
126,1.042,-690.15582,-250.71419,1091.34692,-679.27161,-288.65582,989.68945,-635.14465,-208.01167,958.89136
127,1.05,-685.78625,-252.61266,1090.60339,-677.01398,-289.68393,988.01282,-629.17865,-211.10536,959.31403
128,1.058,-681.21906,-254.57195,1088.56616,-674.53113,-289.53064,986.50842,-626.20996,-212.06815,957.80865
129,1.067,-677.54535,-254.91164,1087.56653,-671.84839,-288.61816,985.02893,-621.09802,-212.64079,956.84149
130,1.075,-672.672,-254.99637,1086.97351,-670.3244,-289.47046,983.50836,-617.51953,-213.45903,955.83661
131,1.083,-668.43475,-255.71434,1085.63916,-667.07935,-288.94736,981.09979,-612.1026,-215.3902,955.19037
132,1.092,-665.06189,-256.61609,1084.34973,-664.13861,-289.56738,979.95972,-610.0835,-215.52197,953.63159
133,1.1,-661.22552,-255.91568,1083.49536,-659.48273,-288.16956,978.30414,-605.20392,-214.74799,951.51953
134,1.108,-656.04388,-255.04242,1082.43225,-656.46002,-288.84827,978.53296,-603.49512,-215.1917,948.61853
135,1.117,-652.09674,-254.22592,1081.65222,-652.18097,-289.18439,977.38757,-599.55597,-213.56264,947.50952
136,1.125,-647.3689,-253.47237,1078.66382,-646.53406,-288.10028,976.48309,-597.13007,-211.8959,944.11804
137,1.133,-642.65698,-251.73338,1078.10986,-640.69952,-288.62289,975.72821,-595.61078,-210.22028,941.72028
138,1.142,-639.44952,-251.14403,1077.17468,-636.06091,-288.12723,975.97681,-591.8512,-209.47935,939.46063
139,1.15,-634.08154,-248.77675,1076.30103,-630.37994,-286.81174,974.60083,-588.42291,-209.46262,937.33191
140,1.158,-629.65137,-247.91537,1075.37012,-626.61456,-287.02991,973.86646,-587.10413,-207.62212,935.42761
141,1.167,-624.70001,-246.07901,1073.98035,-622.14703,-288.34024,973.4743,-583.06134,-209.01323,933.90729
142,1.175,-620.83698,-246.17772,1071.78235,-617.33807,-286.83722,971.37891,-578.71063,-209.28769,931.50336
143,1.183,-618.13177,-246.72112,1071.18054,-614.13385,-287.58237,970.37579,-574.33771,-208.16127,929.76685
144,1.192,-613.33545,-249.2704,1069.33923,-609.95709,-287.65891,969.22748,-570.57703,-208.36751,929.69781
145,1.2,-608.69299,-249.04224,1068.72388,-607.82452,-288.06583,967.85309,-565.0423,-208.80991,929.27673
146,1.208,-603.06604,-249.64122,1067.18054,-603.77167,-288.27695,965.96967,-558.44659,-211.64693,930.60767
147,1.217,-600.04053,-251.01288,1067.70959,-601.56604,-287.69168,964.58539,-554.29126,-211.6474,930.26172
148,1.225,-595.60388,-254.19753,1066.3501,-598.1394,-287.80075,962.4541,-546.94397,-213.55618,930.58276
149,1.233,-592.42059,-254.59503,1065.9209,-595.11871,-288.59186,961.7088,-541.65942,-215.00093,930.40112
150,1.242,-587.00781,-258.61008,1065.42749,-591.07764,-289.33154,960.52069,-535.82367,-214.86485,931.98804
151,1.25,-583.27612,-259.06662,1064.21973,-588.05005,-288.40738,959.16766,-529.84937,-216.47752,931.79944
152,1.258,-577.75439,-260.19641,1063.87549,-583.70483,-288.81418,958.2702,-523.39661,-219.56403,932.53662
153,1.267,-572.45087,-261.24493,1063.6062,-578.45978,-289.54272,958.04175,-519.60175,-219.12276,932.78101
154,1.275,-567.40918,-262.52527,1062.87488,-573.49786,-290.42004,956.77911,-512.62677,-220.97237,931.86163
155,1.283,-562.95172,-262.22342,1062.21399,-568.1908,-290.13046,955.92926,-508.82193,-220.31537,930.02283
156,1.292,-556.31323,-261.72107,1061.00439,-561.61707,-291.02585,955.66791,-503.62988,-219.96579,928.90735
157,1.3,-550.59662,-263.1412,1061.14148,-554.86902,-291.93915,954.98065,-498.53961,-218.77466,927.68756
158,1.308,-544.87927,-263.57297,1060.08923,-548.37494,-291.91702,954.70734,-492.86261,-217.88089,926.4624
159,1.317,-537.83582,-262.0199,1058.67651,-541.41406,-293.21854,954.65564,-486.65268,-218.39258,925.25934
160,1.325,-532.64307,-263.12909,1058.80896,-533.39471,-292.54974,953.28003,-481.93121,-216.48685,924.0376
161,1.333,-524.63916,-261.84918,1057.44556,-525.64856,-294.59592,953.52661,-475.72229,-218.59203,922.27368
162,1.342,-517.70636,-262.89673,1056.35681,-517.46594,-295.25186,952.91229,-471.64514,-218.25156,918.87653
163,1.35,-511.7435,-262.21582,1055.17261,-510.12543,-295.84525,952.02161,-464.39026,-219.01009,918.81805
164,1.358,-504.15775,-262.9014,1053.76733,-501.75754,-297.48868,951.77271,-458.37994,-217.77026,917.76715
165,1.367,-496.81708,-263.83032,1052.94531,-493.99493,-299.30426,950.24164,-450.91138,-221.25534,916.08734
166,1.375,-489.4473,-265.56015,1052.19116,-487.02573,-300.76532,949.5451,-444.91644,-221.69585,915.63153
167,1.383,-481.29544,-267.24286,1051.27673,-479.93228,-300.73096,948.09747,-434.36136,-224.58849,915.96936
168,1.392,-473.76703,-268.08054,1051.20569,-473.52985,-304.11194,947.54108,-428.526,-225.71837,915.95044
169,1.4,-465.90152,-271.93924,1051.87415,-466.2486,-306.03412,947.0412,-419.07437,-227.92653,915.77905
170,1.408,-458.21509,-274.77258,1050.9613,-459.83133,-306.61157,946.94275,-410.27487,-230.08667,916.59027
171,1.417,-450.47614,-276.70242,1052.14636,-454.0069,-307.47061,946.37494,-403.60535,-232.2166,917.74738
172,1.425,-442.61938,-278.90039,1053.14709,-445.01385,-309.65582,946.75421,-392.47574,-235.2401,920.55841
173,1.433,-434.53262,-280.88602,1054.06506,-439.73276,-310.94977,947.6618,-384.95035,-236.69791,921.38232
174,1.442,-426.97714,-284.26483,1055.51636,-431.95245,-312.03229,949.00983,-375.81708,-238.14346,922.90027
175,1.45,-420.22147,-286.71823,1056.86841,-423.36581,-313.25885,949.93903,-367.08304,-241.95114,924.61511
176,1.458,-411.03604,-288.37863,1059.276,-415.18784,-316.16861,952.01215,-358.5144,-240.5284,927.51563
177,1.467,-404.04556,-289.22519,1060.19067,-405.71521,-315.39868,953.13519,-350.07654,-243.03674,928.9809
178,1.475,-395.31781,-291.41916,1061.27661,-397.06125,-317.76917,954.68414,-341.79306,-242.50188,930.87866
179,1.483,-387.37787,-291.80908,1062.92395,-387.35742,-318.46835,956.05438,-334.79526,-242.68498,932.06372
180,1.492,-378.07217,-292.81299,1064.42029,-376.25775,-320.18457,958.1347,-325.14297,-243.09837,933.08521
181,1.5,-371.01544,-292.20419,1065.0127,-366.95114,-321.08484,959.55084,-317.92734,-241.92303,932.87329
182,1.508,-361.30917,-294.31268,1066.25269,-356.35596,-322.93582,961.57495,-309.77045,-243.1879,934.15607
183,1.517,-352.47495,-294.32193,1066.5144,-346.12543,-325.24789,963.1651,-299.38074,-244.73933,935.35101
184,1.525,-344.37796,-294.70187,1067.75305,-336.97015,-324.99289,963.3446,-290.40292,-244.91478,935.58264
185,1.533,-335.35059,-295.02847,1068.55469,-324.99921,-327.01254,965.01404,-282.80225,-246.71379,934.4046
186,1.542,-326.71771,-293.47147,1067.88086,-315.8978,-327.45447,965.0506,-275.17343,-245.61798,934.21661
187,1.55,-317.49954,-295.30048,1069.04993,-306.79962,-329.5314,966.5119,-266.34302,-247.94011,934.28955
