Frame#,Time,L.Forearm.x,L.Forearm.y,L.Forearm.z,L.Ulna.x,L.Ulna.y,L.Ulna.z,L.Radius.x,L.Radius.y,L.Radius.z
1,0,-68.04338,307.8334,747.82227,-25.18708,304.30728,661.16101,0.7118,213.73439,692.36316
2,0.008,-68.04338,307.8334,747.82227,-25.18708,304.30728,661.16101,0.7118,213.73439,692.36316
3,0.017,-68.04338,307.8334,747.82227,-25.18708,304.30728,661.16101,0.44863,213.77815,692.23566
4,0.025,-68.04338,307.8334,747.82227,-25.18708,304.30728,661.16101,0.7118,213.73439,692.36316
5,0.033,-68.04338,307.8334,747.82227,-25.18708,304.30728,661.16101,-0.89062,213.77423,692.68524
6,0.042,-68.04338,307.8334,747.82227,-25.18708,304.30728,661.16101,-0.62745,213.7305,692.81274
7,0.05,-68.25277,307.76263,747.68475,-25.18708,304.30728,661.16101,0.44863,213.77815,692.23566
8,0.058,-68.25277,307.76263,747.68475,-25.18708,304.30728,661.16101,-0.89062,213.77423,692.68524
9,0.067,-68.25277,307.76263,747.68475,-25.18708,304.30728,661.16101,-0.522,214.70827,692.84509
10,0.075,-68.25277,307.76263,747.68475,-25.52951,304.5574,660.66724,-0.89062,213.77423,692.68524
11,0.083,-68.25277,307.76263,747.68475,-25.18708,304.30728,661.16101,-0.89062,213.77423,692.68524
12,0.092,-68.25277,307.76263,747.68475,-25.52951,304.5574,660.66724,-1.38527,212.12296,693.05365
13,0.1,-68.83842,307.97934,747.54395,-25.34756,304.32364,660.98065,-1.24997,213.92467,692.76514
14,0.108,-68.83842,307.97934,747.54395,-25.34756,304.32364,660.98065,-1.92029,213.92043,692.98969
15,0.117,-68.92106,307.71539,747.39075,-25.34756,304.32364,660.98065,-1.98597,213.80421,692.15509
16,0.125,-68.92106,307.71539,747.39075,-25.55991,304.4483,661.16321,-1.98597,213.80421,692.15509
17,0.133,-69.09554,307.7045,747.45386,-25.34756,304.32364,660.98065,-1.92029,213.92043,692.98969
18,0.142,-69.09554,307.7045,747.45386,-25.55991,304.4483,661.16321,-1.92029,213.92043,692.98969
19,0.15,-69.09554,307.7045,747.45386,-25.88737,304.55243,660.95538,-1.92029,213.92043,692.98969
20,0.158,-69.47582,307.89227,747.55835,-26.57675,304.88702,660.86456,-1.92029,213.92043,692.98969
21,0.167,-69.66852,307.67096,747.2196,-26.42724,304.78165,660.93011,-1.92029,213.92043,692.98969
22,0.175,-69.73572,307.93991,747.08075,-26.57675,304.88702,660.86456,-1.92029,213.92043,692.98969
23,0.183,-69.66852,307.67096,747.2196,-26.57675,304.88702,660.86456,-1.92029,213.92043,692.98969
24,0.192,-69.94801,308.13443,746.93414,-26.57675,304.88702,660.86456,-1.92029,213.92043,692.98969
25,0.2,-69.90971,308.03363,747.03119,-26.57675,304.88702,660.86456,-1.92029,213.92043,692.98969
26,0.208,-69.94801,308.13443,746.93414,-26.57675,304.88702,660.86456,-1.92029,213.92043,692.98969
27,0.217,-69.90971,308.03363,747.03119,-26.66194,305.16605,660.74213,-1.99637,214.03746,692.92853
28,0.225,-70.15749,308.06366,746.79669,-26.66194,305.16605,660.74213,-1.98597,213.80421,692.15509
29,0.233,-70.15749,308.06366,746.79669,-26.66194,305.16605,660.74213,-1.99637,214.03746,692.92853
30,0.242,-70.15749,308.06366,746.79669,-26.57675,304.88702,660.86456,-1.99637,214.03746,692.92853
31,0.25,-70.11919,307.96286,746.89374,-26.66194,305.16605,660.74213,-1.99637,214.03746,692.92853
32,0.258,-70.15749,308.06366,746.79669,-26.66194,305.16605,660.74213,-1.99637,214.03746,692.92853
33,0.267,-70.56511,308.13693,746.96405,-26.66194,305.16605,660.74213,-1.92029,213.92043,692.98969
34,0.275,-70.56511,308.13693,746.96405,-26.66194,305.16605,660.74213,-2.40392,212.52724,693.32764
35,0.283,-70.56511,308.13693,746.96405,-26.57675,304.88702,660.86456,-1.99637,214.03746,692.92853
36,0.292,-70.56511,308.13693,746.96405,-26.66194,305.16605,660.74213,-1.65844,214.64067,693.01288
37,0.3,-69.91104,308.25958,746.92065,-26.66194,305.16605,660.74213,-1.65844,214.64067,693.01288
38,0.308,-69.91104,308.25958,746.92065,-26.66194,305.16605,660.74213,-1.65844,214.64067,693.01288
39,0.317,-69.91104,308.25958,746.92065,-26.57675,304.88702,660.86456,-1.5827,214.53729,693.06488
40,0.325,-69.91104,308.25958,746.92065,-26.57675,304.88702,660.86456,-1.65844,214.64067,693.01288
41,0.333,-69.91104,308.25958,746.92065,-26.66194,305.16605,660.74213,-1.65844,214.64067,693.01288
42,0.342,-69.91104,308.25958,746.92065,-26.66194,305.16605,660.74213,-1.65844,214.64067,693.01288
43,0.35,-69.91104,308.25958,746.92065,-26.66194,305.16605,660.74213,-1.65844,214.64067,693.01288
44,0.358,-69.91104,308.25958,746.92065,-26.66194,305.16605,660.74213,-1.65844,214.64067,693.01288
45,0.367,-70.1057,307.98148,746.90778,-26.66194,305.16605,660.74213,-1.65844,214.64067,693.01288
46,0.375,-70.1057,307.98148,746.90778,-26.66194,305.16605,660.74213,-1.65844,214.64067,693.01288
47,0.383,-70.77608,307.84644,746.73688,-26.66194,305.16605,660.74213,-1.65844,214.64067,693.01288
48,0.392,-70.12196,307.96902,746.69354,-26.66194,305.16605,660.74213,-1.65844,214.64067,693.01288
49,0.4,-70.12196,307.96902,746.69354,-26.66194,305.16605,660.74213,-1.65844,214.64067,693.01288
50,0.408,-70.75979,307.85886,746.95117,-26.66194,305.16605,660.74213,-1.65844,214.64067,693.01288
51,0.417,-70.77608,307.84644,746.73688,-26.66194,305.16605,660.74213,-1.65844,214.64067,693.01288
52,0.425,-70.77608,307.84644,746.73688,-26.66194,305.16605,660.74213,-1.65844,214.64067,693.01288
53,0.433,-70.12196,307.96902,746.69354,-26.66194,305.16605,660.74213,-1.65844,214.64067,693.01288
54,0.442,-70.12196,307.96902,746.69354,-26.66194,305.16605,660.74213,-1.65844,214.64067,693.01288
55,0.45,-70.12196,307.96902,746.69354,-26.78313,305.12964,660.81384,-1.65844,214.64067,693.01288
56,0.458,-70.12196,307.96902,746.69354,-26.66194,305.16605,660.74213,-2.09381,213.69145,692.26318
57,0.467,-70.73341,307.91116,746.65912,-26.66194,305.16605,660.74213,-1.65844,214.64067,693.01288
58,0.475,-70.73341,307.91116,746.65912,-26.66194,305.16605,660.74213,-1.65844,214.64067,693.01288
59,0.483,-70.73341,307.91116,746.65912,-26.66194,305.16605,660.74213,-1.65844,214.64067,693.01288
60,0.492,-70.73341,307.91116,746.65912,-26.47628,304.92923,660.31201,-1.65844,214.64067,693.01288
61,0.5,-70.77608,307.84644,746.73688,-26.66194,305.16605,660.74213,-1.65844,214.64067,693.01288
62,0.508,-70.77608,307.84644,746.73688,-26.66194,305.16605,660.74213,-1.65844,214.64067,693.01288
63,0.517,-70.77608,307.84644,746.73688,-26.66194,305.16605,660.74213,-1.65844,214.64067,693.01288
64,0.525,-70.12196,307.96902,746.69354,-26.66194,305.16605,660.74213,-1.65844,214.64067,693.01288
65,0.533,-70.77608,307.84644,746.73688,-26.66194,305.16605,660.74213,-1.65844,214.64067,693.01288
66,0.542,-69.92731,308.24716,746.70642,-26.66194,305.16605,660.74213,-0.50888,215.10493,692.41779
67,0.55,-70.53873,308.18921,746.67206,-27.79741,303.8486,660.65558,-0.50888,215.10493,692.41779
68,0.558,-69.88462,308.31186,746.62866,-26.66194,305.16605,660.74213,-0.79916,215.22879,692.92163
69,0.567,-69.88462,308.31186,746.62866,-26.66194,305.16605,660.74213,-0.50888,215.10493,692.41779
70,0.575,-69.92731,308.24716,746.70642,-26.84369,305.39941,660.42871,-0.42406,215.145,692.2536
71,0.583,-69.88462,308.31186,746.62866,-26.66194,305.16605,660.74213,-0.50888,215.10493,692.41779
72,0.592,-69.88462,308.31186,746.62866,-27.79741,303.8486,660.65558,-1.40644,215.34526,693.15729
73,0.6,-70.53873,308.18921,746.67206,-26.66194,305.16605,660.74213,-1.65844,214.64067,693.01288
74,0.608,-69.88462,308.31186,746.62866,-26.84369,305.39941,660.42871,-0.42406,215.145,692.2536
75,0.617,-69.88462,308.31186,746.62866,-26.84369,305.39941,660.42871,-0.76112,214.40045,692.27356
76,0.625,-69.88931,308.3501,746.50989,-26.84369,305.39941,660.42871,-0.50888,215.10493,692.41779
77,0.633,-69.84663,308.41483,746.43213,-27.79741,303.8486,660.65558,-0.50888,215.10493,692.41779
78,0.642,-69.88462,308.31186,746.62866,-27.98258,304.07959,660.38544,-0.76112,214.40045,692.27356
79,0.65,-69.88462,308.31186,746.62866,-26.84369,305.39941,660.42871,-0.6763,214.44052,692.10938
80,0.658,-69.88462,308.31186,746.62866,-26.66194,305.16605,660.74213,-0.56594,214.43025,692.58875
81,0.667,-69.92731,308.24716,746.70642,-26.44958,305.04135,660.55957,-0.56594,214.43025,692.58875
82,0.675,-69.92731,308.24716,746.70642,-27.5907,303.71802,660.4975,-0.56594,214.43025,692.58875
83,0.683,-69.64427,308.16574,746.53503,-26.44958,305.04135,660.55957,-0.56594,214.43025,692.58875
84,0.692,-69.84663,308.41483,746.43213,-26.44958,305.04135,660.55957,-0.1369,214.36908,692.55225
85,0.7,-69.84663,308.41483,746.43213,-26.44958,305.04135,660.55957,-0.1369,214.36908,692.55225
86,0.708,-69.91104,308.25958,746.92065,-26.44958,305.04135,660.55957,0.00019,214.18004,692.1568
87,0.717,-69.58132,308.18948,746.65466,-26.26394,304.80444,660.12939,0.24665,214.32794,692.14154
88,0.725,-69.64898,308.20398,746.41632,-26.44958,305.04135,660.55957,0.00019,214.18004,692.1568
89,0.733,-69.58132,308.18948,746.65466,-26.44958,305.04135,660.55957,0.23754,214.18448,692.35779
90,0.742,-69.6193,308.08652,746.85114,-27.5907,303.71802,660.4975,0.18565,214.00932,692.14148
91,0.75,-69.6193,308.08652,746.85114,-26.44958,305.04135,660.55957,-0.27293,212.07399,692.87408
92,0.758,-69.6193,308.08652,746.85114,-26.44958,305.04135,660.55957,0.08933,213.92865,692.31555
93,0.767,-69.4613,308.11969,746.96588,-26.44958,305.04135,660.55957,0.08933,213.92865,692.31555
94,0.775,-69.33137,308.01883,747.02112,-26.44958,305.04135,660.55957,0.18565,214.00932,692.14148
95,0.783,-69.33137,308.01883,747.02112,-26.44958,305.04135,660.55957,0.08933,213.92865,692.31555
96,0.792,-69.33137,308.01883,747.02112,-27.48711,303.45959,660.6051,0.08933,213.92865,692.31555
97,0.8,-69.33137,308.01883,747.02112,-26.57675,304.88702,660.86456,0.08933,213.92865,692.31555
98,0.808,-69.33137,308.01883,747.02112,-26.66194,305.16605,660.74213,0.18565,214.00932,692.14148
99,0.817,-69.62314,308.19199,747.09064,-26.66194,305.16605,660.74213,0.18565,214.00932,692.14148
100,0.825,-69.62314,308.19199,747.09064,-26.57675,304.88702,660.86456,0.08933,213.92865,692.31555
101,0.833,-69.33137,308.01883,747.02112,-26.66194,305.16605,660.74213,0.08933,213.92865,692.31555
102,0.842,-69.33137,308.01883,747.02112,-26.66194,305.16605,660.74213,0.58136,214.99042,692.63525
103,0.85,-69.28572,307.91284,747.10986,-26.66194,305.16605,660.74213,0.21204,214.05621,692.4754
104,0.858,-69.2149,307.64761,747.25128,-26.57675,304.88702,660.86456,0.11573,213.97559,692.64948
105,0.867,-69.2149,307.64761,747.25128,-26.57675,304.88702,660.86456,0.11573,213.97559,692.64948
106,0.875,-69.2149,307.64761,747.25128,-27.69384,303.59021,660.76324,0.11573,213.97559,692.64948
107,0.883,-69.01816,307.99918,747.63708,-26.66194,305.16605,660.74213,0.11573,213.97559,692.64948
108,0.892,-69.0192,307.96149,747.60327,-26.57675,304.88702,660.86456,0.11573,213.97559,692.64948
109,0.9,-69.32205,308.13525,747.69196,-27.69384,303.59021,660.76324,0.11573,213.97559,692.64948
110,0.908,-69.0192,307.96149,747.60327,-26.57675,304.88702,660.86456,0.11573,213.97559,692.64948
111,0.917,-68.77598,308.36948,747.89197,-26.57675,304.88702,660.86456,0.48505,214.90981,692.80927
112,0.925,-69.0192,307.96149,747.60327,-26.57675,304.88702,660.86456,0.31793,214.93697,693.06799
113,0.933,-69.0192,307.96149,747.60327,-26.57675,304.88702,660.86456,0.31793,214.93697,693.06799
114,0.942,-68.77598,308.36948,747.89197,-26.42724,304.78165,660.93011,0.48505,214.90981,692.80927
115,0.95,-69.0192,307.96149,747.60327,-26.11412,304.67465,661.08917,0.48505,214.90981,692.80927
116,0.958,-69.0192,307.96149,747.60327,-26.26365,304.78012,661.02362,-0.40587,212.89011,693.37268
117,0.967,-68.77598,308.36948,747.89197,-25.55991,304.4483,661.16321,0.31793,214.93697,693.06799
118,0.975,-69.0192,307.96149,747.60327,-26.11412,304.67465,661.08917,0.31793,214.93697,693.06799
119,0.983,-68.77598,308.36948,747.89197,-25.72509,304.79837,660.75311,0.48505,214.90981,692.80927
120,0.992,-68.55388,307.72827,747.74481,-25.47058,304.75018,660.96466,0.67707,214.7865,692.98816
121,1,-68.55388,307.72827,747.74481,-25.47058,304.75018,660.96466,0.67707,214.7865,692.98816
122,1.008,-68.31077,308.1362,748.03345,-25.47058,304.75018,660.96466,0.67707,214.7865,692.98816
123,1.017,-68.31077,308.1362,748.03345,-25.47058,304.75018,660.96466,0.67707,214.7865,692.98816
124,1.025,-68.55388,307.72827,747.74481,-25.47058,304.75018,660.96466,0.67707,214.7865,692.98816
125,1.033,-68.31077,308.1362,748.03345,-24.91131,304.45474,660.59698,0.67707,214.7865,692.98816
126,1.042,-68.31077,308.1362,748.03345,-26.30834,302.7728,660.49622,0.67707,214.7865,692.98816
127,1.05,-68.34555,308.03662,748.35162,-26.30834,302.7728,660.49622,0.67707,214.7865,692.98816
128,1.058,-68.2068,308.05676,748.29004,-25.34756,304.32364,660.98065,0.67707,214.7865,692.98816
129,1.067,-68.17203,308.15634,747.97186,-26.52292,302.95761,660.85547,0.52299,214.50905,692.91168
130,1.075,-68.41511,307.74841,747.68323,-25.34756,304.32364,660.98065,0.59496,214.59404,692.75439
131,1.083,-68.17702,308.59579,748.39667,-24.91131,304.45474,660.59698,0.86125,215.21826,692.97314
132,1.092,-68.1102,308.52234,748.21423,-24.91131,304.45474,660.59698,0.92582,215.1364,692.90747
133,1.1,-68.48647,307.55322,747.61896,-24.91131,304.45474,660.59698,0.92582,215.1364,692.90747
134,1.108,-68.26788,307.88922,747.88098,-26.30834,302.7728,660.49622,1.20577,215.10997,692.86908
135,1.117,-68.12897,307.8978,747.65625,-24.91131,304.45474,660.59698,1.06923,215.10681,693.09198
136,1.125,-68.3521,307.4054,747.25494,-24.91131,304.45474,660.59698,0.98596,214.45685,692.79089
137,1.133,-68.3521,307.4054,747.25494,-24.91131,304.45474,660.59698,1.20577,215.10997,692.86908
138,1.142,-68.39673,307.05115,746.99811,-24.91131,304.45474,660.59698,1.19986,214.85426,692.71161
139,1.15,-68.17807,307.38702,747.26019,-24.91131,304.45474,660.59698,1.14831,214.95203,692.86041
140,1.158,-68.17203,308.15634,747.97186,-24.91131,304.45474,660.59698,1.14831,214.95203,692.86041
141,1.167,-68.17203,308.15634,747.97186,-24.91131,304.45474,660.59698,1.46052,214.93707,692.85443
142,1.175,-68.26788,307.88922,747.88098,-24.91131,304.45474,660.59698,1.43354,214.42616,692.58722
143,1.183,-68.48647,307.55322,747.61896,-24.91131,304.45474,660.59698,1.43354,214.42616,692.58722
144,1.192,-68.26788,307.88922,747.88098,-24.91131,304.45474,660.59698,1.46052,214.93707,692.85443
145,1.2,-68.26788,307.88922,747.88098,-25.34756,304.32364,660.98065,0.4112,211.55437,692.86847
146,1.208,-68.26788,307.88922,747.88098,-25.34756,304.32364,660.98065,1.46052,214.93707,692.85443
147,1.217,-68.10995,307.92245,747.99573,-25.34756,304.32364,660.98065,1.12138,214.44104,692.5932
148,1.225,-68.10995,307.92245,747.99573,-24.91131,304.45474,660.59698,1.43354,214.42616,692.58722
149,1.233,-68.21542,308.10037,747.99194,-24.91131,304.45474,660.59698,1.12138,214.44104,692.5932
150,1.242,-68.0575,308.13358,748.10669,-24.91131,304.45474,660.59698,1.46052,214.93707,692.85443
151,1.25,-68.0575,308.13358,748.10669,-24.91131,304.45474,660.59698,1.14831,214.95203,692.86041
152,1.258,-68.27606,307.79749,747.84473,-24.91131,304.45474,660.59698,1.12138,214.44104,692.5932
153,1.267,-68.0575,308.13358,748.10669,-24.75009,304.22174,660.9342,1.43354,214.42616,692.58722
154,1.275,-68.0575,308.13358,748.10669,-24.75009,304.22174,660.9342,1.46052,214.93707,692.85443
155,1.283,-67.89883,307.80344,748.14178,-26.13879,302.54208,660.78241,1.43354,214.42616,692.58722
156,1.292,-67.89883,307.80344,748.14178,-26.13879,302.54208,660.78241,1.43354,214.42616,692.58722
157,1.3,-67.89883,307.80344,748.14178,-24.75009,304.22174,660.9342,1.46052,214.93707,692.85443
158,1.308,-67.89883,307.80344,748.14178,-24.75009,304.22174,660.9342,1.46052,214.93707,692.85443
159,1.317,-67.89883,307.80344,748.14178,-24.75009,304.22174,660.9342,1.43354,214.42616,692.58722
160,1.325,-67.89883,307.80344,748.14178,-24.75009,304.22174,660.9342,1.46052,214.93707,692.85443
161,1.333,-67.89883,307.80344,748.14178,-26.13879,302.54208,660.78241,1.46052,214.93707,692.85443
162,1.342,-67.91523,307.70743,748.43237,-24.55636,304.50598,661.17194,1.46052,214.93707,692.85443
163,1.35,-67.91523,307.70743,748.43237,-24.55636,304.50598,661.17194,1.43354,214.42616,692.58722
164,1.358,-67.91523,307.70743,748.43237,-24.55636,304.50598,661.17194,1.46052,214.93707,692.85443
165,1.367,-67.91523,307.70743,748.43237,-24.75009,304.22174,660.9342,1.46052,214.93707,692.85443
166,1.375,-67.87642,307.59164,748.53284,-24.55636,304.50598,661.17194,1.26749,214.40883,692.81317
167,1.383,-67.87642,307.59164,748.53284,-24.14724,305.04367,661.36365,1.30354,213.49165,692.45825
168,1.392,-67.87642,307.59164,748.53284,-24.14724,305.04367,661.36365,1.29448,214.91989,693.08038
169,1.4,-67.87642,307.59164,748.53284,-24.55636,304.50598,661.17194,1.23942,214.40071,693.20813
170,1.408,-67.87642,307.59164,748.53284,-26.13879,302.54208,660.78241,1.29448,214.91989,693.08038
171,1.417,-67.87642,307.59164,748.53284,-26.13879,302.54208,660.78241,1.29448,214.91989,693.08038
172,1.425,-67.87642,307.59164,748.53284,-24.75009,304.22174,660.9342,1.33056,214.00243,692.72546
173,1.433,-67.91523,307.70743,748.43237,-24.75009,304.22174,660.9342,1.29448,214.91989,693.08038
174,1.442,-67.91523,307.70743,748.43237,-24.75009,304.22174,660.9342,1.10942,213.46577,693.0791
175,1.45,-67.87642,307.59164,748.53284,-24.75009,304.22174,660.9342,1.08239,212.9549,692.81189
176,1.458,-67.87642,307.59164,748.53284,-24.75009,304.22174,660.9342,1.23942,214.40071,693.20813
177,1.467,-67.87642,307.59164,748.53284,-24.75009,304.22174,660.9342,1.08239,212.9549,692.81189
178,1.475,-67.87642,307.59164,748.53284,-24.75009,304.22174,660.9342,1.10942,213.46577,693.0791
179,1.483,-67.87642,307.59164,748.53284,-24.75009,304.22174,660.9342,1.10942,213.46577,693.0791
180,1.492,-67.87642,307.59164,748.53284,-24.75009,304.22174,660.9342,1.08239,212.9549,692.81189
181,1.5,-67.87642,307.59164,748.53284,-24.75009,304.22174,660.9342,1.08239,212.9549,692.81189
182,1.508,-67.87642,307.59164,748.53284,-24.59198,304.84268,661.51996,1.16457,213.98517,692.95135
183,1.517,-67.87642,307.59164,748.53284,-24.76194,304.62125,661.31201,1.27538,213.48302,692.85327
184,1.525,-67.87642,307.59164,748.53284,-24.76194,304.62125,661.31201,1.22207,213.69804,693.16638
185,1.533,-67.87642,307.59164,748.53284,-24.76194,304.62125,661.31201,1.28789,213.52829,692.85107
186,1.542,-67.87642,307.59164,748.53284,-24.76194,304.62125,661.31201,1.47522,213.80994,693.02368
187,1.55,-67.87642,307.59164,748.53284,-24.76194,304.62125,661.31201,1.48158,213.4149,692.78394
188,1.558,-67.87642,307.59164,748.53284,-24.76194,304.62125,661.31201,1.06798,212.87532,692.77283
189,1.567,-67.87642,307.59164,748.53284,-24.61242,304.51572,661.37756,1.25537,213.15678,692.94537
190,1.575,-67.87642,307.59164,748.53284,-24.44247,304.73715,661.58545,1.25537,213.15678,692.94537
191,1.583,-67.87642,307.59164,748.53284,-24.35819,304.48938,661.87488,1.25537,213.15678,692.94537
192,1.592,-67.87642,307.59164,748.53284,-24.52814,304.26791,661.66693,1.25537,213.15678,692.94537
193,1.6,-67.87642,307.59164,748.53284,-24.52814,304.26791,661.66693,1.26173,212.76192,692.70569
194,1.608,-67.87642,307.59164,748.53284,-24.52814,304.26791,661.66693,1.22931,212.8876,692.82825
195,1.617,-67.62444,307.24783,748.98004,-24.35819,304.48938,661.87488,1.28264,212.84401,692.73151
196,1.625,-67.70419,307.52567,748.84784,-24.01005,304.91888,662.03815,1.28264,212.84401,692.73151
197,1.633,-67.62444,307.24783,748.98004,-24.01005,304.91888,662.03815,1.28264,212.84401,692.73151
198,1.642,-67.5014,307.38043,749.16046,-24.01005,304.91888,662.03815,1.25631,213.39854,693.0954
199,1.65,-67.5014,307.38043,749.16046,-24.35819,304.48938,661.87488,1.54495,212.73868,692.95984
200,1.658,-67.47183,307.13791,749.03662,-24.35819,304.48938,661.87488,1.54495,212.73868,692.95984
201,1.667,-67.47183,307.13791,749.03662,-24.35819,304.48938,661.87488,1.54495,212.73868,692.95984
202,1.675,-67.34881,307.27054,749.21704,-24.35819,304.48938,661.87488,1.54495,212.73868,692.95984
203,1.683,-67.5014,307.38043,749.16046,-24.01005,304.91888,662.03815,1.26839,213.4117,693.29706
204,1.692,-67.62444,307.24783,748.98004,-24.01005,304.91888,662.03815,1.2414,212.90082,693.02997
205,1.7,-67.47183,307.13791,749.03662,-24.01005,304.91888,662.03815,1.26839,213.4117,693.29706
