Frame#,Time,L.Forearm.x,L.Forearm.y,L.Forearm.z,L.Ulna.x,L.Ulna.y,L.Ulna.z,L.Radius.x,L.Radius.y,L.Radius.z
1,0,-141.3515,275.94763,727.93164,-84.26804,277.27179,630.79108,-57.77203,165.52785,632.74725
2,0.008,-141.3515,275.94763,727.93164,-84.26804,277.27179,630.79108,-57.77203,165.52785,632.74725
3,0.017,-141.3515,275.94763,727.93164,-84.26804,277.27179,630.79108,-58.05712,165.4277,632.87268
4,0.025,-141.3515,275.94763,727.93164,-84.5115,276.95023,630.87524,-58.05712,165.4277,632.87268
5,0.033,-141.3515,275.94763,727.93164,-84.47018,276.66071,631.03479,-58.05712,165.4277,632.87268
6,0.042,-141.12988,275.80035,728.19263,-84.47018,276.66071,631.03479,-58.05712,165.4277,632.87268
7,0.05,-141.12988,275.80035,728.19263,-84.47018,276.66071,631.03479,-57.43077,165.61627,632.89496
8,0.058,-141.21519,275.86081,727.72632,-84.47018,276.66071,631.03479,-57.43077,165.61627,632.89496
9,0.067,-141.21519,275.86081,727.72632,-84.96619,276.88779,630.85461,-57.1457,165.71642,632.76947
10,0.075,-141.21519,275.86081,727.72632,-85.00097,276.90543,630.52734,-57.14274,165.82187,632.97668
11,0.083,-141.3515,275.94763,727.93164,-85.00097,276.90543,630.52734,-57.14274,165.82187,632.97668
12,0.092,-141.3515,275.94763,727.93164,-85.00097,276.90543,630.52734,-56.76478,165.63319,633.16528
13,0.1,-141.21519,275.86081,727.72632,-85.08701,276.93372,630.23126,-56.76478,165.63319,633.16528
14,0.108,-141.08487,276.20322,728.276,-85.14433,277.29965,630.6095,-56.76478,165.63319,633.16528
15,0.117,-141.08487,276.20322,728.276,-85.21638,277.47903,630.17108,-56.76478,165.63319,633.16528
16,0.125,-141.08487,276.20322,728.276,-85.14433,277.29965,630.6095,-56.76478,165.63319,633.16528
17,0.133,-141.08487,276.20322,728.276,-85.03921,277.98288,630.49261,-56.76478,165.63319,633.16528
18,0.142,-140.94859,276.11639,728.07068,-85.03921,277.98288,630.49261,-57.14274,165.82187,632.97668
19,0.15,-141.08487,276.20322,728.276,-84.76391,277.49884,630.6109,-57.14274,165.82187,632.97668
20,0.158,-141.08487,276.20322,728.276,-85.00749,277.17725,630.69507,-57.14274,165.82187,632.97668
21,0.167,-141.08487,276.20322,728.276,-85.00749,277.17725,630.69507,-57.1457,165.71642,632.76947
22,0.175,-141.08487,276.20322,728.276,-85.00749,277.17725,630.69507,-57.1457,165.71642,632.76947
23,0.183,-141.08487,276.20322,728.276,-84.47018,276.66071,631.03479,-57.1457,165.71642,632.76947
24,0.192,-140.99971,276.14273,728.74231,-84.21544,277.24539,631.28192,-57.1457,165.71642,632.76947
25,0.2,-140.99971,276.14273,728.74231,-84.21544,277.24539,631.28192,-57.1457,165.71642,632.76947
26,0.208,-140.99971,276.14273,728.74231,-84.22669,276.9823,630.95062,-57.1457,165.71642,632.76947
27,0.217,-141.3515,275.94763,727.93164,-84.47018,276.66071,631.03479,-57.1457,165.71642,632.76947
28,0.225,-141.3515,275.94763,727.93164,-84.5115,276.95023,630.87524,-57.77203,165.52785,632.74725
29,0.233,-141.3515,275.94763,727.93164,-84.47018,276.66071,631.03479,-57.77203,165.52785,632.74725
30,0.242,-141.21519,275.86081,727.72632,-84.47018,276.66071,631.03479,-58.05712,165.4277,632.87268
31,0.25,-140.94859,276.11639,728.07068,-84.47018,276.66071,631.03479,-57.77203,165.52785,632.74725
32,0.258,-141.21519,275.86081,727.72632,-84.47018,276.66071,631.03479,-57.77203,165.52785,632.74725
33,0.267,-141.12988,275.80035,728.19263,-84.47018,276.66071,631.03479,-57.77203,165.52785,632.74725
34,0.275,-140.72606,275.59073,728.29065,-84.47018,276.66071,631.03479,-57.1457,165.71642,632.76947
35,0.283,-140.45966,275.84634,728.63489,-84.47018,276.66071,631.03479,-57.1457,165.71642,632.76947
36,0.292,-140.72606,275.59073,728.29065,-84.47018,276.66071,631.03479,-57.14274,165.82187,632.97668
37,0.3,-140.54485,275.9068,728.1687,-84.5115,276.95023,630.87524,-56.76478,165.63319,633.16528
38,0.308,-140.54485,275.9068,728.1687,-85.00749,277.17725,630.69507,-56.76478,165.63319,633.16528
39,0.317,-140.54485,275.9068,728.1687,-85.00749,277.17725,630.69507,-56.76478,165.63319,633.16528
40,0.325,-140.63411,275.9505,728.79694,-85.00749,277.17725,630.69507,-56.76478,165.63319,633.16528
41,0.333,-140.45966,275.84634,728.63489,-84.76391,277.49884,630.6109,-56.22202,165.7261,633.19983
42,0.342,-140.45966,275.84634,728.63489,-84.5115,276.95023,630.87524,-56.76478,165.63319,633.16528
43,0.35,-140.63411,275.9505,728.79694,-84.47018,276.66071,631.03479,-56.76478,165.63319,633.16528
44,0.358,-140.45966,275.84634,728.63489,-84.26804,277.27179,630.79108,-56.76478,165.63319,633.16528
45,0.367,-140.63411,275.9505,728.79694,-84.26804,277.27179,630.79108,-56.76478,165.63319,633.16528
46,0.375,-140.71425,275.90524,728.99304,-84.26804,277.27179,630.79108,-57.14274,165.82187,632.97668
47,0.383,-140.71425,275.90524,728.99304,-84.26804,277.27179,630.79108,-57.14274,165.82187,632.97668
48,0.392,-140.63411,275.9505,728.79694,-84.26804,277.27179,630.79108,-57.14274,165.82187,632.97668
49,0.4,-140.71425,275.90524,728.99304,-84.22669,276.9823,630.95062,-57.14274,165.82187,632.97668
50,0.408,-140.71425,275.90524,728.99304,-84.21544,277.24539,631.28192,-57.1457,165.71642,632.76947
51,0.417,-140.71425,275.90524,728.99304,-84.45891,276.92383,631.36615,-57.1457,165.71642,632.76947
52,0.425,-140.71425,275.90524,728.99304,-84.45891,276.92383,631.36615,-57.1457,165.71642,632.76947
53,0.433,-140.71425,275.90524,728.99304,-83.94457,277.50967,631.43536,-57.1457,165.71642,632.76947
54,0.442,-140.71425,275.90524,728.99304,-84.21544,277.24539,631.28192,-57.1457,165.71642,632.76947
55,0.45,-140.79936,275.96579,728.52679,-84.47018,276.66071,631.03479,-57.1457,165.71642,632.76947
56,0.458,-140.71927,276.01102,728.33069,-84.47018,276.66071,631.03479,-57.77203,165.52785,632.74725
57,0.467,-140.54485,275.9068,728.1687,-84.47018,276.66071,631.03479,-57.77203,165.52785,632.74725
58,0.475,-140.54485,275.9068,728.1687,-84.47018,276.66071,631.03479,-58.05712,165.4277,632.87268
59,0.483,-140.72606,275.59073,728.29065,-84.47018,276.66071,631.03479,-58.05712,165.4277,632.87268
60,0.492,-140.81137,275.65125,727.82434,-84.47018,276.66071,631.03479,-58.05712,165.4277,632.87268
61,0.5,-140.81627,275.11038,727.84131,-84.43953,276.10815,630.86304,-58.05712,165.4277,632.87268
62,0.508,-140.81627,275.11038,727.84131,-84.50493,276.67841,630.70752,-58.05712,165.4277,632.87268
63,0.517,-140.81627,275.11038,727.84131,-84.50493,276.67841,630.70752,-58.05712,165.4277,632.87268
64,0.525,-140.81627,275.11038,727.84131,-84.50493,276.67841,630.70752,-57.1457,165.71642,632.76947
65,0.533,-141.16306,274.97623,727.82745,-84.50493,276.67841,630.70752,-57.1457,165.71642,632.76947
66,0.542,-141.07085,275.1694,728.19952,-84.50493,276.67841,630.70752,-57.1457,165.71642,632.76947
67,0.55,-141.78349,275.22748,728.13092,-84.50493,276.67841,630.70752,-56.75446,165.54706,632.9646
68,0.558,-141.78349,275.22748,728.13092,-84.50493,276.67841,630.70752,-56.76478,165.63319,633.16528
69,0.567,-141.43663,275.36163,728.14478,-84.50493,276.67841,630.70752,-56.76478,165.63319,633.16528
70,0.575,-141.16499,276.15799,728.47217,-84.50493,276.67841,630.70752,-56.76478,165.63319,633.16528
71,0.583,-141.07922,276.15176,729.04913,-84.50493,276.67841,630.70752,-56.22202,165.7261,633.19983
72,0.592,-141.07922,276.15176,729.04913,-84.50493,276.67841,630.70752,-56.76478,165.63319,633.16528
73,0.6,-141.07922,276.15176,729.04913,-84.26145,277,630.62341,-55.8531,166.22382,633.29974
74,0.608,-141.19156,276.98642,729.01941,-84.39994,277.36179,630.5907,-55.49005,166.47342,633.56537
75,0.617,-140.92465,277.24136,729.36377,-84.39994,277.36179,630.5907,-56.06872,166.41183,633.57709
76,0.625,-140.81186,277.51016,729.46356,-84.39994,277.36179,630.5907,-56.77368,166.31953,633.07672
77,0.633,-140.92465,277.24136,729.36377,-84.40655,277.63358,630.75836,-57.14274,165.82187,632.97668
78,0.642,-140.92465,277.24136,729.36377,-84.40655,277.63358,630.75836,-57.14274,165.82187,632.97668
79,0.65,-141.07872,277.25519,729.11914,-84.13559,277.89786,630.91187,-57.14274,165.82187,632.97668
80,0.658,-141.07922,276.15176,729.04913,-84.13559,277.89786,630.91187,-57.14274,165.82187,632.97668
81,0.667,-141.07922,276.15176,729.04913,-84.13559,277.89786,630.91187,-57.14274,165.82187,632.97668
82,0.675,-141.07922,276.15176,729.04913,-84.11613,277.60788,631.29828,-57.14274,165.82187,632.97668
83,0.683,-141.07922,276.15176,729.04913,-84.11613,277.60788,631.29828,-57.1457,165.71642,632.76947
84,0.692,-141.07922,276.15176,729.04913,-84.11613,277.60788,631.29828,-57.36262,165.79413,631.82025
85,0.7,-141.07922,276.15176,729.04913,-84.35963,277.28622,631.38251,-58.27422,165.50545,631.92322
86,0.708,-141.07922,276.15176,729.04913,-84.35302,277.01447,631.2149,-58.27422,165.50545,631.92322
87,0.717,-141.30127,276.24509,728.67743,-84.50493,276.67841,630.70752,-58.05712,165.4277,632.87268
88,0.725,-141.07922,276.15176,729.04913,-84.50493,276.67841,630.70752,-58.05712,165.4277,632.87268
89,0.733,-141.07922,276.15176,729.04913,-84.50493,276.67841,630.70752,-57.1457,165.71642,632.76947
90,0.742,-141.30127,276.24509,728.67743,-84.50493,276.67841,630.70752,-57.1457,165.71642,632.76947
91,0.75,-141.16499,276.15799,728.47217,-84.50493,276.67841,630.70752,-57.14274,165.82187,632.97668
92,0.758,-141.16499,276.15799,728.47217,-84.50493,276.67841,630.70752,-57.14274,165.82187,632.97668
93,0.767,-140.5677,275.85687,728.74951,-84.50493,276.67841,630.70752,-56.76478,165.63319,633.16528
94,0.775,-140.96004,276.06555,728.72845,-84.50493,276.67841,630.70752,-56.76478,165.63319,633.16528
95,0.783,-140.5677,275.85687,728.74951,-84.50493,276.67841,630.70752,-56.76478,165.63319,633.16528
96,0.792,-141.07922,276.15176,729.04913,-84.50493,276.67841,630.70752,-55.4811,165.78706,633.65399
97,0.8,-140.81232,276.40671,729.39349,-84.26145,277,630.62341,-55.11234,166.28485,633.75385
98,0.808,-141.07922,276.15176,729.04913,-84.89583,277.58871,630.41052,-54.9516,166.5782,633.9538
99,0.817,-140.31779,276.13879,729.35455,-84.39994,277.36179,630.5907,-55.32924,166.76678,633.76538
100,0.825,-140.31779,276.13879,729.35455,-84.39994,277.36179,630.5907,-55.52256,167.16722,633.51727
101,0.833,-139.93988,276.63577,729.59137,-84.40655,277.63358,630.75836,-55.49005,166.47342,633.56537
102,0.842,-139.93988,276.63577,729.59137,-84.13559,277.89786,630.91187,-56.06872,166.41183,633.57709
103,0.85,-139.93988,276.63577,729.59137,-84.13559,277.89786,630.91187,-56.22202,165.7261,633.19983
104,0.858,-140.16505,277.20172,729.46204,-84.13559,277.89786,630.91187,-57.14274,165.82187,632.97668
105,0.867,-140.31779,276.13879,729.35455,-83.99711,277.5361,630.94458,-57.14274,165.82187,632.97668
106,0.875,-140.31779,276.13879,729.35455,-83.99711,277.5361,630.94458,-57.14274,165.82187,632.97668
107,0.883,-140.58459,275.88388,729.01025,-83.99711,277.5361,630.94458,-57.14274,165.82187,632.97668
108,0.892,-140.30087,276.11185,729.09387,-83.99711,277.5361,630.94458,-57.14274,165.82187,632.97668
109,0.9,-140.30087,276.11185,729.09387,-83.99711,277.5361,630.94458,-57.14274,165.82187,632.97668
110,0.908,-140.5677,275.85687,728.74951,-83.99711,277.5361,630.94458,-57.1457,165.71642,632.76947
111,0.917,-140.5677,275.85687,728.74951,-83.99711,277.5361,630.94458,-57.14274,165.82187,632.97668
112,0.925,-140.5677,275.85687,728.74951,-83.99052,277.26428,630.77692,-57.1457,165.71642,632.76947
113,0.933,-140.5677,275.85687,728.74951,-84.23399,276.94263,630.86108,-57.14274,165.82187,632.97668
114,0.942,-140.5677,275.85687,728.74951,-84.50493,276.67841,630.70752,-57.14274,165.82187,632.97668
115,0.95,-140.5677,275.85687,728.74951,-84.50493,276.67841,630.70752,-57.14274,165.82187,632.97668
116,0.958,-140.5677,275.85687,728.74951,-84.50493,276.67841,630.70752,-56.76478,165.63319,633.16528
117,0.967,-140.5677,275.85687,728.74951,-84.50493,276.67841,630.70752,-56.76478,165.63319,633.16528
118,0.975,-140.5677,275.85687,728.74951,-84.26145,277,630.62341,-56.76478,165.63319,633.16528
119,0.983,-140.5677,275.85687,728.74951,-84.26145,277,630.62341,-55.8531,166.22382,633.29974
120,0.992,-140.31779,276.13879,729.35455,-84.26145,277,630.62341,-55.11234,166.28485,633.75385
121,1,-140.31779,276.13879,729.35455,-84.39994,277.36179,630.5907,-55.11234,166.28485,633.75385
122,1.008,-140.31779,276.13879,729.35455,-84.39994,277.36179,630.5907,-55.49005,166.47342,633.56537
123,1.017,-140.20502,276.40762,729.45428,-84.39994,277.36179,630.5907,-54.9842,167.27206,633.90564
124,1.025,-140.05234,277.47058,729.56171,-84.13559,277.89786,630.91187,-55.21316,167.21167,633.4267
125,1.033,-140.05234,277.47058,729.56171,-84.13559,277.89786,630.91187,-55.18058,166.5179,633.47479
126,1.042,-140.05234,277.47058,729.56171,-84.13559,277.89786,630.91187,-55.49005,166.47342,633.56537
127,1.05,-139.93988,276.63577,729.59137,-84.13559,277.89786,630.91187,-55.86773,166.66212,633.37695
128,1.058,-139.93988,276.63577,729.59137,-84.2546,277.9696,631.26556,-56.77368,166.31953,633.07672
129,1.067,-140.20502,276.40762,729.45428,-84.11613,277.60788,631.29828,-57.4048,166.57036,632.63934
130,1.075,-140.20502,276.40762,729.45428,-84.11613,277.60788,631.29828,-57.4048,166.57036,632.63934
131,1.083,-140.31779,276.13879,729.35455,-84.11613,277.60788,631.29828,-57.14274,165.82187,632.97668
132,1.092,-140.31779,276.13879,729.35455,-84.11613,277.60788,631.29828,-57.1457,165.71642,632.76947
133,1.1,-140.31779,276.13879,729.35455,-84.11613,277.60788,631.29828,-57.36262,165.79413,631.82025
134,1.108,-140.31779,276.13879,729.35455,-84.11613,277.60788,631.29828,-57.36262,165.79413,631.82025
135,1.117,-140.58459,275.88388,729.01025,-84.11613,277.60788,631.29828,-57.36262,165.79413,631.82025
136,1.125,-140.58459,275.88388,729.01025,-84.11613,277.60788,631.29828,-57.36262,165.79413,631.82025
137,1.133,-140.58459,275.88388,729.01025,-84.10951,277.33615,631.13068,-57.36262,165.79413,631.82025
138,1.142,-140.58459,275.88388,729.01025,-83.99052,277.26428,630.77692,-57.36262,165.79413,631.82025
139,1.15,-140.58459,275.88388,729.01025,-83.99052,277.26428,630.77692,-57.1457,165.71642,632.76947
140,1.158,-140.5677,275.85687,728.74951,-83.99052,277.26428,630.77692,-57.1457,165.71642,632.76947
141,1.167,-140.72572,276.86206,728.53796,-83.99052,277.26428,630.77692,-56.76478,165.63319,633.16528
142,1.175,-140.58459,275.88388,729.01025,-83.99052,277.26428,630.77692,-56.76478,165.63319,633.16528
143,1.183,-140.58459,275.88388,729.01025,-84.26145,277,630.62341,-55.84412,165.53757,633.38843
144,1.192,-140.31779,276.13879,729.35455,-83.99052,277.26428,630.77692,-55.11234,166.28485,633.75385
145,1.2,-140.31779,276.13879,729.35455,-83.99052,277.26428,630.77692,-55.11234,166.28485,633.75385
146,1.208,-140.31779,276.13879,729.35455,-84.26145,277,630.62341,-54.71093,166.63715,633.85339
147,1.217,-139.93988,276.63577,729.59137,-83.99052,277.26428,630.77692,-54.2776,167.54459,634.00812
148,1.225,-140.29872,277.34009,728.82782,-84.12897,277.6261,630.74426,-54.2776,167.54459,634.00812
149,1.233,-139.93988,276.63577,729.59137,-84.12897,277.6261,630.74426,-54.19858,167.79906,634.32501
150,1.242,-140.05234,277.47058,729.56171,-84.13559,277.89786,630.91187,-54.19858,167.79906,634.32501
151,1.25,-139.93988,276.63577,729.59137,-84.13559,277.89786,630.91187,-54.19858,167.79906,634.32501
152,1.258,-140.05234,277.47058,729.56171,-84.13559,277.89786,630.91187,-54.19858,167.79906,634.32501
153,1.267,-140.35464,278.10583,729.65845,-84.13559,277.89786,630.91187,-55.3145,168.25345,633.28955
154,1.275,-140.54663,277.73834,729.60065,-84.2546,277.9696,631.26556,-55.3145,168.25345,633.28955
155,1.283,-140.54663,277.73834,729.60065,-84.13559,277.89786,630.91187,-55.62382,168.20909,633.38007
156,1.292,-139.93988,276.63577,729.59137,-84.13559,277.89786,630.91187,-55.78457,167.91568,633.18005
157,1.3,-139.93988,276.63577,729.59137,-84.13559,277.89786,630.91187,-57.06857,167.76184,632.69122
158,1.308,-139.93988,276.63577,729.59137,-84.13559,277.89786,630.91187,-57.4048,166.57036,632.63934
159,1.317,-140.31779,276.13879,729.35455,-84.13559,277.89786,630.91187,-57.65314,167.00385,632.06049
160,1.325,-140.31779,276.13879,729.35455,-84.2546,277.9696,631.26556,-57.65314,167.00385,632.06049
161,1.333,-140.31779,276.13879,729.35455,-84.2546,277.9696,631.26556,-57.65314,167.00385,632.06049
162,1.342,-141.07922,276.15176,729.04913,-84.11613,277.60788,631.29828,-57.50774,167.04236,631.77893
163,1.35,-140.58459,275.88388,729.01025,-83.99711,277.5361,630.94458,-57.36262,165.79413,631.82025
164,1.358,-140.5677,275.85687,728.74951,-83.99052,277.26428,630.77692,-57.36262,165.79413,631.82025
165,1.367,-140.79936,275.96579,728.52679,-83.99052,277.26428,630.77692,-57.36262,165.79413,631.82025
166,1.375,-140.79936,275.96579,728.52679,-83.99052,277.26428,630.77692,-57.36262,165.79413,631.82025
167,1.383,-140.62494,275.86163,728.36481,-83.99052,277.26428,630.77692,-57.36262,165.79413,631.82025
168,1.392,-140.79936,275.96579,728.52679,-84.26145,277,630.62341,-57.36262,165.79413,631.82025
169,1.4,-140.79936,275.96579,728.52679,-84.26145,277,630.62341,-57.36262,165.79413,631.82025
170,1.408,-141.16499,276.15799,728.47217,-84.26145,277,630.62341,-57.14274,165.82187,632.97668
171,1.417,-141.16499,276.15799,728.47217,-84.26145,277,630.62341,-57.14274,165.82187,632.97668
172,1.425,-141.16499,276.15799,728.47217,-84.26145,277,630.62341,-56.5999,165.91479,633.01129
173,1.433,-141.16499,276.15799,728.47217,-84.39994,277.36179,630.5907,-55.8531,166.22382,633.29974
174,1.442,-141.30127,276.24509,728.67743,-84.39994,277.36179,630.5907,-55.8531,166.22382,633.29974
175,1.45,-141.30127,276.24509,728.67743,-84.89583,277.58871,630.41052,-55.52256,167.16722,633.51727
176,1.458,-141.03429,276.50006,729.02185,-84.89583,277.58871,630.41052,-55.28163,167.55965,633.33771
177,1.467,-141.14658,277.33469,728.99231,-84.89583,277.58871,630.41052,-55.3145,168.25345,633.28955
178,1.475,-140.92465,277.24136,729.36377,-84.89583,277.58871,630.41052,-55.4752,167.96005,633.08954
179,1.483,-141.03374,277.60352,729.0921,-84.90239,277.86047,630.57825,-55.96867,167.70392,633.23987
180,1.492,-140.81186,277.51016,729.46356,-84.89583,277.58871,630.41052,-55.846,168.12534,632.92896
181,1.5,-141.03374,277.60352,729.0921,-84.90239,277.86047,630.57825,-57.06857,167.76184,632.69122
182,1.508,-140.92465,277.24136,729.36377,-84.90239,277.86047,630.57825,-57.03577,167.06804,632.73938
183,1.517,-141.14658,277.33469,728.99231,-84.90239,277.86047,630.57825,-57.65314,167.00385,632.06049
184,1.525,-141.14658,277.33469,728.99231,-84.90239,277.86047,630.57825,-57.65314,167.00385,632.06049
185,1.533,-141.14658,277.33469,728.99231,-84.13559,277.89786,630.91187,-57.65314,167.00385,632.06049
186,1.542,-141.41356,277.07968,728.64783,-84.13559,277.89786,630.91187,-57.65314,167.00385,632.06049
187,1.55,-141.38814,276.22025,728.46582,-84.39994,277.36179,630.5907,-57.50774,167.04236,631.77893
188,1.558,-141.30127,276.24509,728.67743,-84.39994,277.36179,630.5907,-57.50774,167.04236,631.77893
189,1.567,-141.16499,276.15799,728.47217,-84.26145,277,630.62341,-57.50774,167.04236,631.77893
190,1.575,-141.51186,276.02377,728.45831,-84.50493,276.67841,630.70752,-57.37816,165.94026,632.15625
191,1.583,-141.51186,276.02377,728.45831,-84.50493,276.67841,630.70752,-57.14274,165.82187,632.97668
192,1.592,-141.73503,276.08603,728.45197,-84.50493,276.67841,630.70752,-57.14274,165.82187,632.97668
193,1.6,-141.87129,276.17307,728.65723,-84.64342,277.04019,630.67487,-57.14274,165.82187,632.97668
194,1.608,-141.87129,276.17307,728.65723,-84.89583,277.58871,630.41052,-57.14274,165.82187,632.97668
195,1.617,-141.87129,276.17307,728.65723,-85.44697,277.41666,630.58148,-57.03577,167.06804,632.73938
196,1.625,-141.5244,276.30728,728.67108,-85.2033,277.73825,630.49731,-55.86773,166.66212,633.37695
197,1.633,-141.63666,277.14191,728.64148,-85.34011,277.8606,630.41168,-55.62382,168.20909,633.38007
198,1.642,-141.63666,277.14191,728.64148,-85.34011,277.8606,630.41168,-55.3145,168.25345,633.28955
199,1.65,-141.63666,277.14191,728.64148,-85.34011,277.8606,630.41168,-55.62382,168.20909,633.38007
200,1.658,-141.63666,277.14191,728.64148,-85.34011,277.8606,630.41168,-55.31289,168.51627,633.62933
201,1.667,-141.19156,276.98642,729.01941,-85.39838,278.15897,630.08844,-55.31289,168.51627,633.62933
