Frame#,Time,R.Forearm.x,R.Forearm.y,R.Forearm.z,R.Ulna.x,R.Ulna.y,R.Ulna.z,R.Radius.x,R.Radius.y,R.Radius.z
1,0,-36.04012,-323.82642,1013.63055,53.18834,-287.0343,967.54584,35.29523,-182.7683,993.86444
2,0.008,-35.97484,-322.55664,1013.76703,52.85265,-286.28119,967.05212,32.20015,-181.07884,990.53229
3,0.017,-35.43005,-320.77908,1013.77765,51.94364,-283.99756,966.37146,31.90869,-181.89198,989.35754
4,0.025,-34.6382,-319.79242,1012.85144,51.44922,-282.13452,964.96936,30.83221,-180.81645,988.18567
5,0.033,-34.14074,-319.79535,1012.69519,51.03464,-280.2496,962.40265,28.91845,-179.19931,986.6153
6,0.042,-32.93929,-319.20166,1012.73083,51.42639,-280.03403,962.38464,27.63262,-177.00392,984.92804
7,0.05,-33.10132,-318.26364,1011.85162,51.6272,-280.16528,962.22205,27.63402,-177.03046,983.56146
8,0.058,-32.9615,-318.12704,1011.75983,51.20501,-279.27762,962.1618,27.8974,-177.97939,983.1272
9,0.067,-32.66267,-318.3378,1012.03583,51.09225,-279.47064,962.00787,27.8974,-177.97939,983.1272
10,0.075,-32.94725,-317.95279,1011.328,51.23869,-280.60895,962.00873,28.20234,-178.23055,983.36743
11,0.083,-33.08012,-318.55783,1011.75946,51.51985,-280.45697,962.12054,29.00437,-178.73077,984.63629
12,0.092,-33.36497,-319.25229,1011.64551,51.23869,-280.60895,962.00873,29.7093,-179.41002,984.72534
13,0.1,-33.26336,-320.22501,1011.46631,52.61,-281.74231,962.46185,31.41467,-181.14339,987.37427
14,0.108,-33.7918,-320.47714,1010.77649,53.66316,-283.37427,963.16187,34.91663,-183.37543,989.09827
15,0.117,-33.4491,-321.04303,1010.40588,54.25317,-284.95074,963.28387,36.23096,-184.33092,990.5047
16,0.125,-33.98783,-321.95886,1009.98938,55.09938,-286.58173,963.4071,39.97578,-187.48344,992.34515
17,0.133,-33.76685,-324.03918,1009.39746,56.90818,-288.92377,963.21173,42.24745,-188.62332,993.94708
18,0.142,-32.87548,-325.33176,1009.37842,56.44272,-289.41617,963.18164,42.38539,-188.23904,995.74762
19,0.15,-32.66523,-325.66714,1009.55829,58.03156,-291.31824,963.4126,45.03867,-193.73114,998.52667
20,0.158,-32.70582,-326.52582,1009.69623,59.23201,-292.32031,966.17169,45.44929,-193.99463,998.96637
21,0.167,-32.82676,-326.55054,1009.62927,59.03465,-292.48187,966.36255,45.57537,-193.98001,999.26776
22,0.175,-33.24295,-326.68658,1009.79907,58.66927,-292.6586,966.82886,45.24286,-193.55426,999.14838
23,0.183,-33.84293,-326.47614,1010.03906,58.8429,-292.45239,967.16888,45.04292,-193.33302,999.02606
24,0.192,-34.35898,-325.70776,1010.53833,58.57397,-290.72385,967.40265,43.50662,-189.98442,996.60687
25,0.2,-34.5457,-324.9035,1011.58228,56.1907,-288.21243,966.51227,42.2863,-188.00211,994.92725
26,0.208,-34.77836,-323.57288,1011.43359,56.2737,-287.18536,966.24524,38.59524,-186.55096,993.43823
27,0.217,-33.88419,-321.54633,1011.07446,55.52073,-285.91263,966.28461,36.23096,-184.33092,990.5047
28,0.225,-33.70377,-320.97202,1011.16986,53.58413,-283.29816,963.40485,33.58753,-181.82677,989.10034
29,0.233,-33.01433,-320.13358,1011.99384,51.91381,-280.61099,962.2204,31.25621,-180.56691,987.12018
30,0.242,-32.80465,-317.62518,1010.99249,52.34942,-279.76974,962.0849,28.61712,-177.63173,984.14117
31,0.25,-31.81701,-316.6199,1010.95526,51.98975,-278.53137,961.73761,29.07386,-176.74765,983.38409
32,0.258,-31.81227,-315.71664,1010.63049,51.96333,-277.89883,960.60718,27.0027,-175.74994,981.37488
33,0.267,-31.51278,-315.63336,1011.03497,50.88017,-276.39435,959.35284,25.83243,-174.79245,980.35663
34,0.275,-32.64954,-315.39438,1009.79724,50.23824,-276.32953,958.66223,25.30288,-174.98477,980.41571
35,0.283,-32.09183,-315.91473,1009.8056,50.27919,-277.03867,958.86597,24.93727,-175.80429,980.5285
36,0.292,-32.69236,-317.38232,1009.00659,50.74725,-277.81653,958.83429,26.1532,-176.77559,981.17883
37,0.3,-33.11782,-317.83829,1008.32825,51.98576,-280.22699,960.13586,28.01883,-178.01697,982.14661
38,0.308,-33.072,-318.95978,1007.48352,51.74631,-280.7449,960.05365,29.28148,-179.10391,983.40082
39,0.317,-33.18838,-320.112,1007.28839,52.1834,-281.05954,959.83478,31.56941,-181.18427,987.20813
40,0.325,-33.95221,-321.56796,1007.08783,54.64999,-284.12503,960.38788,35.22735,-183.83009,988.06665
41,0.333,-32.94285,-322.40973,1006.82043,55.69293,-286.01178,960.26111,38.78514,-186.05142,990.78821
42,0.342,-32.84466,-323.18497,1006.6319,55.94711,-286.68784,959.89307,41.58455,-187.60156,992.12927
43,0.35,-32.19984,-324.15244,1006.39233,57.56016,-289.44415,961.35352,45.3227,-190.75529,993.97107
44,0.358,-31.5083,-325.75604,1006.37152,57.68802,-291.19272,960.84503,46.95253,-194.11285,996.32239
45,0.367,-32.18869,-327.43036,1007.82129,58.63112,-292.40222,962.14899,47.90088,-192.0677,995.00018
46,0.375,-31.67842,-326.92853,1008.41656,58.89786,-292.84607,962.53784,47.90088,-192.0677,995.00018
47,0.383,-31.80849,-326.63052,1009.14893,59.19809,-292.51465,962.93243,47.56386,-192.02092,995.29193
48,0.392,-31.80849,-326.63052,1009.14893,59.42976,-291.24734,963.04382,45.46283,-190.84637,994.27704
49,0.4,-32.64835,-325.90393,1009.43042,58.33343,-289.66479,962.61127,43.54259,-189.70863,993.79999
50,0.408,-32.63871,-324.05261,1008.95862,56.93182,-286.7691,962.79089,41.58455,-187.60156,992.12927
51,0.417,-32.86885,-322.29865,1008.95966,56.81573,-285.04453,962.30054,38.55626,-183.76836,989.3988
52,0.425,-32.42308,-320.92548,1009.38281,55.34847,-282.90286,962.00751,35.90382,-181.6588,987.25659
53,0.433,-32.44123,-320.28137,1009.47388,54.09663,-280.67282,961.6601,34.02055,-178.56575,984.79126
54,0.442,-31.55885,-318.58725,1009.90674,53.14272,-279.42636,960.95337,29.95272,-177.38591,983.58875
55,0.45,-31.10307,-316.98337,1009.75433,53.89088,-277.07565,961.34637,28.44456,-175.90387,981.50574
56,0.458,-31.89668,-314.97446,1008.18414,52.68424,-274.40359,959.66223,26.7898,-174.32112,980.44043
57,0.467,-30.53429,-314.29608,1009.19824,52.18516,-273.68759,958.93384,24.89996,-173.00325,978.70911
58,0.475,-31.11498,-314.34442,1007.94666,52.19446,-273.55508,958.73291,23.7387,-172.97696,978.80164
59,0.483,-31.50981,-314.40628,1007.50702,51.62265,-273.68011,958.6637,23.7387,-172.97696,978.80164
60,0.492,-33.01888,-315.29446,1006.35718,51.90472,-274.37534,959.2403,24.05069,-173.6106,980.26434
61,0.5,-33.29724,-315.33752,1006.39777,51.72875,-274.67007,959.27081,25.86683,-173.81026,982.13879
62,0.508,-33.9699,-316.02087,1006.45905,52.8805,-276.36667,960.44403,27.55894,-175.04126,983.68591
63,0.517,-34.14466,-317.18893,1006.09521,52.99348,-279.14557,960.50757,30.07396,-176.7744,984.76117
64,0.525,-33.69894,-319.92322,1005.63049,53.75843,-279.96429,960.14752,33.23969,-179.56488,987.19843
65,0.533,-33.63138,-320.68268,1005.35681,55.62329,-282.8858,961.24274,36.07921,-182.58031,989.40997
66,0.542,-34.07015,-321.41782,1005.11096,56.06301,-284.49683,960.60962,39.20602,-186.29366,991.75201
67,0.55,-33.78075,-322.38321,1006.20575,56.31886,-285.99783,961.14124,42.09902,-187.51033,992.63019
68,0.558,-33.45959,-323.42017,1005.35956,58.34108,-288.26981,962.5246,43.98083,-190.04572,994.67505
69,0.567,-33.51886,-325.98557,1005.76685,58.73818,-290.89374,962.67542,47.2337,-190.96637,995.755
70,0.575,-33.56721,-326.4837,1006.21399,59.48651,-291.9747,963.47876,47.62856,-191.65123,995.94537
71,0.583,-33.03962,-327.31241,1009.28186,59.27769,-292.36722,964.63831,47.84159,-193.24913,997.00726
72,0.592,-33.5723,-326.85544,1008.95721,58.22419,-292.19412,966.15118,44.87376,-190.38785,996.81244
73,0.6,-34.96826,-326.11932,1010.31195,58.1108,-292.47192,966.42548,44.33931,-190.50636,995.25208
74,0.608,-35.35452,-325.29477,1010.29108,57.53318,-290.19589,967.32947,42.58583,-188.10538,994.56549
75,0.617,-36.22767,-323.9447,1010.6142,55.4463,-287.58017,966.68414,39.97578,-187.48344,992.34515
76,0.625,-35.87807,-322.29593,1010.74609,55.10101,-286.97305,966.37903,36.23096,-184.33092,990.5047
77,0.633,-35.50563,-321.10019,1011.47345,53.99072,-284.33875,965.12762,33.67205,-182.08955,988.9754
78,0.642,-35.36055,-319.8129,1011.72028,51.99628,-280.72922,963.3399,31.10979,-180.83934,987.96503
79,0.65,-34.86682,-318.30872,1011.59491,51.13743,-279.96173,962.52209,28.09076,-177.24689,985.13965
80,0.658,-34.6625,-315.14001,1011.22778,49.9904,-278.08627,962.50378,26.42411,-175.51083,984.65302
81,0.667,-34.90968,-314.68045,1011.16937,49.07647,-276.07617,961.91443,23.32763,-173.70776,982.81281
82,0.675,-34.68404,-314.06577,1010.94141,48.96833,-274.36319,962.02423,23.17687,-173.57281,983.31403
83,0.683,-34.8932,-313.73758,1010.64563,48.66018,-274.29614,962.02722,21.9202,-173.04359,982.85736
84,0.692,-35.39085,-313.61267,1010.62549,48.91294,-273.84378,962.4129,20.81455,-173.23082,983.48132
85,0.7,-34.84886,-313.84412,1011.49774,48.15538,-274.52151,962.61133,18.73061,-172.55038,983.05701
86,0.708,-35.39822,-314.79129,1011.17706,48.44038,-274.59784,962.49158,22.63334,-174.17126,984.81323
87,0.717,-36.68535,-315.25714,1010.11353,49.60291,-276.49622,963.15472,24.97243,-175.94685,985.48016
88,0.725,-36.63393,-316.59573,1009.50861,50.30822,-277.66809,963.29822,27.78624,-176.08287,987.88702
89,0.733,-36.72702,-318.0181,1009.93042,52.15565,-279.3902,963.83527,31.07353,-178.53114,991.46417
90,0.742,-36.59541,-318.35663,1009.3457,52.66021,-280.85287,964.3985,34.34948,-181.45255,993.44818
91,0.75,-36.5519,-320.11188,1009.14087,56.38691,-284.26462,965.5495,37.60663,-183.94246,995.66577
92,0.758,-35.43445,-320.50314,1009.08972,57.55085,-285.82178,966.47479,41.43295,-186.54167,998.08929
93,0.767,-34.38506,-321.48679,1009.19934,58.30565,-286.89758,966.6192,44.08903,-189.12656,1000.09564
94,0.775,-33.6482,-322.40161,1009.82556,58.59201,-288.1781,967.3902,46.3045,-189.63849,1000.3006
95,0.783,-33.50352,-323.4086,1009.96057,58.84665,-289.17133,967.30701,47.78258,-191.36804,1001.61926
96,0.792,-33.78096,-323.26389,1010.13464,58.58762,-290.02454,968.68109,47.42379,-190.32019,1000.86121
97,0.8,-34.73883,-322.56024,1010.46594,58.49267,-288.92999,969.11523,46.77605,-189.81644,999.71014
98,0.808,-34.4372,-321.62103,1011.13062,58.41291,-288.064,968.70093,45.05714,-189.74236,999.92047
99,0.817,-35.44171,-320.91522,1010.73596,58.18542,-286.26553,967.81262,42.82651,-184.69867,996.11188
100,0.825,-35.19246,-320.24747,1011.23456,57.9913,-285.18204,968.19598,39.39362,-180.39424,994.36237
101,0.833,-35.62907,-319.0748,1011.55231,55.97431,-282.16348,967.8327,37.04341,-180.55916,992.80029
102,0.842,-34.59302,-316.84912,1011.64282,54.8569,-279.72147,965.85321,35.30077,-178.65701,990.25116
103,0.85,-34.13776,-315.04141,1011.48053,53.02308,-277.45978,963.18866,32.21382,-174.96819,987.4809
104,0.858,-33.8901,-313.8078,1011.27155,52.26606,-274.36826,962.55334,28.50195,-172.59917,984.88281
105,0.867,-33.76946,-313.36536,1010.63599,51.33559,-273.46555,961.77246,27.12982,-171.12422,983.65466
106,0.875,-33.53106,-311.87317,1009.97638,50.14332,-271.46719,960.21313,24.41907,-169.81825,982.36371
107,0.883,-33.12578,-310.93576,1009.97711,49.13406,-270.48175,959.37402,22.36672,-167.95813,981.12671
108,0.892,-34.39623,-311.30603,1009.52277,48.21267,-269.51886,958.83093,20.786,-168.69952,980.55487
109,0.9,-35.62857,-310.13208,1009.12195,47.87674,-269.76892,958.43915,20.786,-168.69952,980.55487
110,0.908,-36.72345,-310.73801,1007.59894,48.10377,-270.71622,958.61731,20.73276,-168.83691,980.33185
111,0.917,-36.81222,-313.12506,1006.00079,48.18876,-271.24939,958.24579,21.68949,-170.24838,981.61133
112,0.925,-36.45122,-313.69931,1005.22559,49.20295,-272.54324,958.62183,23.72638,-172.01273,982.58282
113,0.933,-36.0051,-314.55167,1004.66583,50.29488,-274.68228,958.44946,24.87759,-174.4585,984.20593
114,0.942,-36.16634,-314.91577,1003.99188,50.82361,-276.78705,958.48627,29.29141,-176.09351,985.22662
115,0.95,-36.84892,-316.62933,1003.29645,53.18916,-280.19513,959.08386,31.42395,-176.05653,987.76923
116,0.958,-36.51782,-317.45377,1002.72803,54.68609,-280.87872,958.74823,34.54625,-179.27452,989.50146
117,0.967,-35.83989,-318.46445,1002.50757,56.54968,-282.99969,958.26349,40.27634,-184.24219,991.15741
118,0.975,-34.92463,-320.89926,1002.20557,57.3921,-284.87881,959.68475,42.89275,-186.157,991.77625
119,0.983,-34.24517,-321.97818,1000.83228,57.72674,-286.18289,959.72424,46.59627,-189.32561,994.90277
120,0.992,-34.36088,-322.31989,1000.78748,59.46488,-287.33023,959.51593,46.96975,-189.00192,993.46661
121,1,-34.40046,-322.58398,1001.09387,60.35952,-288.21533,960.60175,47.04448,-189.26051,993.29962
122,1.008,-34.49986,-322.56445,1001.73639,59.7737,-288.21292,961.3078,46.90441,-189.1693,992.99335
123,1.017,-34.11648,-322.22171,1002.68793,59.22209,-288.09106,961.4256,46.13669,-187.9789,992.39978
124,1.025,-34.36962,-321.66199,1003.30231,57.71902,-285.4147,960.93695,41.88426,-183.38364,990.77856
125,1.033,-36.02405,-319.86026,1002.9978,57.34129,-284.73868,960.28168,40.87716,-183.66302,988.8573
126,1.042,-35.97753,-318.54767,1003.32178,56.51204,-282.75247,960.51532,38.39605,-181.1864,987.39722
127,1.05,-35.92033,-316.67194,1003.23492,54.54832,-279.93857,958.74005,34.7144,-178.42114,984.99451
128,1.058,-34.85985,-315.04373,1003.86731,52.91435,-276.86591,956.396,30.61389,-172.11926,982.04657
129,1.067,-34.86171,-314.45938,1003.80927,52.59666,-274.68408,956.06702,28.76639,-172.83844,980.19098
130,1.075,-33.23658,-312.65811,1004.03705,51.4848,-271.93597,955.36926,25.60277,-170.81575,979.17212
131,1.083,-34.5167,-311.49155,1002.82562,50.47371,-270.38828,954.41687,24.00933,-170.27863,977.97119
132,1.092,-34.75621,-311.21359,1002.86877,49.51276,-268.12622,953.74323,22.05899,-168.5603,978.3103
133,1.1,-34.62875,-310.15302,1003.01038,48.24237,-268.2421,954.38287,20.27695,-168.73447,978.62335
134,1.108,-36.22875,-310.29303,1002.6402,47.31598,-268.38876,954.66296,18.20254,-169.11676,979.42877
135,1.117,-37.6841,-311.00818,1002.2309,47.1521,-269.11505,955.45618,18.15739,-169.10246,979.79736
136,1.125,-37.16098,-311.79785,1001.69727,47.39904,-270.36139,956.67993,18.87593,-169.51215,980.53979
137,1.133,-37.59339,-313.00198,1001.41199,48.11074,-271.42462,956.67285,21.43394,-170.72964,981.97363
138,1.142,-38.17992,-314.36853,1000.41852,48.60897,-272.68842,957.12604,23.53901,-173.68173,984.04602
139,1.15,-38.10099,-314.98856,1000.47333,50.40855,-274.0376,958.23206,26.58394,-176.15646,985.9325
140,1.158,-37.85243,-317.35333,999.99792,50.71296,-276.69745,958.14661,30.61005,-180.2426,989.36212
141,1.167,-37.53513,-317.90439,999.716,53.30472,-279.91281,959.02576,34.55308,-180.9261,990.5174
142,1.175,-37.04417,-319.39307,999.29913,55.01542,-281.30099,959.21179,35.97049,-182.16328,993.65753
143,1.183,-36.85295,-320.84549,999.19989,56.77617,-284.82852,960.32892,40.66057,-185.35919,994.02942
144,1.192,-35.48155,-322.1969,999.7547,57.26794,-285.60611,960.03973,42.92452,-187.58894,995.185
145,1.2,-35.39872,-322.66269,1000.17657,57.59909,-286.81525,961.06549,43.98293,-189.20164,996.04193
146,1.208,-35.82745,-323.16235,1000.62927,58.27646,-288.29727,961.68286,44.99395,-189.33917,995.16376
147,1.217,-36.01888,-322.79425,1000.64374,58.21621,-288.48303,962.12744,44.19455,-188.83411,994.42242
148,1.225,-36.85757,-322.68677,1001.7428,57.65609,-287.93689,962.54718,42.89569,-188.55803,993.53552
149,1.233,-37.02009,-321.84729,1002.48096,57.1081,-286.06808,962.47589,41.32653,-187.10381,992.08508
150,1.242,-38.11384,-320.24622,1002.80011,56.60957,-284.54385,962.01788,38.72196,-184.30493,989.69855
151,1.25,-39.32112,-318.66269,1002.88403,55.30559,-282.91364,962.02228,35.27573,-181.17715,988.69366
152,1.258,-37.72087,-317.92154,1003.61041,53.2334,-279.84583,960.51111,33.80401,-178.27269,985.38489
153,1.267,-36.72012,-316.13937,1003.0791,52.27659,-276.42474,957.86359,29.71819,-176.40166,984.55939
154,1.275,-35.67726,-314.34158,1002.88849,50.51814,-274.31531,957.02246,27.7594,-174.14188,981.97217
155,1.283,-37.72153,-312.90433,1001.91455,49.0879,-272.23605,955.60272,25.75835,-171.52705,980.41168
156,1.292,-37.61133,-311.15948,1002.00653,48.4135,-270.23938,953.56464,22.42041,-170.24419,979.67792
157,1.3,-36.67077,-309.44177,1001.66248,46.95905,-268.23184,952.06818,20.27695,-168.73447,978.62335
158,1.308,-37.12149,-308.82074,1000.46967,46.6174,-267.90738,952.21552,17.61048,-168.82845,978.24609
159,1.317,-38.22723,-309.33496,999.87683,45.5367,-266.61417,952.3797,16.60754,-167.43877,977.91168
160,1.325,-39.58386,-310.46371,999.01971,45.17657,-267.11652,952.32715,16.32788,-167.5795,977.31726
161,1.333,-39.84349,-310.7128,998.36737,44.88993,-268.01541,952.43756,16.20563,-167.95738,977.38342
162,1.342,-39.69017,-311.17444,997.72858,45.20214,-268.82996,953.25848,17.70324,-169.85179,978.94769
163,1.35,-40.84044,-312.59277,996.16516,46.0121,-270.1409,953.78876,18.01828,-169.92706,978.30298
164,1.358,-40.42339,-313.67859,995.54553,46.70853,-273.19934,954.65955,21.94944,-171.65337,979.39508
165,1.367,-40.36613,-315.46143,994.46619,48.40164,-275.15311,954.12744,25.3384,-175.01231,980.98242
166,1.375,-41.0318,-317.27444,993.36993,50.05193,-278.23233,954.62982,29.25436,-176.69539,981.65436
167,1.383,-40.10328,-318.05957,992.82324,52.11188,-280.3949,952.80621,33.84933,-179.59862,982.67432
168,1.392,-38.57175,-319.53494,991.38409,54.22682,-282.40604,952.1521,37.46138,-183.42506,984.52063
169,1.4,-38.25881,-321.42307,990.95013,55.37975,-285.13217,952.84991,41.58293,-186.78981,985.94135
170,1.408,-36.96904,-322.58255,990.74188,57.30857,-287.20828,952.29626,45.42278,-187.10167,986.32849
171,1.417,-36.69224,-322.63226,990.54486,58.43836,-288.48395,951.435,47.23306,-189.39348,986.37811
172,1.425,-36.42699,-323.39764,991.18414,59.71078,-289.25134,950.77753,49.51534,-190.17508,984.67004
173,1.433,-35.61209,-322.86841,991.07074,59.60744,-288.61414,950.01361,49.91101,-190.12315,983.85669
174,1.442,-35.17728,-322.28159,991.39093,59.60744,-288.61414,950.01361,48.80661,-188.34972,980.98199
175,1.45,-35.90986,-321.58405,990.8728,59.55297,-288.70633,949.84338,47.98193,-185.52274,979.39142
176,1.458,-34.50457,-319.3118,990.62738,58.09381,-286.58786,948.90375,42.95631,-182.21176,977.58105
177,1.467,-34.9604,-318.25488,990.55353,58.20476,-283.78564,947.49469,41.95996,-181.49661,975.45807
178,1.475,-34.87391,-316.87561,991.32489,55.96037,-280.62082,946.39575,38.35928,-179.61131,973.26837
179,1.483,-34.2332,-314.72699,990.98627,55.16141,-278.79861,945.07733,35.53586,-177.55254,971.72968
180,1.492,-33.59466,-313.28207,990.67889,52.33214,-275.04333,942.55042,32.48189,-174.30453,969.90277
181,1.5,-33.92438,-311.95117,990.56134,51.95288,-271.70074,942.06696,29.65202,-172.20979,968.52112
182,1.508,-34.63532,-310.74768,990.35413,51.17908,-271.13263,941.91168,25.03808,-170.40494,967.82562
183,1.517,-35.08615,-310.25897,990.17822,48.95537,-267.9166,942.44312,23.78024,-168.93661,968.58813
184,1.525,-35.31662,-309.81854,990.05725,48.42633,-267.78683,943.1311,21.02409,-167.86189,969.11261
185,1.533,-36.42482,-310.2261,989.6272,47.55522,-266.82739,943.6355,18.80969,-166.34174,968.39551
186,1.542,-37.40597,-310.51797,989.29095,46.695,-267.76694,944.41388,17.60737,-167.9017,970.88489
187,1.55,-39.39375,-312.27142,989.72784,46.40956,-268.05133,944.77228,18.01944,-169.14734,971.974
188,1.558,-40.25007,-312.7049,988.80072,46.51184,-268.65359,944.95624,19.13132,-168.95523,972.02142
189,1.567,-39.9379,-313.37857,988.26941,47.16686,-270.34387,946.04053,21.39822,-171.34813,974.53601
190,1.575,-39.94571,-314.91742,987.56384,49.31675,-272.58405,947.90106,25.39866,-172.93881,976.94446
191,1.583,-39.91102,-315.82428,986.44482,50.93132,-274.76685,948.58319,28.8248,-175.2697,978.88031
192,1.592,-40.05427,-318.26935,985.47876,52.38289,-276.9472,948.35724,33.15976,-178.76732,981.38348
193,1.6,-39.42859,-318.46545,984.22717,54.13412,-279.9881,947.25195,36.87068,-180.49559,982.51215
194,1.608,-38.33492,-319.20743,984.59015,55.67685,-280.35037,946.42389,40.206,-182.6035,983.38336
195,1.617,-37.55492,-319.69525,984.55463,57.87497,-282.57019,947.00793,44.6115,-185.08655,984.52893
196,1.625,-36.13839,-322.14548,984.38397,59.19335,-285.5849,946.21454,48.01681,-187.69058,986.18225
197,1.633,-34.01803,-321.70007,983.52551,60.98335,-286.04556,945.90546,50.13533,-189.08131,985.59729
198,1.642,-33.7552,-321.94833,983.87427,61.65971,-286.43411,946.84167,50.77111,-190.82805,985.53387
