Frame#,Time,L.Forearm.x,L.Forearm.y,L.Forearm.z,L.Ulna.x,L.Ulna.y,L.Ulna.z,L.Radius.x,L.Radius.y,L.Radius.z
1,0,-105.1039,393.21814,855.28723,-14.31641,365.05289,814.34918,22.40566,318.03336,892.85175
2,0.008,-104.52854,393.01617,854.77289,-12.21212,366.44727,812.95874,23.97212,319.15384,890.87225
3,0.017,-103.46869,393.17862,854.28552,-11.08588,367.45557,812.18542,26.15069,320.15173,889.21106
4,0.025,-102.65804,393.8078,853.91296,-10.17896,368.97543,811.20441,29.89672,323.06241,889.08002
5,0.033,-100.7777,393.95923,853.586,-10.38879,369.19205,811.4538,30.85393,323.93808,888.31958
6,0.042,-99.65233,394.99951,853.7851,-8.88348,370.4104,809.81207,31.16788,324.06079,885.61334
7,0.05,-98.65292,395.71487,853.93561,-8.0835,370.94543,809.48718,31.75147,323.98651,884.11835
8,0.058,-98.03091,395.54129,853.82709,-7.65352,370.953,809.43793,32.30113,323.05249,884.16205
9,0.067,-97.75507,395.40945,853.68451,-6.54233,372.67612,809.51819,33.57532,323.06961,884.1098
10,0.075,-97.58368,394.28189,853.72058,-7.18417,372.33716,809.94012,32.44379,321.79947,883.47351
11,0.083,-97.30874,393.19321,853.61438,-6.7262,371.9776,809.32721,32.44379,321.79947,883.47351
12,0.092,-97.41653,392.82544,853.71912,-7.5647,371.45114,809.28809,30.8733,318.53983,882.18225
13,0.1,-97.51226,392.22925,854.12384,-8.5401,370.14166,809.10962,30.0644,315.6745,881.37805
14,0.108,-97.67569,391.86334,854.22296,-9.08709,368.91028,808.64154,29.41366,314.06189,881.67236
15,0.117,-97.96214,391.01743,853.62274,-9.35112,368.38562,807.86212,27.99035,311.93671,881.33185
16,0.125,-98.92269,390.48978,853.43896,-10.07961,366.64423,807.58081,25.77958,309.0603,881.33679
17,0.133,-99.46453,390.27411,853.59698,-11.62466,364.87283,806.9881,23.1955,306.31348,880.3114
18,0.142,-100.15105,390.04721,853.31958,-12.39712,363.88351,806.69177,22.30079,305.8251,880.51917
19,0.15,-101.30452,389.49478,852.56097,-13.49716,362.38663,806.54053,20.47521,304.74521,880.44061
20,0.158,-102.14954,389.22049,852.32489,-13.75543,362.19748,806.93103,20.37833,303.99579,879.90051
21,0.167,-102.79427,389.10815,851.91803,-14.94424,361.40076,806.60492,19.49468,303.6098,880.51624
22,0.175,-103.42642,389.28986,851.77094,-16.64915,360.50891,806.86725,17.61488,304.68655,882.06458
23,0.183,-105.32693,388.51962,851.62146,-18.17869,359.60477,807.00317,18.39672,305.02985,882.72797
24,0.192,-106.60903,387.84048,850.91956,-18.20469,359.66458,807.20349,18.25196,306.40479,883.60455
25,0.2,-107.74186,387.82242,850.68842,-18.39145,359.78888,807.36127,18.76115,306.71063,884.39917
26,0.208,-108.1917,388.21249,850.55536,-18.63879,360.22696,807.79388,16.70204,309.25568,885.4798
27,0.217,-108.54038,388.27628,850.53583,-18.63526,360.52325,808.01819,17.14231,310.41251,885.90051
28,0.225,-109.07301,388.95645,850.21399,-18.08651,361.15298,808.86096,18.37486,311.79889,887.03461
29,0.233,-109.17752,388.82211,850.04395,-17.67035,361.6817,808.82281,18.58544,313.07214,887.3197
30,0.242,-108.47014,388.62747,849.52209,-17.2928,362.24594,808.81708,18.97667,313.92947,887.44617
31,0.25,-107.94687,389.30771,849.74927,-16.5049,362.49088,808.61902,22.06579,316.96442,887.82562
32,0.258,-106.89362,389.75775,850.04913,-14.91317,362.90161,808.18347,22.13384,316.78827,887.06757
33,0.267,-105.23943,390.85156,850.24451,-14.22652,363.39462,807.71844,23.87511,318.53339,885.6994
34,0.275,-104.38985,391.41589,850.771,-13.43024,364.94543,807.46173,24.87701,318.69116,885.08411
35,0.283,-103.78996,391.64276,850.89465,-12.46296,366.14761,807.06287,26.30692,320.04904,883.84827
36,0.292,-102.54905,391.99326,850.61182,-11.81933,367.31393,807.18011,27.12172,319.76938,883.93842
37,0.3,-102.02783,391.7157,850.98535,-10.88839,368.44174,807.48712,28.34627,319.67157,883.57745
38,0.308,-101.3396,391.78247,851.05426,-10.34176,369.16537,807.93225,28.49267,319.73663,883.49817
39,0.317,-100.80215,391.41428,851.42249,-10.34176,369.16537,807.93225,28.30112,318.74426,882.75336
40,0.325,-100.58405,390.90564,850.85236,-10.01513,369.00647,807.85724,28.11448,315.85617,882.53589
41,0.333,-100.72065,391.18152,851.79199,-9.74825,368.78662,807.54108,28.28495,314.51855,882.53516
42,0.342,-100.67473,390.87607,851.97839,-9.68503,368.5108,807.68579,26.79279,311.71823,881.17413
43,0.35,-100.08498,390.10544,852.05615,-10.47091,367.29224,807.04401,25.3944,310.4545,881.10425
44,0.358,-99.67844,389.436,852.34253,-10.22756,365.87491,806.20569,25.433,308.97549,881.49567
45,0.367,-100.22681,389.34085,852.46075,-11.60125,363.67731,806.20612,23.9148,306.96729,880.36823
46,0.375,-100.91267,389.23737,852.01947,-12.40057,363.59494,806.68372,21.76656,305.06198,880.10437
47,0.383,-101.83565,389.03302,851.98016,-12.47384,363.14716,806.01898,21.58807,305.76584,880.40692
48,0.392,-101.83565,389.03302,851.98016,-13.35828,361.97397,806.17401,20.48483,304.66022,879.77246
49,0.4,-102.32156,388.86038,851.83466,-13.53212,362.0303,806.19904,19.85384,304.17374,880.40601
50,0.408,-102.32156,388.86038,851.83466,-14.90819,361.66281,805.93048,19.06322,304.41382,880.30249
51,0.417,-103.61781,388.86713,850.90533,-16.04088,360.62967,805.60712,18.40273,304.91898,880.59009
52,0.425,-104.92601,388.12552,850.2832,-17.19716,360.20892,805.75409,18.40273,304.91898,880.59009
53,0.433,-105.70724,387.7309,848.84717,-17.82827,360.32553,806.17902,20.67923,306.9343,881.51025
54,0.442,-106.72231,388.155,849.12805,-17.95528,360.32837,806.23688,18.33384,306.97812,882.28998
55,0.45,-107.26258,387.74878,848.79761,-18.04045,360.56067,806.11151,19.27946,310.47171,882.34125
56,0.458,-107.70216,387.70313,848.58948,-18.04045,360.56067,806.11151,19.83337,312.11462,883.13434
57,0.467,-107.70458,387.76138,848.1676,-18.04045,360.56067,806.11151,20.21536,312.10443,883.35541
58,0.475,-107.34827,388.51703,848.08344,-17.53954,361.33646,806.27942,21.00398,313.36508,883.27924
59,0.483,-106.87727,388.95892,848.17151,-16.83624,362.06952,806.05133,22.60224,315.36111,883.3667
60,0.492,-105.90376,389.89261,848.59662,-16.13686,362.12677,806.03339,23.36106,316.72458,884.00214
61,0.5,-105.7026,390.65369,848.34473,-15.16232,362.31372,806.09894,23.5145,317.22626,883.39301
62,0.508,-104.60406,391.40738,848.60718,-14.25058,363.55234,805.76563,25.43814,319.05389,882.66431
63,0.517,-103.94278,391.53998,848.59674,-13.63736,364.92285,805.44135,26.25384,319.47983,882.35815
64,0.525,-103.85387,391.28934,848.90613,-12.73134,364.91925,805.60645,26.70573,319.92392,882.61951
65,0.533,-103.34175,390.77853,849.02704,-12.15389,365.63138,805.65704,27.29658,319.10641,881.646
66,0.542,-102.88426,390.616,848.88312,-11.8936,366.97647,805.66071,27.7606,317.73615,880.72699
67,0.55,-102.22865,390.16675,848.8476,-11.85587,367.67484,806.05182,29.71935,317.50305,880.34558
68,0.558,-101.55981,389.95483,848.30096,-11.90408,367.77408,805.97266,28.24185,314.12411,878.93756
69,0.567,-100.37289,390.16333,848.98462,-10.86741,366.95416,804.48596,27.63027,312.86234,877.9754
70,0.575,-100.25132,390.07376,848.8233,-10.54297,366.73392,804.05426,27.56293,312.6449,877.27148
71,0.583,-99.53838,389.75592,848.84174,-10.674,366.14508,803.72644,26.71875,310.74365,876.13916
72,0.592,-99.27325,388.51035,848.92236,-10.91195,365.23892,802.89874,26.75154,308.02521,875.74945
73,0.6,-99.3253,388.06845,848.70361,-10.98369,364.49323,802.53613,26.04856,307.35883,874.8576
74,0.608,-99.49725,387.78986,848.66418,-11.07093,363.70819,801.93433,26.0289,306.66385,874.28833
75,0.617,-99.4506,387.32837,848.33649,-11.29437,363.40921,800.90607,24.66087,306.13449,874.00012
76,0.625,-100.13028,387.19333,847.5434,-12.69494,361.49973,800.89978,23.039,305.20847,873.83087
77,0.633,-101.57253,386.51044,847.14325,-13.1527,360.57938,800.78448,22.60956,305.36371,874.20343
78,0.642,-101.95372,386.66879,847.20886,-13.84552,360.06055,800.31793,21.88072,305.83548,874.71802
79,0.65,-102.60117,386.35153,846.96692,-15.1493,360.05438,800.60748,21.54465,306.49512,875.43719
80,0.658,-103.79762,386.55048,846.98785,-15.44055,360.21146,800.72943,23.96464,307.55209,875.81879
81,0.667,-104.96459,385.8476,846.72479,-16.11916,360.30258,800.79468,22.33996,308.14496,876.81122
82,0.675,-106.1966,385.7998,846.69055,-17.25785,360.23398,801.18109,22.35069,309.34726,877.4986
83,0.683,-106.47607,385.84796,846.49304,-17.94106,360.4122,801.40161,22.03532,310.86185,877.8045
84,0.692,-106.975,385.56821,846.02313,-17.99896,360.10065,801.6095,21.57085,311.44278,879.07233
85,0.7,-107.2314,386.06808,846.45245,-17.58748,360.08203,802.23041,21.02172,311.66418,879.22369
86,0.708,-107.2314,386.06808,846.45245,-17.23867,360.37613,802.46436,21.6163,312.58292,879.75952
87,0.717,-107.34865,387.32654,846.81775,-16.86721,360.80347,803.78253,22.70237,313.53418,880.67719
88,0.725,-107.14695,387.83087,847.04437,-16.98276,360.80637,804.28021,23.15015,314.12549,881.42108
89,0.733,-107.01343,387.75534,847.06061,-16.54799,361.03522,804.67487,23.49315,315.13834,882.39697
90,0.742,-106.81605,388.21991,847.55096,-16.16081,361.56686,805.26855,23.38981,315.13025,882.5954
91,0.75,-106.22469,388.93222,848.18549,-15.55694,362.00595,805.46112,23.6466,315.16055,882.84399
92,0.758,-105.99947,389.15305,848.31708,-15.0047,361.75226,805.46942,24.06248,314.0921,882.84473
93,0.767,-105.80985,388.84424,848.44775,-14.51644,361.90421,805.45642,24.27421,313.97656,882.62439
94,0.775,-105.27348,388.60675,848.43115,-13.2684,362.83688,805.79291,23.47687,312.6423,881.55096
95,0.783,-104.52574,387.74463,848.19659,-12.26787,363.31552,805.82715,24.23673,311.34775,880.57355
96,0.792,-103.58775,387.25482,848.17456,-12.14963,363.33423,805.75446,23.60986,310.36044,879.32947
97,0.8,-102.91737,386.59161,848.41797,-12.28706,363.5224,804.57538,24.15509,308.10373,877.21094
98,0.808,-102.09953,386.55905,847.79932,-11.92226,363.13486,803.74054,24.35627,307.69116,876.84888
99,0.817,-101.72905,386.21582,847.62823,-11.74609,362.71143,802.07916,25.81792,307.73618,876.23932
100,0.825,-101.24051,385.91266,847.41284,-11.5196,363.12051,801.41974,24.35242,304.78534,873.99146
101,0.833,-100.71304,385.60938,847.11865,-11.90135,362.53754,800.74622,24.01469,303.94583,873.17108
102,0.842,-100.25754,385.76285,846.75763,-11.84817,362.34732,799.90613,23.7118,303.88464,872.79712
103,0.85,-100.25754,385.76285,846.75763,-12.4748,362.06836,799.79633,21.84471,303.37375,872.55829
104,0.858,-100.65472,385.80832,846.50146,-13.40473,360.56088,798.51038,21.34988,304.20871,872.07001
105,0.867,-101.06709,385.57278,846.39563,-13.8127,360.53867,798.31506,21.37667,305.47366,872.06635
106,0.875,-101.99808,385.48715,845.96484,-14.58961,360.28668,798.16003,22.96727,306.5672,871.78265
107,0.883,-103.11815,385.56223,845.20917,-15.06171,360.08163,798.05463,22.42667,307.49872,872.47198
108,0.892,-103.97736,385.39026,844.9704,-15.51311,360.28192,798.20715,22.43878,309.98331,872.88342
109,0.9,-104.26659,384.54739,844.05878,-15.8441,360.16806,798.34467,22.25431,310.45502,873.17261
110,0.908,-105.55395,385.87497,843.95129,-16.4418,360.56665,798.65027,23.27654,311.0784,873.75513
111,0.917,-106.0937,386.271,844.33838,-16.4418,360.56665,798.65027,22.50067,311.95026,875.37177
112,0.925,-106.51062,387.05551,844.01935,-16.3137,360.27267,798.69019,23.31722,312.94781,875.72327
113,0.933,-106.86401,387.18924,844.1911,-16.75666,360.68051,799.52869,23.25863,312.87759,876.05182
114,0.942,-106.38982,387.43216,844.55182,-16.82199,360.4313,799.72308,23.4986,313.1864,876.41241
115,0.95,-106.05227,387.17334,844.45654,-16.83651,360.53522,800.0766,23.96414,313.88617,877.3136
116,0.958,-105.92916,387.41687,844.96973,-16.81201,360.26324,800.61713,24.38736,313.85843,877.78125
117,0.967,-106.32141,387.35693,846.03198,-16.47654,360.45117,800.78503,24.23217,314.05481,878.45642
118,0.975,-105.9624,388.32635,847.07904,-16.1369,360.90207,801.40973,25.02519,314.61768,879.40851
119,0.983,-106.07208,387.8136,846.78497,-15.72395,360.85391,802.77094,23.2065,312.18536,879.9491
120,0.992,-105.7514,387.6972,846.98285,-14.73427,360.30328,803.48212,23.13372,311.08911,880.28522
121,1,-105.61433,387.17023,847.4549,-13.99721,360.27878,804.22705,23.04005,310.173,880.5238
122,1.008,-104.52835,385.54657,847.06537,-13.62526,360.37656,804.51135,23.76817,308.59778,880.23932
123,1.017,-104.1899,384.97922,847.39508,-13.52033,360.04492,804.40662,23.23375,306.60104,879.61737
124,1.025,-103.72461,385.73361,847.92853,-13.15612,360.40341,804.00745,22.3633,304.47171,878.04321
125,1.033,-102.87435,384.84021,847.17853,-12.87227,360.086,803.51337,22.74537,302.15137,877.58893
126,1.042,-102.18732,384.05133,847.17242,-13.08422,359.66711,802.28369,23.17762,301.26785,876.11755
127,1.05,-101.29755,383.76135,846.50897,-12.76798,358.94028,800.57825,24.31051,301.91409,873.76691
128,1.058,-100.57399,383.57382,845.93848,-13.02553,359.40359,799.64801,23.68331,300.61179,871.9743
129,1.067,-100.61521,383.36844,845.19672,-12.59084,358.53464,798.24445,25.09508,299.97797,870.75323
130,1.075,-100.07983,383.01218,844.25275,-12.57926,359.14252,797.4223,24.78693,300.39008,868.41614
131,1.083,-99.35724,383.30432,843.51361,-13.43392,359.86404,795.08698,25.26979,300.95447,867.40582
132,1.092,-99.40472,383.91913,842.75049,-12.99301,360.84714,792.94312,25.81207,303.35391,865.69727
133,1.1,-99.46976,384.62827,841.35461,-13.54223,360.99207,792.32782,24.50143,304.09854,864.5343
134,1.108,-99.78183,384.71167,840.93591,-13.44791,360.93829,791.61749,27.77902,307.13739,863.77661
135,1.117,-100.82217,384.31042,839.90338,-13.63151,360.96863,791.44354,26.75696,307.2149,863.05896
136,1.125,-101.63506,384.4332,839.53717,-13.61807,361.39777,791.04181,28.45884,311.46646,863.07318
137,1.133,-101.55074,384.84302,839.14178,-14.21026,362.14175,790.59174,28.32891,312.0531,863.14557
138,1.142,-102.21393,385.09662,838.96234,-14.32204,362.43161,790.52618,28.28734,312.33105,862.89618
139,1.15,-102.68318,385.70169,839.00458,-14.75896,362.68152,790.59241,30.2964,315.97238,863.88141
140,1.158,-103.10168,385.84518,839.19171,-14.95755,362.75555,790.61005,30.75269,318.63852,864.30005
141,1.167,-103.40448,386.24088,839.68506,-15.0903,363.36447,790.79346,29.68224,318.509,865.21637
142,1.175,-103.27029,388.38815,839.99127,-14.92693,363.26578,791.21808,30.32163,319.56686,866.51965
143,1.183,-103.57484,388.86499,840.31281,-15.01309,362.70306,792.1203,29.35892,318.27502,867.11432
144,1.192,-103.66708,389.06247,840.62207,-14.53866,362.96201,792.60834,30.21869,318.96432,867.92267
145,1.2,-103.60052,389.2308,841.88519,-14.27683,363.5332,793.20807,29.38076,318.18414,868.79376
146,1.208,-103.3476,389.44492,842.20679,-13.87429,363.62198,794.43835,28.42668,315.00989,870.82361
147,1.217,-103.64089,389.22131,843.46558,-14.24014,362.36935,796.82239,27.72412,313.88794,871.68048
148,1.225,-103.8574,388.85605,844.64777,-13.93332,362.05551,797.27539,27.6335,312.68271,871.93207
149,1.233,-103.79767,388.94565,845.05573,-13.45695,361.63077,798.35583,25.00974,309.09732,872.85986
150,1.242,-103.58141,387.3555,845.75421,-13.78766,360.59204,799.35529,25.1088,306.96942,872.97168
151,1.25,-102.69678,386.28091,846.49731,-13.72523,360.12549,799.91772,22.14303,303.82544,873.13623
152,1.258,-102.63663,385.25516,846.88226,-14.27023,359.66968,800.35596,21.73337,303.15857,873.21411
153,1.267,-102.491,385.21109,846.86353,-13.90909,359.60297,800.25293,20.7538,300.17734,872.98651
154,1.275,-102.19949,384.85767,846.83606,-14.16855,358.42209,799.9328,19.85851,298.32047,872.73468
155,1.283,-102.25189,384.33569,847.00897,-14.16855,358.42209,799.9328,19.77299,298.26611,872.80591
156,1.292,-102.52792,383.34772,846.39319,-14.70918,357.62286,799.68573,19.33164,298.298,872.66272
157,1.3,-102.30495,383.70737,846.31818,-14.67233,357.63086,799.10645,19.46419,298.58499,872.35248
158,1.308,-102.41145,383.96484,846.03766,-14.25146,358.8511,798.84863,19.94292,299.24506,871.55231
159,1.317,-102.5309,384.04953,845.53387,-15.31442,358.55023,797.92627,19.46041,298.75284,870.63538
160,1.325,-102.78832,384.4238,845.01569,-15.31442,358.55023,797.92627,19.74646,299.76663,869.59076
161,1.333,-103.00061,384.89261,844.30615,-15.26934,359.34885,797.30768,21.20055,303.25354,869.80865
162,1.342,-103.20327,385.74847,843.83527,-15.78496,360.36819,796.77173,21.50286,304.60693,869.07538
163,1.35,-103.51245,386.71985,843.03845,-16.01172,361.06863,795.59351,22.34526,306.646,869.61426
164,1.358,-103.71227,387.66415,842.91541,-15.84747,361.02542,794.71545,23.46789,308.71017,868.28937
165,1.367,-104.04972,388.30234,842.51929,-16.1913,361.36914,795.24658,24.66332,311.80182,869.96338
166,1.375,-103.48521,389.1181,841.94208,-15.15113,362.22357,795.45477,26.14913,313.42236,869.49353
167,1.383,-103.46288,389.55762,842.1499,-14.17372,365.15009,794.65668,26.5079,314.32257,869.34723
168,1.392,-103.11502,389.68729,842.23773,-14.00216,365.91971,794.3924,28.9817,318.02972,870.21759
169,1.4,-102.24509,390.1152,843.24713,-13.56046,367.41611,795.76721,28.89682,318.28305,870.3739
170,1.408,-101.74517,391.69293,844.26733,-13.43931,367.44244,796.758,29.1758,318.56104,870.94238
171,1.417,-101.32683,391.82639,844.54449,-13.0817,367.28613,796.73816,29.25325,318.642,871.56189
172,1.425,-100.50328,392.70068,845.62244,-12.76665,367.49286,797.22003,29.25655,317.94443,872.30829
173,1.433,-100.7299,392.68567,846.43762,-12.44216,367.90793,798.18298,29.18643,317.73221,873.35382
174,1.442,-100.75116,392.36908,846.88422,-12.1222,367.28351,799.74225,28.19308,316.16745,874.51221
175,1.45,-101.14146,391.67026,847.77606,-12.36647,367.05273,801.71631,28.78305,314.85876,875.54291
176,1.458,-101.36427,391.36868,848.14514,-12.24955,366.89285,802.68628,26.70688,312.58908,876.71887
177,1.467,-101.96253,391.50046,848.80664,-12.13028,366.46512,803.46844,25.17589,310.91223,876.40814
178,1.475,-101.73346,390.81998,849.9588,-12.54104,365.43466,804.61627,23.73047,308.57321,876.79205
179,1.483,-101.59591,390.44272,850.58228,-12.38519,364.28827,804.75122,22.71053,306.76648,876.94727
180,1.492,-101.58524,389.69559,851.5755,-11.84484,362.81293,805.0199,21.09097,303.99628,877.23431
181,1.5,-101.52248,389.41345,851.75287,-12.77115,361.69577,805.0639,21.20136,301.90631,877.30682
182,1.508,-101.52447,389.32614,851.83667,-12.48844,361.04675,804.56171,20.25141,299.34131,877.37415
183,1.517,-101.30456,388.40152,851.45251,-13.03548,360.8291,804.41266,20.19405,299.00464,877.61359
184,1.525,-101.36775,388.09061,851.09875,-12.99356,359.58255,804.48553,19.15579,298.52124,877.37817
185,1.533,-101.53066,388.36206,850.37549,-13.22906,359.43503,804.38916,18.74371,298.63849,877.36041
186,1.542,-101.60249,388.2453,850.19507,-13.45266,359.16174,804.17609,18.6633,298.93796,877.18597
187,1.55,-102.45232,387.8421,849.07593,-15.03183,357.97427,802.91602,18.05733,300.09631,877.19684
188,1.558,-102.53524,388.36276,848.2373,-16.00261,358.20599,802.19135,18.97552,301.673,876.44885
189,1.567,-103.18677,388.31284,847.76184,-16.67492,358.98297,800.79523,19.54293,303.71274,876.78711
190,1.575,-103.94714,388.35648,847.20837,-16.6426,359.64008,800.80725,20.23123,305.71234,877.05109
191,1.583,-104.38316,388.47537,846.79364,-16.70731,360.15918,800.67456,21.28761,306.34268,875.86438
192,1.592,-105.01237,388.41879,846.55621,-16.55621,360.24435,800.51794,20.86625,307.64923,875.85162
193,1.6,-105.26471,388.79028,845.65625,-16.69919,360.53781,800.01093,22.23242,310.5495,876.30359
194,1.608,-105.51998,388.32471,844.83386,-16.48707,361.28262,799.37115,22.54393,310.60828,875.80048
195,1.617,-105.3199,388.81537,844.60406,-16.27388,361.34464,799.00098,23.74767,312.96365,875.05774
196,1.625,-104.62143,389.14612,844.69733,-15.65001,361.90424,798.36407,24.74335,314.45822,874.05035
197,1.633,-104.02141,390.49689,844.91852,-15.63945,362.34003,797.9906,25.64089,314.38522,873.42035
198,1.642,-103.40565,390.42798,844.97009,-15.12762,363.34775,798.14935,27.21589,316.36487,873.54108
199,1.65,-103.26257,390.80478,845.0835,-13.88819,364.05054,797.68286,26.46803,316.24631,873.15778
200,1.658,-102.80492,391.3681,845.00519,-14.53627,364.75272,798.53644,27.00003,316.10886,873.10724
201,1.667,-102.50608,391.21692,845.41962,-13.94919,364.8876,798.07013,26.49131,315.67603,873.14423
202,1.675,-102.72881,391.31186,845.34143,-13.44349,364.74985,798.4231,26.24703,314.34625,872.94617
