Frame#,Time,R.Forearm.x,R.Forearm.y,R.Forearm.z,R.Ulna.x,R.Ulna.y,R.Ulna.z,R.Radius.x,R.Radius.y,R.Radius.z
1,0,171.2178,-105.94089,995.93414,283.92487,-155.9756,961.28271,349.61578,-64.57189,978.52789
2,0.008,170.89586,-105.91624,995.93207,283.92487,-155.9756,961.28271,349.61578,-64.57189,978.52789
3,0.017,170.89586,-105.91624,995.93207,283.92487,-155.9756,961.28271,349.61578,-64.57189,978.52789
4,0.025,171.2178,-105.94089,995.93414,283.92487,-155.9756,961.28271,349.61578,-64.57189,978.52789
5,0.033,171.2178,-105.94089,995.93414,283.92487,-155.9756,961.28271,349.61578,-64.57189,978.52789
6,0.042,171.2178,-105.94089,995.93414,283.92487,-155.9756,961.28271,349.61578,-64.57189,978.52789
7,0.05,171.42607,-105.99024,995.77295,283.92487,-155.9756,961.28271,349.74564,-64.17503,978.31287
8,0.058,171.42607,-105.99024,995.77295,283.92487,-155.9756,961.28271,349.74564,-64.17503,978.31287
9,0.067,171.42607,-105.99024,995.77295,283.92487,-155.9756,961.28271,349.74564,-64.17503,978.31287
10,0.075,171.42607,-105.99024,995.77295,283.92487,-155.9756,961.28271,349.74564,-64.17503,978.31287
11,0.083,171.42607,-105.99024,995.77295,283.92487,-155.9756,961.28271,349.74564,-64.17503,978.31287
12,0.092,171.69946,-105.92117,995.66302,283.92487,-155.9756,961.28271,349.74564,-64.17503,978.31287
13,0.1,171.42607,-105.99024,995.77295,283.92487,-155.9756,961.28271,349.74564,-64.17503,978.31287
14,0.108,171.69946,-105.92117,995.66302,284.66327,-156.56311,961.39014,349.74564,-64.17503,978.31287
15,0.117,171.69946,-105.92117,995.66302,284.66327,-156.56311,961.39014,349.97638,-64.1408,978.16107
16,0.125,171.69946,-105.92117,995.66302,283.92487,-155.9756,961.28271,349.97638,-64.1408,978.16107
17,0.133,171.69946,-105.92117,995.66302,283.92487,-155.9756,961.28271,349.97638,-64.1408,978.16107
18,0.142,171.69946,-105.92117,995.66302,283.92487,-155.9756,961.28271,350.19626,-64.1745,977.66583
19,0.15,171.69946,-105.92117,995.66302,283.92487,-155.9756,961.28271,349.97638,-64.1408,978.16107
20,0.158,171.42607,-105.99024,995.77295,283.92487,-155.9756,961.28271,350.17902,-64.08309,977.99054
21,0.167,171.69946,-105.92117,995.66302,284.66327,-156.56311,961.39014,349.97638,-64.1408,978.16107
22,0.175,171.69946,-105.92117,995.66302,284.66327,-156.56311,961.39014,351.07318,-64.27998,977.26398
23,0.183,171.86627,-105.97223,995.43848,284.96756,-156.74788,961.19073,350.65067,-64.30405,977.92981
24,0.192,171.86627,-105.97223,995.43848,284.96756,-156.74788,961.19073,350.3989,-64.11683,977.4953
25,0.2,172.17044,-105.55078,995.26355,284.22916,-156.16042,961.08331,350.3989,-64.11683,977.4953
26,0.208,171.86627,-105.97223,995.43848,284.22916,-156.16042,961.08331,350.85336,-64.24634,977.75922
27,0.217,172.17044,-105.55078,995.26355,284.96756,-156.74788,961.19073,350.85336,-64.24634,977.75922
28,0.225,172.17044,-105.55078,995.26355,284.96756,-156.74788,961.19073,351.07318,-64.27998,977.26398
29,0.233,172.00366,-105.49973,995.48804,284.96756,-156.74788,961.19073,351.47174,-64.14677,977.35596
30,0.242,172.32135,-105.79839,995.20789,284.96756,-156.74788,961.19073,351.07318,-64.27998,977.26398
31,0.25,172.17044,-105.55078,995.26355,284.96756,-156.74788,961.19073,351.47174,-64.14677,977.35596
32,0.258,172.17044,-105.55078,995.26355,284.96756,-156.74788,961.19073,351.25189,-64.11316,977.8512
33,0.267,172.17044,-105.55078,995.26355,284.96756,-156.74788,961.19073,351.47174,-64.14677,977.35596
34,0.275,172.17044,-105.55078,995.26355,284.96756,-156.74788,961.19073,351.47174,-64.14677,977.35596
35,0.283,172.40187,-105.46046,995.13098,285.42358,-156.64508,961.14911,351.47174,-64.14677,977.35596
36,0.292,172.78911,-105.51505,995.18719,285.42358,-156.64508,961.14911,351.47174,-64.14677,977.35596
37,0.3,172.58308,-105.10135,995.04132,285.76566,-156.56813,961.11798,351.47174,-64.14677,977.35596
38,0.308,173.00586,-105.37788,994.81732,285.42358,-156.64508,961.14911,351.47174,-64.14677,977.35596
39,0.317,172.85492,-105.13025,994.87305,285.72626,-156.22775,960.95477,351.29175,-63.65362,977.11884
40,0.325,172.85492,-105.13025,994.87305,286.0683,-156.15074,960.92358,351.29175,-63.65362,977.11884
41,0.333,173.00586,-105.37788,994.81732,285.3298,-155.5632,960.81616,351.29175,-63.65362,977.11884
42,0.342,172.68063,-105.07671,994.70776,286.3237,-155.88097,960.96509,351.29175,-63.65362,977.11884
43,0.35,172.87502,-105.30198,994.40509,286.3237,-155.88097,960.96509,351.29175,-63.65362,977.11884
44,0.358,172.76472,-105.09202,994.47449,286.0683,-156.15074,960.92358,351.29175,-63.65362,977.11884
45,0.367,172.87502,-105.30198,994.40509,286.3237,-155.88097,960.96509,351.29175,-63.65362,977.11884
46,0.375,172.76472,-105.09202,994.47449,285.58517,-155.2933,960.85767,351.29175,-63.65362,977.11884
47,0.383,172.76472,-105.09202,994.47449,285.85666,-154.98938,960.72272,351.29175,-63.65362,977.11884
48,0.392,173.04704,-104.76095,994.10345,285.85666,-154.98938,960.72272,351.29175,-63.65362,977.11884
49,0.4,172.87415,-104.63358,993.96045,285.86795,-154.30325,960.29004,351.29175,-63.65362,977.11884
50,0.408,172.87415,-104.63358,993.96045,285.86795,-154.30325,960.29004,351.29175,-63.65362,977.11884
51,0.417,173.04704,-104.76095,994.10345,285.86795,-154.30325,960.29004,351.0838,-62.72897,977.00403
52,0.425,172.87415,-104.63358,993.96045,285.86795,-154.30325,960.29004,351.0838,-62.72897,977.00403
53,0.433,172.87415,-104.63358,993.96045,285.86795,-154.30325,960.29004,351.0838,-62.72897,977.00403
54,0.442,172.87415,-104.63358,993.96045,285.75589,-154.33739,960.06061,351.0838,-62.72897,977.00403
55,0.45,172.87415,-104.63358,993.96045,285.75589,-154.33739,960.06061,351.0838,-62.72897,977.00403
56,0.458,172.87415,-104.63358,993.96045,285.75589,-154.33739,960.06061,351.98972,-62.18811,977.49402
57,0.467,172.87415,-104.63358,993.96045,285.71191,-154.43974,959.90503,350.82147,-61.69435,976.24591
58,0.475,172.87415,-104.63358,993.96045,285.71191,-154.43974,959.90503,350.82147,-61.69435,976.24591
59,0.483,172.31569,-103.9437,993.6571,285.71191,-154.43974,959.90503,350.82147,-61.69435,976.24591
60,0.492,172.31569,-103.9437,993.6571,285.71191,-154.43974,959.90503,350.82147,-61.69435,976.24591
61,0.5,172.31569,-103.9437,993.6571,285.71191,-154.43974,959.90503,350.82147,-61.69435,976.24591
62,0.508,172.57033,-104.40945,993.70929,285.71191,-154.43974,959.90503,350.82147,-61.69435,976.24591
63,0.517,172.57033,-104.40945,993.70929,285.89005,-154.29517,959.74969,350.95163,-61.29765,976.0307
64,0.525,172.31569,-103.9437,993.6571,285.71191,-154.43974,959.90503,351.02188,-61.17999,975.83972
65,0.533,172.31569,-103.9437,993.6571,285.63251,-154.21329,959.29376,350.95163,-61.29765,976.0307
66,0.542,172.57033,-104.40945,993.70929,285.63251,-154.21329,959.29376,351.02188,-61.17999,975.83972
67,0.55,172.31569,-103.9437,993.6571,285.89005,-154.29517,959.74969,351.02188,-61.17999,975.83972
68,0.558,172.31569,-103.9437,993.6571,285.63251,-154.21329,959.29376,351.02188,-61.17999,975.83972
69,0.567,172.31569,-103.9437,993.6571,285.63251,-154.21329,959.29376,350.95163,-61.29765,976.0307
70,0.575,172.31569,-103.9437,993.6571,285.89005,-154.29517,959.74969,350.95163,-61.29765,976.0307
71,0.583,172.43452,-103.64745,993.77393,285.93405,-154.19279,959.90533,350.82147,-61.69435,976.24591
72,0.592,172.31569,-103.9437,993.6571,285.75589,-154.33739,960.06061,350.82147,-61.69435,976.24591
73,0.6,172.43452,-103.64745,993.77393,285.75589,-154.33739,960.06061,350.82147,-61.69435,976.24591
74,0.608,172.31569,-103.9437,993.6571,285.75589,-154.33739,960.06061,350.98553,-61.55065,976.7262
75,0.617,172.43452,-103.64745,993.77393,285.75589,-154.33739,960.06061,350.98553,-61.55065,976.7262
76,0.625,172.31569,-103.9437,993.6571,285.75589,-154.33739,960.06061,350.98553,-61.55065,976.7262
77,0.633,172.52747,-103.80467,993.96063,285.65714,-154.15341,960.13922,350.9379,-61.2575,977.1593
78,0.642,172.52747,-103.80467,993.96063,285.75589,-154.33739,960.06061,350.9379,-61.2575,977.1593
79,0.65,172.52747,-103.80467,993.96063,285.75589,-154.33739,960.06061,350.99976,-61.43473,977.37091
80,0.658,172.52747,-103.80467,993.96063,285.57257,-154.13901,960.315,350.99976,-61.43473,977.37091
81,0.667,172.50606,-103.68943,994.17651,285.6846,-154.10484,960.54443,350.99976,-61.43473,977.37091
82,0.675,172.50606,-103.68943,994.17651,285.6846,-154.10484,960.54443,350.99976,-61.43473,977.37091
83,0.683,172.71689,-103.75627,994.24091,285.6846,-154.10484,960.54443,350.93433,-61.12319,977.68762
84,0.692,172.71689,-103.75627,994.24091,285.52283,-154.07133,960.71716,350.99976,-61.43473,977.37091
85,0.7,172.50606,-103.68943,994.17651,285.52283,-154.07133,960.71716,350.93433,-61.12319,977.68762
86,0.708,172.88974,-103.88358,994.38385,285.52283,-154.07133,960.71716,350.93433,-61.12319,977.68762
87,0.717,172.88974,-103.88358,994.38385,285.52283,-154.07133,960.71716,350.5401,-60.94026,977.90997
88,0.725,172.34111,-103.82792,994.87457,285.7951,-153.92972,960.78339,350.5401,-60.94026,977.90997
89,0.733,172.52977,-103.98292,994.71918,285.52283,-154.07133,960.71716,350.5401,-60.94026,977.90997
90,0.742,172.31932,-104.25434,994.8678,285.33151,-154.35135,960.8811,350.5401,-60.94026,977.90997
91,0.75,172.30495,-104.15293,995.18848,285.60379,-154.20978,960.94727,350.5401,-60.94026,977.90997
92,0.758,172.58157,-104.72276,995.30975,285.33151,-154.35135,960.8811,350.5401,-60.94026,977.90997
93,0.767,172.30495,-104.15293,995.18848,285.58987,-154.21561,961.18268,350.32019,-60.90672,978.40515
94,0.775,172.58157,-104.72276,995.30975,285.5816,-154.11526,961.29919,350.32019,-60.90672,978.40515
95,0.783,172.30495,-104.15293,995.18848,285.20685,-154.16095,961.37714,350.32019,-60.90672,978.40515
96,0.792,172.30495,-104.15293,995.18848,285.5816,-154.11526,961.29919,350.32019,-60.90672,978.40515
97,0.8,172.58157,-104.72276,995.30975,285.5816,-154.11526,961.29919,350.32019,-60.90672,978.40515
98,0.808,172.30495,-104.15293,995.18848,285.5816,-154.11526,961.29919,350.32019,-60.90672,978.40515
99,0.817,172.58157,-104.72276,995.30975,285.5816,-154.11526,961.29919,350.32019,-60.90672,978.40515
100,0.825,172.2766,-104.38655,995.47375,285.20685,-154.16095,961.37714,350.32019,-60.90672,978.40515
101,0.833,172.2766,-104.38655,995.47375,285.5816,-154.11526,961.29919,350.32019,-60.90672,978.40515
102,0.842,172.2766,-104.38655,995.47375,285.5816,-154.11526,961.29919,350.32019,-60.90672,978.40515
103,0.85,172.2766,-104.38655,995.47375,285.34586,-154.21429,961.26855,350.32019,-60.90672,978.40515
104,0.858,172.11639,-103.99783,995.34399,285.35141,-154.14081,961.34991,350.32019,-60.90672,978.40515
105,0.867,172.11639,-103.99783,995.34399,285.0639,-154.25374,961.32153,350.32019,-60.90672,978.40515
106,0.875,172.10027,-104.64291,995.80774,285.0639,-154.25374,961.32153,350.32019,-60.90672,978.40515
107,0.883,171.90886,-104.09452,995.48218,285.0639,-154.25374,961.32153,350.32019,-60.90672,978.40515
108,0.892,171.90886,-104.09452,995.48218,285.0639,-154.25374,961.32153,350.32019,-60.90672,978.40515
109,0.9,172.06906,-104.48325,995.61194,284.79236,-154.55766,961.45642,350.32019,-60.90672,978.40515
110,0.908,171.90886,-104.09452,995.48218,284.79236,-154.55766,961.45642,350.32019,-60.90672,978.40515
111,0.917,171.90886,-104.09452,995.48218,284.79236,-154.55766,961.45642,350.32019,-60.90672,978.40515
112,0.925,171.85622,-104.20873,995.29718,285.0639,-154.25374,961.32153,350.32019,-60.90672,978.40515
113,0.933,171.90886,-104.09452,995.48218,285.0639,-154.25374,961.32153,350.32019,-60.90672,978.40515
114,0.942,171.87177,-103.94335,995.29767,284.79236,-154.55766,961.45642,350.32019,-60.90672,978.40515
115,0.95,172.09741,-104.2496,995.32672,284.89709,-154.44194,961.1662,350.32019,-60.90672,978.40515
116,0.958,172.37402,-104.81945,995.448,284.46826,-154.6981,961.17224,350.32019,-60.90672,978.40515
117,0.967,171.96538,-104.42686,994.97937,284.46826,-154.6981,961.17224,350.32019,-60.90672,978.40515
118,0.975,172.41634,-105.05026,995.26587,284.46826,-154.6981,961.17224,350.32019,-60.90672,978.40515
119,0.983,172.20876,-105.14697,995.40411,284.73978,-154.39421,961.03729,350.32019,-60.90672,978.40515
120,0.992,172.20876,-105.14697,995.40411,284.46826,-154.6981,961.17224,350.32019,-60.90672,978.40515
121,1,172.03448,-105.09344,995.23895,284.46826,-154.6981,961.17224,350.32019,-60.90672,978.40515
122,1.008,172.03448,-105.09344,995.23895,284.80011,-154.63341,961.13062,350.32019,-60.90672,978.40515
123,1.017,172.20123,-105.14449,995.0144,284.46826,-154.6981,961.17224,350.32019,-60.90672,978.40515
124,1.025,172.16412,-104.99326,994.82977,284.46826,-154.6981,961.17224,350.5401,-60.94026,977.90997
125,1.033,172.16412,-104.99326,994.82977,284.46826,-154.6981,961.17224,350.5401,-60.94026,977.90997
126,1.042,172.4088,-105.04781,994.8761,284.46826,-154.6981,961.17224,350.5401,-60.94026,977.90997
127,1.05,171.95999,-105.10359,994.98486,284.46826,-154.6981,961.17224,350.51746,-61.35115,977.66797
128,1.058,171.99738,-104.94219,995.05432,284.46826,-154.6981,961.17224,350.53973,-61.27746,977.5744
129,1.067,171.92778,-105.18632,994.71783,284.56702,-154.88205,961.09363,350.51712,-61.68826,977.33234
130,1.075,171.72365,-105.29665,994.87292,284.56702,-154.88205,961.09363,350.62387,-62.57167,977.20758
131,1.083,171.92778,-105.18632,994.71783,284.56702,-154.88205,961.09363,350.62387,-62.57167,977.20758
132,1.092,171.58101,-105.1433,994.69501,284.56702,-154.88205,961.09363,350.51712,-61.68826,977.33234
133,1.1,171.72365,-105.29665,994.87292,284.56702,-154.88205,961.09363,350.62387,-62.57167,977.20758
134,1.108,171.92778,-105.18632,994.71783,284.56702,-154.88205,961.09363,350.62387,-62.57167,977.20758
135,1.117,171.75366,-105.02905,994.5379,284.56702,-154.88205,961.09363,350.62387,-62.57167,977.20758
136,1.125,171.92778,-105.18632,994.71783,284.56702,-154.88205,961.09363,350.62387,-62.57167,977.20758
137,1.133,171.75366,-105.02905,994.5379,284.31152,-155.15193,961.05206,350.62088,-62.06633,977.42609
138,1.142,171.75366,-105.02905,994.5379,284.56702,-154.88205,961.09363,350.62387,-62.57167,977.20758
139,1.15,171.92778,-105.18632,994.71783,284.56702,-154.88205,961.09363,350.62387,-62.57167,977.20758
140,1.158,171.75366,-105.02905,994.5379,284.56702,-154.88205,961.09363,350.62387,-62.57167,977.20758
141,1.167,171.92778,-105.18632,994.71783,284.56702,-154.88205,961.09363,350.62088,-62.06633,977.42609
142,1.175,171.72365,-105.29665,994.87292,284.56702,-154.88205,961.09363,350.62387,-62.57167,977.20758
143,1.183,171.72365,-105.29665,994.87292,284.56702,-154.88205,961.09363,350.62387,-62.57167,977.20758
144,1.192,171.72365,-105.29665,994.87292,284.56702,-154.88205,961.09363,350.62387,-62.57167,977.20758
145,1.2,171.55688,-105.24561,995.09747,284.46826,-154.6981,961.17224,350.62088,-62.06633,977.42609
146,1.208,171.55688,-105.24561,995.09747,284.56702,-154.88205,961.09363,349.91345,-62.23555,978.05426
147,1.217,171.55688,-105.24561,995.09747,284.46826,-154.6981,961.17224,350.62088,-62.06633,977.42609
148,1.225,171.55688,-105.24561,995.09747,284.46826,-154.6981,961.17224,349.82928,-60.94139,978.42096
149,1.233,171.55688,-105.24561,995.09747,284.46826,-154.6981,961.17224,350.32019,-60.90672,978.40515
150,1.242,171.55688,-105.24561,995.09747,284.46826,-154.6981,961.17224,350.40128,-61.69567,978.25684
151,1.25,171.55688,-105.24561,995.09747,284.46826,-154.6981,961.17224,350.29755,-61.31758,978.16321
152,1.258,171.55688,-105.24561,995.09747,284.46826,-154.6981,961.17224,349.80667,-61.35218,978.17902
153,1.267,171.26208,-105.08101,995.47388,284.46826,-154.6981,961.17224,349.82928,-60.94139,978.42096
154,1.275,171.26208,-105.08101,995.47388,284.27704,-154.97815,961.33612,350.11774,-60.9645,978.5755
155,1.283,170.92915,-105.15437,995.59473,284.27704,-154.97815,961.33612,350.29813,-61.45766,978.81232
156,1.292,170.92915,-105.15437,995.59473,284.27704,-154.97815,961.33612,350.11774,-60.9645,978.5755
157,1.3,171.05374,-105.03165,995.63513,284.27704,-154.97815,961.33612,350.11774,-60.9645,978.5755
158,1.308,171.49844,-104.88797,995.58582,284.24371,-154.95267,961.61395,349.62683,-60.99917,978.59131
159,1.317,171.29414,-104.80396,995.78607,284.24371,-154.95267,961.61395,350.11774,-60.9645,978.5755
160,1.325,171.29414,-104.80396,995.78607,284.24371,-154.95267,961.61395,349.8111,-60.71523,978.85504
161,1.333,171.29414,-104.80396,995.78607,284.25558,-154.79529,961.78827,349.8111,-60.71523,978.85504
162,1.342,171.29414,-104.80396,995.78607,284.25558,-154.79529,961.78827,349.8111,-60.71523,978.85504
163,1.35,171.46843,-104.85751,995.95123,284.44229,-154.63293,961.90778,349.99155,-61.2084,979.0918
164,1.358,171.46843,-104.85751,995.95123,284.44229,-154.63293,961.90778,349.99155,-61.2084,979.0918
165,1.367,171.29414,-104.80396,995.78607,284.44229,-154.63293,961.90778,349.8111,-60.71523,978.85504
166,1.375,171.46843,-104.85751,995.95123,284.44229,-154.63293,961.90778,349.59204,-60.68189,979.3504
167,1.383,171.46843,-104.85751,995.95123,284.44229,-154.63293,961.90778,349.59204,-60.68189,979.3504
168,1.392,171.46843,-104.85751,995.95123,284.44229,-154.63293,961.90778,349.59204,-60.68189,979.3504
169,1.4,171.46843,-104.85751,995.95123,284.44229,-154.63293,961.90778,349.8111,-60.71523,978.85504
170,1.408,171.46843,-104.85751,995.95123,284.44229,-154.63293,961.90778,349.59204,-60.68189,979.3504
171,1.417,171.30821,-104.46873,995.82147,284.44229,-154.63293,961.90778,349.77246,-61.17503,979.5871
172,1.425,171.46843,-104.85751,995.95123,284.44229,-154.63293,961.90778,349.77246,-61.17503,979.5871
173,1.433,171.73068,-104.88644,995.96417,284.44229,-154.63293,961.90778,349.59204,-60.68189,979.3504
174,1.442,171.46843,-104.85751,995.95123,284.44229,-154.63293,961.90778,349.59204,-60.68189,979.3504
175,1.45,171.73068,-104.88644,995.96417,284.44229,-154.63293,961.90778,349.59204,-60.68189,979.3504
176,1.458,171.46843,-104.85751,995.95123,284.63354,-154.35284,961.74396,349.59204,-60.68189,979.3504
177,1.467,171.46843,-104.85751,995.95123,284.63354,-154.35284,961.74396,349.59204,-60.68189,979.3504
178,1.475,171.46843,-104.85751,995.95123,284.63354,-154.35284,961.74396,349.59204,-60.68189,979.3504
179,1.483,171.73068,-104.88644,995.96417,284.63354,-154.35284,961.74396,349.59204,-60.68189,979.3504
180,1.492,171.67271,-104.94151,995.75098,284.63354,-154.35284,961.74396,349.8111,-60.71523,978.85504
181,1.5,172.10027,-104.64291,995.80774,284.63354,-154.35284,961.74396,349.8111,-60.71523,978.85504
182,1.508,171.93498,-104.97044,995.76392,284.63354,-154.35284,961.74396,349.79446,-60.62406,979.18011
183,1.517,171.93498,-104.97044,995.76392,284.63354,-154.35284,961.74396,350.01355,-60.65744,978.68475
184,1.525,171.90376,-104.81078,995.56812,284.64642,-154.4702,961.6062,350.01355,-60.65744,978.68475
185,1.533,172.06906,-104.48325,995.61194,284.64642,-154.4702,961.6062,349.79446,-60.62406,979.18011
186,1.542,172.37402,-104.81945,995.448,284.79236,-154.55766,961.45642,350.32019,-60.90672,978.40515
187,1.55,172.37402,-104.81945,995.448,284.79236,-154.55766,961.45642,350.32019,-60.90672,978.40515
188,1.558,172.03448,-105.09344,995.23895,285.07431,-154.51825,961.4035,350.32019,-60.90672,978.40515
189,1.567,172.37402,-104.81945,995.448,285.07431,-154.51825,961.4035,350.32019,-60.90672,978.40515
190,1.575,172.40729,-104.66921,995.14453,285.34586,-154.21429,961.26855,350.32019,-60.90672,978.40515
191,1.583,172.40729,-104.66921,995.14453,285.0639,-154.25374,961.32153,350.32019,-60.90672,978.40515
192,1.592,172.24205,-104.99673,995.10065,285.07162,-154.32947,960.99567,350.32019,-60.90672,978.40515
193,1.6,171.96538,-104.42686,994.97937,285.07162,-154.32947,960.99567,350.32019,-60.90672,978.40515
194,1.608,172.57404,-104.72029,994.91998,285.22891,-154.37717,961.12457,350.5401,-60.94026,977.90997
195,1.617,172.15407,-104.58185,994.82391,285.07162,-154.32947,960.99567,350.5401,-60.94026,977.90997
196,1.625,171.72072,-104.37237,994.93304,285.26297,-154.04945,960.83179,350.5401,-60.94026,977.90997
197,1.633,172.32939,-104.66573,994.87366,285.26297,-154.04945,960.83179,350.5401,-60.94026,977.90997
198,1.642,171.90941,-104.52734,994.77759,285.26297,-154.04945,960.83179,350.5401,-60.94026,977.90997
