Frame#,Time,L.Forearm.x,L.Forearm.y,L.Forearm.z,L.Ulna.x,L.Ulna.y,L.Ulna.z,L.Radius.x,L.Radius.y,L.Radius.z
1,0,1040.93018,-279.71698,1036.22583,1056.61035,-328.3822,948.79968,998.66217,-252.75917,910.18658
2,0.008,1033.40796,-283.03351,1035.24756,1055.15271,-328.22287,948.35852,993.10138,-254.25841,910.93549
3,0.017,1030.56396,-283.09482,1034.35767,1050.85303,-327.37827,947.63434,988.19434,-255.13484,911.98767
4,0.025,1025.84839,-285.75314,1034.73096,1047.94385,-326.88873,947.9245,983.39221,-253.68616,910.76404
5,0.033,1021.81549,-285.0925,1035.21033,1044.03162,-327.13174,948.8562,980.14313,-252.71852,911.64557
6,0.042,1017.01257,-285.44519,1035.4928,1038.78931,-327.0267,948.21851,978.36127,-252.33745,911.44611
7,0.05,1014.56525,-285.80576,1035.66418,1033.97095,-327.52353,948.47626,976.08301,-251.80537,910.71765
8,0.058,1011.27521,-284.14392,1035.46399,1028.76611,-327.38708,947.90527,974.53656,-246.31982,909.2818
9,0.067,1008.17841,-282.04266,1034.5387,1023.71729,-325.97577,949.04858,973.76733,-245.98865,909.38165
10,0.075,1004.77985,-278.9852,1034.01245,1018.99091,-325.89087,948.59082,972.91821,-244.41423,909.22925
11,0.083,1002.46881,-276.02606,1033.42017,1015.10156,-326.05679,948.38013,974.39404,-242.74786,908.49768
12,0.092,999.22064,-273.61884,1033.38965,1010.46405,-325.15048,948.5495,971.62915,-240.25188,906.20966
13,0.1,999.07092,-272.31229,1032.1416,1005.69165,-322.81433,948.15271,970.87598,-239.65672,903.77148
14,0.108,996.05438,-269.42444,1032.26685,1003.23444,-324.18188,947.77484,969.31207,-238.96288,903.55322
15,0.117,992.80634,-267.22989,1032.35791,997.53925,-322.94186,947.25281,966.76965,-239.67787,903.15686
16,0.125,992.17786,-267.04257,1030.2478,994.26929,-323.29245,947.50458,963.87366,-240.418,903.17316
17,0.133,989.34753,-265.69037,1029.86658,990.62524,-323.61746,947.42444,959.39526,-238.22585,903.70117
18,0.142,982.70575,-266.45709,1030.40796,986.1062,-322.6954,946.80695,955.05029,-236.86267,903.78754
19,0.15,978.9447,-265.50589,1030.2439,983.80182,-322.87509,946.78705,947.86401,-237.51682,903.13
20,0.158,974.7951,-264.07697,1031.70471,981.12408,-321.62277,946.61005,943.57825,-237.36456,903.60944
21,0.167,968.99835,-265.80505,1030.95459,977.54712,-320.46964,945.97766,936.99493,-238.34113,903.42346
22,0.175,966.0542,-266.21341,1030.15283,974.55743,-321.01328,945.3078,928.45898,-237.33701,904.49341
23,0.183,960.71948,-267.66943,1029.72095,971.76715,-319.96445,945.5257,923.73309,-236.9416,906.67725
24,0.192,955.30554,-268.72763,1030.6947,968.27765,-318.58353,944.30774,915.22516,-237.53691,906.12097
25,0.2,950.40625,-268.14099,1030.92407,964.5882,-318.14142,944.51276,911.39343,-236.65253,906.25006
26,0.208,945.5224,-268.45651,1030.44299,962.2771,-317.23569,942.91711,905.75647,-239.0098,906.67084
27,0.217,940.80798,-268.69135,1031.28833,957.03467,-315.6347,943.53156,901.08411,-235.77246,906.59906
28,0.225,936.39612,-267.98645,1031.26282,954.44122,-315.14264,943.15015,897.53564,-235.70012,907.07947
29,0.233,930.71393,-268.4173,1031.64697,948.78149,-313.35406,944.96204,893.70343,-235.55672,906.7951
30,0.242,927.23724,-267.12357,1031.32031,942.73584,-312.94077,945.36877,890.18756,-232.2601,906.96484
31,0.25,923.66864,-265.44751,1031.44727,938.15497,-311.5386,945.92432,888.65381,-230.81024,907.52032
32,0.258,920.24902,-262.83514,1031.35486,930.28571,-309.92709,947.98651,887.79639,-227.97986,906.53979
33,0.267,917.61237,-259.17267,1032.48608,925.83844,-309.40363,948.52509,887.30457,-224.61002,905.98926
34,0.275,914.5246,-256.72803,1032.41101,921.42859,-307.9935,949.53583,885.18732,-224.41188,905.6698
35,0.283,912.33807,-252.41629,1034.33325,917.40845,-306.10657,950.90509,883.27435,-223.1938,905.69659
36,0.292,912.26245,-248.70247,1034.97205,913.06537,-305.77341,952.66931,882.01727,-222.47165,905.88031
37,0.3,910.19324,-247.46838,1035.13928,908.63043,-304.73157,953.69843,880.87073,-222.0009,906.36438
38,0.308,907.17902,-245.12189,1035.79211,904.56628,-304.552,954.75763,877.30554,-222.7332,906.42505
39,0.317,903.29846,-245.4418,1035.68079,902.46021,-305.18475,955.1181,876.53259,-222.60028,906.84863
40,0.325,900.07715,-245.05638,1036.15735,898.85406,-304.02988,957.29523,873.68951,-220.95799,908.43201
41,0.333,897.22595,-244.51355,1037.27185,895.31744,-304.04007,957.59332,869.77545,-221.46814,907.86407
42,0.342,891.6026,-245.96614,1039.01819,893.93146,-304.36041,957.84216,864.71753,-221.76244,909.55524
43,0.35,887.89142,-245.2455,1039.89648,889.58612,-304.37253,959.172,860.45465,-220.08748,912.21808
44,0.358,883.96564,-246.30937,1041.06775,887.07019,-303.38043,959.45618,852.57227,-221.20541,913.34277
45,0.367,879.31714,-246.9028,1041.14001,883.90973,-304.08279,960.35675,849.85309,-219.49292,914.56763
46,0.375,876.02106,-245.87764,1043.36255,880.96185,-303.65436,960.12201,839.27679,-219.83734,916.64453
47,0.383,869.63757,-247.24818,1044.43567,878.57806,-302.07959,960.91876,837.59821,-218.8071,919.54938
48,0.392,866.41687,-246.72404,1045.52283,875.83209,-301.50528,961.31812,828.32245,-218.86331,920.50714
49,0.4,861.61401,-247.92477,1047.10547,872.2085,-300.72473,961.66589,825.44531,-217.89355,923.44354
50,0.408,856.97656,-247.1508,1048.28638,868.73199,-299.43387,962.70007,814.30042,-217.42203,924.99054
51,0.417,851.89862,-248.22562,1048.78772,864.80664,-297.9949,963.12286,808.81708,-218.11339,925.67401
52,0.425,848.62512,-246.93941,1049.83264,861.2793,-297.4437,963.42462,802.62549,-217.30443,927.33777
53,0.433,845.21722,-246.57961,1050.31287,858.48639,-296.05432,963.13196,797.1059,-218.68768,928.64856
54,0.442,840.16943,-248.01033,1051.49536,855.79413,-294.49875,962.92981,795.26208,-218.60988,929.19501
55,0.45,837.22827,-246.25372,1051.40393,851.42224,-293.88037,963.63861,788.8963,-215.37929,929.72534
56,0.458,833.02673,-246.00107,1051.62488,847.59747,-291.97592,963.86218,784.30994,-216.39857,930.1825
57,0.467,830.28143,-246.1133,1051.4386,843.0166,-291.82455,964.65247,782.25763,-216.00984,929.98749
58,0.475,825.41803,-245.32199,1051.28833,838.41498,-289.84488,964.89447,778.51379,-211.79716,929.79669
59,0.483,823.51099,-242.50255,1051.50159,834.58838,-289.09619,965.13861,776.06519,-209.42627,928.7168
60,0.492,820.07556,-239.4572,1051.22766,830.32153,-287.02814,965.81622,775.89252,-208.95961,927.21741
61,0.5,817.73828,-237.45319,1050.87073,826.60461,-285.98834,965.78394,776.11841,-204.22427,926.6994
62,0.508,816.74609,-233.16042,1050.84131,822.09882,-284.15219,965.88855,776.48987,-203.39171,924.89331
63,0.517,816.00061,-230.08293,1048.83044,819.84235,-283.68744,966.01953,777.49371,-203.44028,923.04181
64,0.525,814.5824,-227.23216,1048.43445,816.79346,-282.77875,966.26099,777.25092,-202.1705,922.27228
65,0.533,813.16748,-225.58165,1048.13794,813.65179,-282.20938,965.95349,775.34521,-200.79028,921.03857
66,0.542,811.80243,-223.51711,1047.0459,811.23486,-281.97211,966.47351,775.21161,-200.38422,919.82227
67,0.55,810.42401,-221.90857,1046.57129,809.29852,-280.14941,965.81805,775.21161,-200.38422,919.82227
68,0.558,807.48334,-221.34827,1046.27429,807.85126,-279.95779,965.79932,775.21161,-200.38422,919.82227
69,0.567,806.4917,-220.80193,1045.96997,805.15991,-280.56628,965.77106,773.41711,-198.90652,919.97357
70,0.575,803.11633,-220.76732,1046.66174,804.50757,-280.3508,965.97864,764.30634,-200.00688,919.52655
71,0.583,799.1731,-221.57149,1046.93481,802.45184,-280.28473,965.23511,762.76074,-199.31285,920.14276
72,0.592,797.08185,-221.65315,1046.01062,800.79846,-279.58463,965.47424,762.69446,-199.39514,920.93414
73,0.6,794.32153,-222.55186,1047.28967,799.61401,-278.74438,965.26184,752.48804,-199.25499,921.46661
74,0.608,790.92664,-223.27483,1047.68054,797.43152,-278.55936,964.76086,751.11249,-199.23457,923.43817
75,0.617,787.45923,-223.10172,1048.38086,795.49457,-278.02667,964.35858,743.46729,-199.05698,924.23083
76,0.625,784.06787,-224.29106,1049.10437,793.60168,-277.70804,964.05231,738.24811,-198.6283,925.61853
77,0.633,780.89948,-225.35635,1048.92725,792.26215,-276.89188,964.11243,732.86652,-200.51843,927.67261
78,0.642,777.06439,-227.67882,1050.36157,790.88538,-276.7142,963.36011,725.9845,-201.77925,928.64496
79,0.65,774.35333,-229.02478,1050.48193,789.02277,-276.3317,963.27283,723.78528,-202.99899,928.74969
80,0.658,772.31781,-230.28729,1051.20068,786.34705,-276.42545,963.11688,720.23523,-205.35425,928.70227
81,0.667,766.99762,-231.19691,1051.64136,784.75574,-275.7738,962.08948,716.71527,-204.60576,929.77655
82,0.675,765.06396,-231.55379,1051.59033,782.59229,-275.47992,962.39398,711.67834,-206.24673,929.15649
83,0.683,760.60602,-233.52831,1050.94128,780.52002,-274.4476,961.71143,710.17731,-204.8847,928.71588
84,0.692,759.5448,-233.29442,1050.70691,776.36212,-274.89465,961.79327,708.98871,-204.72948,928.92682
85,0.7,756.92615,-232.64369,1050.78027,772.51245,-275.22818,962.65326,708.00153,-202.91843,928.22748
86,0.708,754.23083,-231.09586,1050.26526,767.84753,-275.46097,963.24042,707.73822,-201.901,927.45398
87,0.717,752.26276,-230.09882,1049.73669,764.32556,-276.56378,962.73187,707.61182,-198.55052,926.33722
88,0.725,749.87231,-227.91545,1049.12024,761.28943,-275.89532,962.66583,709.03937,-198.43907,923.62848
89,0.733,748.71112,-225.38815,1046.85657,758.20532,-277.36166,962.87152,709.95361,-198.32919,920.69531
90,0.742,747.81049,-224.66925,1046.62231,754.94702,-277.43915,962.85492,709.39191,-196.88908,920.17004
91,0.75,746.76288,-221.80042,1043.88916,750.6322,-276.78372,962.2583,710.80444,-197.96645,916.64325
92,0.758,746.18372,-220.49107,1044.45166,749.04578,-277.27863,961.94635,710.51508,-197.6051,915.34503
93,0.767,744.29828,-220.55692,1043.97034,746.30273,-278.55154,961.60162,710.8349,-197.83194,915.20178
94,0.775,741.88135,-219.70848,1042.25269,743.4967,-280.05902,961.02313,711.90704,-199.47183,914.5415
95,0.783,739.5351,-220.04279,1041.32629,741.8678,-281.37268,960.24042,709.15143,-202.02013,913.3858
96,0.792,735.48206,-221.45941,1039.90991,740.0282,-282.45508,959.36597,702.8797,-202.39758,910.12085
97,0.8,734.05597,-221.8636,1037.68469,737.64069,-283.69415,958.2121,700.43225,-204.7325,910.72015
98,0.808,729.70203,-224.76137,1037.19299,735.83209,-284.74109,956.47534,698.52899,-205.1974,908.90955
99,0.817,725.38733,-228.10983,1035.93884,734.25488,-285.75272,955.26782,693.00238,-206.70889,908.4455
100,0.825,722.01904,-228.52913,1035.71582,731.06165,-286.8786,955.1012,687.34149,-207.50391,908.64349
101,0.833,717.90283,-230.8038,1034.90039,729.13861,-287.25037,953.13464,680.90192,-210.1322,908.23566
102,0.842,712.59955,-234.7722,1034.56006,726.82739,-287.92255,951.83032,676.21002,-211.55806,909.0672
103,0.85,708.88733,-235.53604,1035.11011,723.9425,-289.74347,951.03918,667.07562,-213.4534,909.11462
104,0.858,703.5816,-237.64197,1034.21057,722.46484,-290.61093,948.98669,660.92395,-216.94882,909.62457
105,0.867,698.74054,-241.46266,1033.99426,718.96594,-291.49393,947.81506,656.95618,-221.08273,907.99261
106,0.875,693.80878,-244.47227,1032.64612,716.72095,-292.41403,946.76007,651.48724,-224.05835,907.33813
107,0.883,689.85675,-246.21294,1031.61975,712.7132,-292.25861,945.77277,645.22528,-225.50826,906.52612
108,0.892,683.86462,-248.59871,1030.53833,710.25842,-292.55695,945.10406,639.03455,-228.20573,906.30402
109,0.9,680.79382,-251.20499,1029.77722,706.02106,-293.59579,944.16315,636.39331,-228.35364,904.25421
110,0.908,676.72034,-251.90862,1029.75476,700.18976,-295.12543,944.07397,631.31104,-228.44286,903.05463
111,0.917,671.26971,-251.65488,1027.78906,694.1507,-295.82193,943.70966,630.93298,-227.67288,901.77106
112,0.925,668.14197,-250.50868,1027.35571,687.08563,-297.73099,941.92389,626.97205,-224.81638,899.77197
113,0.933,664.09869,-249.46866,1025.63037,682.60663,-298.29657,941.6568,625.56226,-225.56517,897.0376
114,0.942,660.28967,-248.83865,1024.44482,677.00159,-300.37585,941.36713,628.26233,-226.15565,894.83893
115,0.95,656.90564,-247.00983,1023.05164,672.38257,-300.92465,941.13483,624.45306,-224.14371,893.88361
116,0.958,656.1037,-245.37625,1022.86761,667.76575,-302.01834,941.73657,624.92242,-225.01268,892.52942
117,0.967,653.44891,-243.64223,1022.49731,663.20599,-303.33731,941.10266,624.13617,-226.80132,889.91498
118,0.975,650.43152,-243.4281,1020.76538,658.8147,-304.33435,941.35229,620.65961,-227.69467,890.39655
119,0.983,647.21283,-245.16051,1020.54565,656.55408,-306.06113,941.10815,618.5965,-230.20265,888.79657
120,0.992,643.65802,-246.16257,1020.46936,652.49841,-307.69388,941.30774,615.77478,-232.34589,888.28949
121,1,637.87909,-248.36646,1020.48859,650.03241,-310.16525,942.0647,612.24274,-234.49023,888.36682
122,1.008,632.99237,-250.89795,1020.89111,646.29749,-311.55542,942.1488,608.11206,-234.99237,890.35822
123,1.017,628.48383,-252.59146,1021.92004,643.22559,-313.03201,942.04425,603.23132,-237.5231,890.96857
124,1.025,625.28845,-254.61153,1022.85144,639.39758,-314.18417,942.97369,595.16669,-239.3102,892.15796
125,1.033,619.90741,-257.32449,1023.99573,635.13611,-314.66998,942.61304,590.51093,-238.60507,894.08289
126,1.042,614.24341,-259.47937,1025.06177,630.74255,-316.10468,943.42731,583.3476,-241.12488,895.97375
127,1.05,608.99945,-262.86618,1027.32507,628.22894,-316.62082,943.61469,576.48236,-242.22522,897.31097
128,1.058,604.64209,-263.15826,1028.65674,623.91858,-317.93726,944.93738,568.66589,-243.24562,899.77106
129,1.067,598.48132,-265.85843,1030.15063,619.39874,-318.12253,945.84039,560.04224,-245.54848,902.09631
130,1.075,592.48669,-269.57336,1031.28894,615.27216,-318.55679,946.43732,552.61639,-247.74757,905.09857
131,1.083,587.33252,-271.66809,1032.7373,611.08398,-319.71814,946.87659,548.41418,-249.55092,905.71161
132,1.092,582.05267,-272.62308,1033.47961,606.08643,-320.9935,947.54175,542.91827,-249.49561,907.07068
133,1.1,577.44299,-274.85733,1034.6781,601.75525,-320.63293,947.92078,537.57489,-250.81865,907.43896
134,1.108,571.078,-278.23715,1034.44983,597.2757,-321.94479,948.34314,532.50421,-251.84329,908.14575
135,1.117,566.43481,-279.21887,1034.53857,591.73767,-322.27423,948.29449,528.57062,-251.99799,909.63971
136,1.125,561.82867,-278.69962,1035.01331,586.05005,-323.80707,949.42841,524.30542,-250.78947,909.70013
137,1.133,556.40686,-280.27737,1035.55298,578.97009,-324.34399,950.3075,520.76526,-250.11522,909.85974
138,1.142,552.70044,-279.19293,1036.09021,572.95959,-325.02325,951.12097,518.51868,-248.40901,909.04071
139,1.15,548.12463,-278.36691,1035.41528,566.73651,-324.92911,952.22809,516.90057,-247.97961,908.72241
140,1.158,545.07098,-275.36737,1035.38513,561.00946,-325.44241,952.49866,514.2478,-245.9612,908.4541
141,1.167,541.60504,-274.01529,1035.4762,555.07184,-325.37433,953.3374,514.17462,-245.54823,907.7074
142,1.175,539.73767,-270.98169,1035.24756,549.65094,-325.71228,953.1972,514.58337,-245.16867,906.39703
143,1.183,537.00842,-269.65237,1035.71826,545.03827,-326.23239,954.15375,511.68448,-244.51241,905.75098
144,1.192,534.40698,-267.6416,1035.58264,539.64063,-327.33322,954.53918,509.43774,-244.72842,904.76337
145,1.2,531.06842,-265.57257,1034.65271,535.75641,-327.284,955.15295,509.41696,-245.2256,904.75494
146,1.208,528.97089,-265.33954,1035.17822,531.20746,-327.58868,955.92493,503.60648,-246.34802,904.31812
147,1.217,525.22375,-266.86203,1035.02844,527.55865,-327.92838,956.37762,502.90323,-247.62996,904.2486
148,1.225,520.51141,-266.3981,1035.86865,523.26624,-328.75583,956.79962,496.33597,-247.03696,904.88013
149,1.233,515.33136,-267.9404,1035.88147,519.90411,-329.07391,956.21295,490.22592,-248.35986,905.63788
150,1.242,510.80728,-268.82904,1035.58655,515.82605,-329.44989,955.90118,485.91187,-247.86098,905.10004
151,1.25,504.38913,-269.59979,1036.86755,512.8573,-329.36011,955.69977,477.85037,-247.85399,906.53394
152,1.258,499.08813,-271.75824,1037.32068,509.41232,-329.42709,955.18524,471.53241,-249.35399,908.96942
153,1.267,492.34695,-273.51306,1037.13489,505.32092,-329.54291,955.2254,462.62524,-249.3149,909.90027
154,1.275,487.34274,-275.09058,1038.88318,501.42041,-329.38354,954.91296,454.55301,-250.0748,910.43579
155,1.283,481.3255,-276.42337,1038.75513,497.7074,-328.15689,954.65253,450.0871,-249.70033,912.29767
156,1.292,475.70532,-277.073,1040.43066,493.91568,-328.05396,954.37567,440.24219,-250.22029,913.27423
157,1.3,469.64438,-278.72595,1040.5,489.93845,-327.61197,954.30536,431.47958,-250.63666,914.68475
158,1.308,463.89471,-280.17172,1041.00439,485.45563,-327.53455,954.05524,424.05264,-250.93271,915.74628
159,1.317,457.78873,-280.6355,1041.72314,481.573,-326.13522,953.16577,418.97198,-252.54543,916.19794
160,1.325,453.39438,-281.7883,1041.69458,477.39209,-325.5636,953.96912,411.08746,-254.28233,917.19257
161,1.333,448.50842,-282.28552,1042.06042,471.43594,-324.9631,953.67358,406.1033,-253.35825,917.03931
162,1.342,443.54706,-282.05411,1042.03931,465.58142,-324.42694,953.96002,402.47177,-251.67628,917.42548
163,1.35,438.96075,-281.19876,1041.85681,459.13895,-323.03595,954.63232,398.89703,-249.15994,917.07709
164,1.358,433.43982,-279.12918,1042.45923,452.39111,-323.91687,954.96106,396.03433,-246.42116,916.09814
165,1.367,429.72916,-275.44702,1042.05127,445.1889,-321.58133,955.66309,394.3754,-242.1992,915.45526
166,1.375,426.32568,-272.81927,1041.87256,438.84412,-321.05933,956.08948,392.58142,-240.15604,915.43811
167,1.383,422.5921,-268.45236,1041.5636,433.20422,-318.84052,956.5188,391.32709,-236.91557,914.05414
168,1.392,420.1604,-265.04968,1040.83167,426.90616,-318.84769,956.78809,390.69479,-235.42944,913.85504
169,1.4,417.59003,-262.76089,1040.41785,422.16452,-316.81348,956.98914,388.69733,-233.60982,912.90039
170,1.408,414.48981,-259.58939,1040.26245,415.8634,-316.22165,957.6438,387.45007,-232.71051,912.16467
171,1.417,410.74927,-257.66412,1040.03918,410.74991,-315.53006,958.26331,381.70584,-231.89839,912.3443
172,1.425,407.36713,-256.03592,1040.15295,406.69443,-314.57565,957.95911,378.54837,-230.5239,912.81329
173,1.433,402.43683,-255.07803,1039.55591,400.95206,-313.14081,957.99121,376.70386,-230.33177,912.5379
174,1.442,397.41794,-253.73944,1039.21802,396.59576,-313.45471,958.09418,366.76205,-227.4218,912.22906
175,1.45,392.37292,-252.70357,1039.90295,392.14478,-311.68631,957.85516,360.08029,-228.38275,912.4577
176,1.458,387.1759,-252.31232,1039.88647,387.79697,-310.01813,958.25983,353.27112,-225.41812,915.10431
177,1.467,381.52744,-251.73087,1040.29309,383.05264,-310.30457,957.64722,345.01102,-225.70724,915.22821
178,1.475,376.15286,-251.93159,1041.61865,379.05893,-308.4812,957.39471,337.65302,-225.60443,916.49774
179,1.483,369.53473,-252.28058,1041.14722,375.82529,-307.57025,957.23633,328.71503,-225.10628,917.08319
180,1.492,364.15048,-252.42613,1041.7063,371.84851,-306.00876,956.70288,319.94824,-225.20073,919.33356
181,1.5,357.51697,-253.66614,1042.69031,368.20142,-304.93756,956.30029,314.61649,-224.94167,919.50195
182,1.508,352.30502,-253.89938,1043.12183,364.15125,-303.98053,955.17444,307.32294,-224.52332,919.78912
183,1.517,345.65265,-254.86285,1042.85547,360.27612,-301.5314,955.22644,299.33453,-223.84134,921.58014
184,1.525,341.78128,-252.82086,1043.50977,357.10748,-299.90762,954.94775,293.11136,-224.6946,921.73584
185,1.533,335.58633,-253.75722,1043.25037,353.18997,-298.58194,955.69226,289.39072,-223.87476,922.15009
186,1.542,331.03592,-253.75346,1044.51978,348.6152,-296.18088,956.37238,284.94434,-222.24805,921.8902
187,1.55,327.20682,-251.33046,1045.07471,343.25208,-295.18716,957.15076,280.67151,-219.50943,922.94659
188,1.558,322.72424,-250.48181,1045.69641,337.65933,-293.50882,958.49133,279.6261,-216.22478,922.44666
189,1.567,318.96872,-246.84799,1046.52637,332.60031,-292.46545,959.15454,277.44336,-213.86143,922.1842
190,1.575,315.54959,-243.82892,1046.36682,326.83643,-291.3627,960.54523,277.39642,-210.85912,920.93439
191,1.583,313.4021,-238.8288,1046.90723,321.83701,-290.01105,961.75531,276.38202,-208.81174,920.38885
192,1.592,310.97198,-235.8797,1046.93762,316.94366,-288.12341,962.82507,273.99146,-206.98131,920.26825
193,1.6,310.77182,-231.30151,1046.95776,312.51889,-286.1723,964.27936,273.26099,-204.55261,920.02411
194,1.608,308.39206,-228.3644,1046.38391,308.81903,-285.40948,964.58527,272.18268,-203.25151,919.6377
