Frame#,Time,R.Forearm.x,R.Forearm.y,R.Forearm.z,R.Ulna.x,R.Ulna.y,R.Ulna.z,R.Radius.x,R.Radius.y,R.Radius.z
1,0,1112.83301,256.05161,984.30603,1158.13098,278.70288,903.87482,1094.18726,214.81848,839.28345
2,0.008,1109.1123,254.62634,983.92084,1152.57996,277.31369,903.74237,1096.65649,212.33006,839.21454
3,0.017,1105.51794,251.37051,983.73352,1148.50391,278.37814,903.95056,1093.33594,210.32233,838.81305
4,0.025,1101.32239,248.68744,983.55164,1143.95752,276.76984,905.25159,1090.59521,208.66719,839.98859
5,0.033,1098.85266,247.59096,984.04602,1140.04932,276.26892,904.44995,1086.27808,206.39799,839.36108
6,0.042,1094.84961,244.95609,983.44769,1136.32666,277.26651,904.71051,1088.0061,206.3844,837.37878
7,0.05,1091.24854,245.48654,982.73438,1133.19019,276.3244,904.93036,1085.90698,206.04025,837.22815
8,0.058,1088.52637,246.01581,982.79327,1128.64124,275.8826,903.71729,1084.52063,205.49524,837.2428
9,0.067,1085.02551,245.18535,983.13586,1127.54968,275.91583,904.73108,1081.15576,206.98196,838.28931
10,0.075,1082.53784,245.3521,981.88031,1124.49365,277.59372,904.29565,1078.12451,207.34988,838.12128
11,0.083,1078.9801,247.35368,981.51996,1123.41455,278.04108,903.80493,1074.37024,205.68575,837.20148
12,0.092,1077.35901,248.36536,981.9209,1121.57898,278.30698,902.81976,1071.72803,206.29689,837.38971
13,0.1,1074.6842,249.96016,981.79291,1119.03662,278.87445,903.17981,1067.98474,207.50545,837.33887
14,0.108,1071.96558,251.84729,981.59918,1118.5752,277.93607,902.72101,1064.005,209.30083,837.32281
15,0.117,1069.8158,252.77492,981.18677,1116.83716,277.62247,901.73401,1058.09827,210.90637,837.29236
16,0.125,1067.23682,255.49625,981.11267,1114.59058,277.4021,901.23596,1056.32886,211.87805,837.72424
17,0.133,1065.12927,257.48792,980.3819,1113.48657,277.58145,901.01947,1050.61621,213.39963,837.86359
18,0.142,1062.92407,258.53165,980.64819,1111.91089,278.24207,901.17798,1047.29773,215.44804,838.68665
19,0.15,1060.24011,260.63785,980.72778,1110.13257,278.80676,901.12421,1044.05286,216.16751,838.46857
20,0.158,1057.68738,260.55939,980.42889,1105.4541,277.8241,899.93756,1041.25,218.13791,838.40729
21,0.167,1054.7948,261.95679,980.46704,1102.71155,277.94189,900.29633,1038.48035,217.85307,837.7829
22,0.175,1051.42444,263.16464,980.06256,1100.08594,278.78174,899.78461,1035.19495,215.91925,837.67706
23,0.183,1047.60986,261.59128,980.54346,1095.35742,280.3342,899.91034,1031.82446,215.91895,837.40094
24,0.192,1044.27771,260.55045,980.31036,1090.71643,280.80313,900.36115,1031.64709,215.91995,837.24243
25,0.2,1039.27563,262.22519,979.34747,1086.22729,280.51288,899.12762,1028.07068,215.06532,835.93011
26,0.208,1035.15271,260.62689,979.16095,1081.23291,283.00314,898.69482,1023.64172,215.11865,836.97974
27,0.217,1030.33972,261.37393,978.01892,1076.64453,283.76074,897.74127,1022.26947,214.76984,834.90112
28,0.225,1025.87231,259.61194,977.55695,1071.31543,283.8063,897.82788,1017.47876,214.86452,836.17944
29,0.233,1021.71198,260.26352,975.91302,1066.50928,285.06512,896.60724,1013.90674,213.37718,832.79163
30,0.242,1018.25024,260.77789,974.88812,1062.53699,286.64545,896.02576,1011.84552,214.8882,831.80206
31,0.25,1013.19446,260.30273,973.48236,1057.71912,287.8071,894.79199,1008.77985,216.17007,830.51849
32,0.258,1007.63782,261.85056,972.9234,1052.02661,287.23792,893.72333,1004.97827,215.80341,829.98181
33,0.267,1004.13019,263.10886,971.97089,1048.4436,289.44394,893.32416,999.03339,215.94519,828.703
34,0.275,998.0036,263.73218,972.06812,1043.41797,291.38547,892.25635,996.31195,217.42613,828.64563
35,0.283,995.1593,264.62592,971.19025,1040.84216,292.44754,891.40564,995.49219,218.36227,826.48804
36,0.292,990.6405,265.56418,970.0495,1036.51343,293.42197,891.23505,990.85193,220.51379,827.51758
37,0.3,986.35632,267.44003,970.04504,1033.32825,293.33142,889.96753,980.3761,221.48738,825.47839
38,0.308,981.86694,270.07092,969.52911,1028.98218,294.478,890.70435,977.61505,223.45415,824.47119
39,0.317,977.98907,272.37039,969.44763,1025.72473,295.53979,888.92468,973.56622,226.36646,825.03534
40,0.325,972.94568,272.52798,968.7157,1022.41003,297.24973,888.25366,968.59381,228.28572,823.45795
41,0.333,968.97284,273.28906,967.91962,1018.49927,298.63757,888.24048,962.74164,231.95496,823.31982
42,0.342,965.24121,277.71356,967.65912,1015.37958,299.3129,887.94232,956.31305,232.39705,823.37939
43,0.35,962.31378,278.16675,968.15338,1011.59192,298.76382,887.28467,950.23755,236.04709,823.54205
44,0.358,957.23798,281.52243,967.73846,1007.43915,299.88348,886.66736,944.6441,236.88988,824.19543
45,0.367,953.69934,282.98904,968.0174,1004.15295,301.59811,886.62097,940.43933,239.31146,823.91425
46,0.375,949.95367,284.64023,967.97357,999.00458,301.73291,888.2887,934.35864,239.54924,823.4342
47,0.383,945.05316,285.0452,967.75171,994.88647,302.48422,887.61188,929.74597,239.29918,824.25842
48,0.392,940.28705,285.59955,967.65619,989.99609,303.44815,888.10114,926.3902,240.43582,825.23706
49,0.4,935.57318,286.07645,968.01379,983.93738,304.47278,888.35468,921.37909,238.78975,825.46234
50,0.408,930.77441,286.181,968.50861,978.59131,303.63034,888.60504,917.91797,239.89955,825.59985
51,0.417,925.98853,286.03653,969.46686,972.54059,306.27411,888.51831,915.53308,239.37341,826.15796
52,0.425,920.32373,286.9202,969.6828,967.36499,308.79584,888.91235,909.20947,239.24213,827.10126
53,0.433,915.78448,285.45416,970.59686,960.65417,308.66501,888.44458,906.51691,239.80463,828.25781
54,0.442,910.9986,286.31464,970.56744,955.0896,311.03827,890.09161,901.62854,237.40233,828.81146
55,0.45,906.14465,286.84711,970.37048,950.07288,312.06076,890.75116,895.63348,239.1264,828.79462
56,0.458,900.45227,287.47083,970.81958,944.48376,311.12814,891.04333,894.48328,239.63593,828.81427
57,0.467,897.11176,287.71136,971.59534,938.40027,312.49463,891.27545,888.26434,239.48174,829.04474
58,0.475,891.4328,288.1106,972.84979,934.21417,315.26334,890.3606,885.20099,239.91942,828.92053
59,0.483,887.18433,288.71408,972.7951,928.22961,315.51556,890.55353,879.59253,241.67833,828.54034
60,0.492,881.68262,291.25275,972.21735,923.60431,316.96979,890.57263,874.42426,240.16522,829.05334
61,0.5,878.25922,290.25861,971.86121,919.80328,317.64011,890.84106,867.98151,242.28311,829.70679
62,0.508,873.16162,292.30469,971.92218,914.91956,319.28299,890.66516,865.18457,244.60516,830.15381
63,0.517,869.67743,293.91644,972.03809,911.25977,318.24567,890.62109,859.58246,246.36382,830.50946
64,0.525,864.76825,296.0806,971.9292,906.46344,320.50629,889.84113,853.91656,245.93625,831.44733
65,0.533,861.29529,297.08307,972.6156,902.5116,322.24115,890.08142,847.49304,248.45959,831.63135
66,0.542,855.97675,298.53406,972.37469,899.50513,322.32895,889.79181,842.03223,250.48914,831.14801
67,0.55,851.84991,299.87708,972.99615,894.63263,322.23605,889.98322,833.80341,251.69107,831.4975
68,0.558,846.87738,301.62659,972.76691,891.69171,322.8978,890.4176,832.20282,252.24529,831.4538
69,0.567,843.27429,302.96268,972.68323,887.44781,323.67606,889.75073,824.66138,256.19281,831.63916
70,0.575,839.36377,304.37354,972.76233,883.76196,322.80844,889.94983,819.88757,255.91936,831.37732
71,0.583,836.16412,306.02481,973.5343,879.80847,322.47696,891.00287,814.47339,258.06229,831.56848
72,0.592,831.62006,306.60938,974.1662,875.375,324.93097,890.87341,812.07092,257.25241,830.4165
73,0.6,826.93866,306.28711,974.28302,870.57648,324.84723,890.68634,805.3089,256.82184,833.00574
74,0.608,823.58026,306.91248,973.94867,865.77692,324.72372,890.90637,803.93213,256.92984,833.92163
75,0.617,818.53925,306.56305,974.21515,861.01178,325.09589,890.51117,798.35645,254.7175,833.68811
76,0.625,814.47589,306.25461,973.90485,854.76123,325.71753,890.38123,794.88934,254.39146,834.21069
77,0.633,810.47876,306.14725,974.14081,850.57611,326.65668,890.4599,792.22534,253.11288,833.45721
78,0.642,805.22449,305.20959,975.14691,844.69116,326.37964,890.59955,788.6925,251.37746,833.32001
79,0.65,802.02734,301.77426,975.42084,838.49261,326.43954,890.60382,787.36401,250.12642,833.75067
80,0.658,797.65521,302.00266,975.28717,833.66522,326.19189,890.86896,782.10571,249.47144,834.24347
81,0.667,792.03491,300.16653,975.85229,828.89935,325.91022,891.46777,778.76337,250.01295,833.11682
82,0.675,789.21765,299.66907,975.16205,824.22052,327.45602,891.20831,777.20343,249.142,833.27606
83,0.683,784.51947,298.21124,974.06354,817.74707,326.72858,891.14355,773.18823,247.24287,833.48749
84,0.692,781.20264,297.58896,973.89941,814.24146,326.17804,890.67963,769.28973,247.82207,833.23248
85,0.7,778.26593,297.42429,974.04028,808.96899,326.25156,890.67694,766.58575,247.5674,833.28375
86,0.708,773.98981,297.18561,973.86414,805.18549,327.15948,890.15741,764.41382,247.29973,832.53595
87,0.717,769.54187,296.75311,973.24194,801.87152,327.57263,889.66589,756.66742,247.85681,832.43768
88,0.725,766.29987,296.30658,972.93298,798.0672,326.4191,889.48254,753.96216,246.69974,831.69202
89,0.733,762.22876,297.2814,971.72876,795.34149,326.39883,888.41107,750.10864,246.34221,831.13763
90,0.742,759.20947,298.25421,971.87524,792.05756,326.32346,887.61139,745.92389,247.44502,830.48657
91,0.75,753.70203,299.10367,971.39795,789.06152,326.10162,885.96124,740.01385,247.40501,830.25745
92,0.758,749.94995,299.88898,969.60266,786.71753,325.63486,885.55884,735.55872,247.64304,829.97852
93,0.767,747.71747,299.98621,968.8562,783.91486,326.09787,884.94427,730.44434,248.17365,830.24622
94,0.775,744.25171,302.27118,967.86804,780.47748,325.0155,883.84406,724.7489,249.40685,828.784
95,0.783,740.90991,301.52194,966.60461,778.15472,324.67548,882.97882,717.56,249.74007,828.98425
96,0.792,734.92065,302.24652,965.84045,775.40607,324.40729,882.98413,716.24725,250.28906,828.48431
97,0.8,732.6535,303.32199,966.12872,771.75714,322.91998,882.19617,709.92853,250.99477,828.1264
98,0.808,730.44153,303.63574,965.47144,769.04913,321.83249,882.40991,706.77124,250.84439,827.79736
99,0.817,726.93427,301.89438,965.87708,765.01581,320.94629,881.69354,704.19202,250.14925,827.17621
100,0.825,723.41937,302.29358,965.80499,761.10693,320.2612,881.54303,701.40381,247.66606,826.52588
101,0.833,718.80212,300.48523,965.25299,757.16052,319.61121,881.56409,698.60059,246.59332,826.12427
102,0.842,716.07379,299.35391,965.40802,752.36224,319.06012,881.23236,698.20428,244.62794,826.12915
103,0.85,711.49512,297.77142,965.4444,747.50055,319.07901,881.37421,695.15491,244.36971,826.30975
104,0.858,706.78497,293.20206,965.8454,742.74951,318.30371,881.40546,691.20801,242.24818,826.31586
105,0.867,704.16766,292.03497,965.33966,737.55542,318.5954,881.63464,690.56604,240.18755,825.92957
106,0.875,699.53339,290.44937,965.71472,733.1449,317.91293,882.28442,686.76184,237.08455,825.1123
107,0.883,694.94434,288.86221,965.94611,728.50983,317.6413,881.93707,683.77258,236.52133,824.70728
108,0.892,691.37122,287.71933,965.69543,723.81293,317.00122,882.60699,681.01404,234.84019,824.69843
109,0.9,687.55591,286.57904,965.52051,718.59827,316.05951,883.36389,678.40802,234.92378,824.67334
110,0.908,684.46637,284.59076,966.172,713.90082,315.67554,883.00037,676.95667,234.16063,824.76959
111,0.917,679.67969,282.57706,967.78046,710.54297,315.18652,884.20868,671.68695,232.80167,824.64392
112,0.925,676.39075,281.74457,968.12701,707.04828,314.10385,884.25958,666.86163,233.81772,824.89862
113,0.933,671.39807,279.94885,968.18225,703.96948,313.84894,884.008,664.0589,233.84323,824.80042
114,0.942,668.38556,281.15729,967.51025,700.75439,313.11584,885.11578,657.90039,232.87408,825.83368
115,0.95,663.82904,281.60043,969.02039,697.67902,312.22858,885.51013,656.39459,233.46541,825.86035
116,0.958,659.84686,280.55606,968.18158,695.23633,312.01172,886.08575,651.01971,233.05367,827.70782
117,0.967,656.1181,281.97092,969.15399,692.09143,311.25058,887.04443,645.98291,233.03423,828.32959
118,0.975,652.02148,281.99292,969.55005,690.09961,310.59967,887.38782,643.10205,231.9767,827.98328
119,0.983,646.99811,281.56326,971.13123,685.87927,310.31567,888.34418,638.08057,232.7056,828.33325
120,0.992,644.65619,282.61374,971.41888,682.86066,309.90292,888.6958,634.97498,233.50728,828.37592
121,1,640.87677,283.05316,973.01666,681.45508,309.24707,889.72778,626.88605,234.40962,830.39532
122,1.008,636.56042,281.43381,973.66656,677.71021,307.87817,890.6369,623.22107,235.08473,831.06708
123,1.017,633.48682,282.38431,974.62201,674.95697,306.91275,891.47461,617.38043,235.21985,831.13135
124,1.025,629.59106,283.49475,976.32764,671.42108,305.20212,892.32788,613.93243,235.41289,833.56488
125,1.033,625.8667,282.20599,976.19519,668.8078,303.94205,893.70892,611.05835,234.82742,833.83649
126,1.042,623.6723,281.82379,977.23401,665.30475,303.8248,895.19269,604.16614,235.28508,836.23004
127,1.05,619.46405,280.74011,978.88245,660.20496,304.06561,896.82111,602.9162,233.71956,836.82709
128,1.058,614.90125,278.45413,979.79272,656.05511,303.09885,897.89807,601.71796,232.04697,836.9176
129,1.067,610.52893,275.44016,981.73694,651.2674,301.61768,898.96875,599.02582,229.12422,836.98816
130,1.075,606.28827,272.9975,982.49048,646.75598,302.10162,899.89899,596.29956,227.98248,838.7453
131,1.083,603.58057,272.9447,982.37274,642.72528,300.90479,901.14337,595.14014,227.42252,839.15686
132,1.092,598.36578,272.20157,983.52063,638.43658,300.09512,901.35498,587.91187,226.75745,840.36188
133,1.1,593.65137,268.71582,983.98773,633.57324,299.39435,903.12238,586.44763,225.92578,840.50482
134,1.108,590.79846,266.52151,984.54303,629.25769,299.54193,903.71051,583.1684,223.83232,840.84888
135,1.117,587.78827,265.46567,984.2522,624.85828,299.12897,904.68713,580.38354,224.85858,840.36237
136,1.125,584.61945,264.75851,984.84515,621.36365,298.65955,904.63757,578.6861,223.93146,840.12146
137,1.133,580.66229,264.67825,984.29431,617.46216,298.0238,904.76685,573.16443,222.88625,839.99176
138,1.142,576.37048,264.83392,984.20148,614.45502,298.16,904.74817,571.49164,223.83881,839.75323
139,1.15,574.63562,262.91412,984.86548,612.63391,296.83493,904.94061,568.1283,222.00766,840.16986
140,1.158,571.27234,263.12109,985.30176,609.13855,296.552,904.33502,563.51416,222.93034,839.89575
141,1.167,567.13196,264.99216,985.05066,607.0271,296.53946,904.25287,559.25708,223.43454,840.12488
142,1.175,565.57898,264.36923,985.57666,604.67029,295.51312,904.02783,554.68298,223.21103,840.4212
143,1.183,562.96014,265.26132,984.47937,603.42096,295.85077,903.98584,549.81,222.6438,841.19794
144,1.192,558.96606,266.41269,984.55634,600.93958,294.97678,904.02032,547.60913,223.83127,840.32141
145,1.2,557.09662,266.2276,984.49225,599.91425,294.85074,904.37042,541.49908,224.9688,842.46539
146,1.208,554.23193,268.19998,984.32831,597.80096,293.18726,904.078,538.72296,223.94533,842.11743
147,1.217,552.1684,269.22989,984.24896,596.61847,292.68106,903.57098,535.18262,224.77724,842.4682
148,1.225,550.1438,270.297,985.47144,596.10876,291.68002,903.74915,530.85492,227.1438,842.85437
149,1.233,547.9126,271.22278,986.00055,593.42413,292.19052,903.59406,526.69934,227.29449,842.58722
150,1.242,546.33734,270.38004,985.98877,591.98737,290.69003,904.50531,524.13293,227.30203,843.33398
151,1.25,543.23846,270.93277,985.92761,588.56476,292.01071,905.00146,522.0293,227.71872,843.83789
152,1.258,540.49512,269.99194,987.56842,586.13788,289.90903,905.25,519.01196,227.81487,844.06018
153,1.267,537.46716,271.61462,987.51038,583.40448,289.84857,904.84949,516.17957,225.81982,844.39899
154,1.275,534.28442,269.85556,987.40118,580.4375,289.7626,905.37744,516.68042,224.32742,844.30481
155,1.283,531.87006,268.22983,987.20575,576.06506,290.12265,906.37189,513.95703,223.09987,844.52417
156,1.292,527.22394,266.25418,987.04102,571.48376,288.68787,906.33777,511.01904,221.83829,844.32251
157,1.3,524.44733,266.69418,987.05835,567.22015,288.39313,906.03351,511.01904,221.83829,844.32251
158,1.308,519.26025,265.26685,987.11584,563.75867,290.41992,906.30884,507.65701,221.57729,845.41644
159,1.317,516.47083,263.99118,987.91803,559.67218,289.49039,906.12341,504.57245,219.50131,844.12555
160,1.325,514.11127,263.44504,987.49408,556.15887,289.90009,906.41345,504.28629,219.14778,843.54584
161,1.333,509.93759,262.97827,987.07813,551.99261,290.19321,906.83313,501.6189,218.72438,844.01794
162,1.342,506.3454,262.61948,987.24628,548.37463,290.82364,907.12335,496.6778,219.55132,842.78638
163,1.35,501.65152,261.37823,987.70819,545.32831,291.0556,907.26746,494.61868,219.55289,843.02972
164,1.358,498.79245,260.95184,987.59937,541.59351,291.65741,907.12396,491.65042,219.82291,844.22748
165,1.367,496.55136,262.72849,987.44189,538.9632,291.66812,907.22253,489.85025,220.01355,843.52698
166,1.375,492.77069,263.21774,987.0769,536.20667,292.37082,907.1842,485.51938,219.43729,844.30322
167,1.383,488.90378,264.65802,986.65753,533.03357,292.49704,906.53027,481.79352,220.94307,842.46051
168,1.392,485.50558,266.31711,985.70142,530.09851,293.29852,905.8692,477.91309,222.09807,843.31909
169,1.4,481.87634,267.60898,985.40863,527.61206,293.94998,905.74017,474.96362,223.52411,842.57025
170,1.408,479.98251,269.19345,985.27515,524.7041,295.07806,905.0213,470.07059,224.75334,843.1145
171,1.417,475.68509,271.0495,984.97797,523.0968,296.37155,905.46729,466.69867,226.52168,842.76245
172,1.425,472.4483,272.16876,985.22021,519.83722,297.51242,905.00214,461.99918,228.39645,842.11823
173,1.433,468.48306,275.31406,984.54413,517.58154,299.01727,905.0155,456.67752,231.45697,841.68719
174,1.442,465.21414,277.62244,983.82343,514.56329,298.23633,904.375,452.68454,233.32724,841.56464
175,1.45,462.84851,278.39456,984.00903,511.65088,299.69766,903.84564,447.54282,234.14061,841.54089
176,1.458,459.38431,279.41248,983.17987,508.06445,300.68246,903.26013,442.4425,238.34494,839.64441
177,1.467,455.91443,283.46307,982.10315,503.88052,301.28668,902.28992,438.61285,237.70117,839.74377
178,1.475,450.38083,283.45227,981.6272,499.68164,302.3273,901.08521,436.53537,237.87747,838.85602
179,1.483,447.33539,284.85782,980.76617,495.58878,303.4476,900.90479,431.94006,239.52414,837.81708
180,1.492,442.55405,285.14166,980.54498,490.31534,304.52478,899.86481,431.91858,239.83302,836.45306
181,1.5,437.45056,285.67554,979.59399,485.16556,305.7551,900.12292,425.70685,238.44716,836.38489
182,1.508,431.73169,284.83646,978.49152,478.17285,307.72882,898.78778,425.28076,238.38548,836.22809
183,1.517,427.25827,286.06595,977.49921,473.01202,308.87521,898.07764,421.06638,237.51697,833.815
184,1.525,421.83389,284.46838,977.69275,465.83548,308.77939,897.15015,418.62167,237.56863,833.19537
185,1.533,415.70529,285.86636,976.94269,461.20612,311.01514,896.84979,415.33035,237.64499,833.61328
186,1.542,410.30576,285.04492,976.06958,454.51468,311.94235,897.03668,411.32407,238.07925,833.01508
187,1.55,404.79913,284.46732,975.4472,449.65027,312.18555,896.07306,407.86929,237.75258,831.37317
188,1.558,400.29486,285.6351,975.08893,443.41019,314.00845,896.11908,404.61771,238.06445,831.37659
189,1.567,394.14169,286.03073,974.58344,438.1687,315.55627,895.27789,399.38593,240.4225,831.20416
190,1.575,390.16248,286.54861,973.08234,432.92126,317.75598,895.42578,394.11649,241.55174,830.44128
191,1.583,384.55994,287.63632,973.16589,428.22571,318.41525,895.32635,388.64835,244.23956,829.66455
192,1.592,379.47684,289.32767,972.0163,424.52377,320.42166,894.93048,383.70386,244.32657,829.33746
193,1.6,374.36765,292.67123,971.32385,420.32431,321.44785,893.79877,377.65933,247.98491,827.55188
194,1.608,370.61942,294.33783,970.18127,415.83237,323.47021,892.03015,370.60291,251.09413,826.69067
195,1.617,366.34299,297.75137,969.32147,412.45239,324.12708,891.31439,364.22974,252.9301,825.84833
196,1.625,361.91214,299.64694,968.78387,409.62848,326.66443,890.25299,359.10858,256.2106,825.17474
197,1.633,356.94498,302.47549,968.16534,406.66223,326.58768,889.79535,350.56476,259.2103,824.97681
198,1.642,352.34802,306.34235,967.67102,402.69717,327.44797,889.2782,344.81378,261.92685,823.89349
199,1.65,347.63007,308.31223,968.09351,399.76654,328.22101,888.78943,337.90826,263.09293,824.07227
200,1.658,344.2764,310.76184,968.6582,394.48785,328.11462,889.3175,332.91779,265.76791,823.66193
201,1.667,339.84329,311.05814,968.86115,390.72888,329.50403,889.37201,330.6434,265.45816,823.72986
