Frame#,Time,R.Forearm.x,R.Forearm.y,R.Forearm.z,R.Ulna.x,R.Ulna.y,R.Ulna.z,R.Radius.x,R.Radius.y,R.Radius.z
1,0,-12.47227,-197.838,720.79492,45.02217,-207.90288,649.77582,90.42805,-112.19208,660.93201
2,0.008,-12.47227,-197.838,720.79492,45.25303,-208.03714,649.11688,90.42805,-112.19208,660.93201
3,0.017,-12.47227,-197.838,720.79492,45.02217,-207.90288,649.77582,90.42805,-112.19208,660.93201
4,0.025,-12.47227,-197.838,720.79492,45.36301,-206.63065,649.23993,90.42805,-112.19208,660.93201
5,0.033,-12.47227,-197.838,720.79492,45.36301,-206.63065,649.23993,90.42805,-112.19208,660.93201
6,0.042,-12.47227,-197.838,720.79492,45.02217,-207.90288,649.77582,90.42805,-112.19208,660.93201
7,0.05,-12.47227,-197.838,720.79492,45.02217,-207.90288,649.77582,90.42805,-112.19208,660.93201
8,0.058,-12.47227,-197.838,720.79492,45.02217,-207.90288,649.77582,90.42805,-112.19208,660.93201
9,0.067,-12.47227,-197.838,720.79492,45.25303,-208.03714,649.11688,90.42805,-112.19208,660.93201
10,0.075,-12.90936,-199.01308,721.06451,45.25303,-208.03714,649.11688,90.26935,-112.75089,660.92767
11,0.083,-12.90936,-199.01308,721.06451,45.25303,-208.03714,649.11688,90.26935,-112.75089,660.92767
12,0.092,-12.90936,-199.01308,721.06451,45.25303,-208.03714,649.11688,90.26935,-112.75089,660.92767
13,0.1,-12.90936,-199.01308,721.06451,46.08979,-209.08626,649.3714,90.26935,-112.75089,660.92767
14,0.108,-12.90936,-199.01308,721.06451,45.25303,-208.03714,649.11688,90.26935,-112.75089,660.92767
15,0.117,-12.90936,-199.01308,721.06451,46.08979,-209.08626,649.3714,90.26935,-112.75089,660.92767
16,0.125,-12.90936,-199.01308,721.06451,46.08979,-209.08626,649.3714,90.26935,-112.75089,660.92767
17,0.133,-12.90936,-199.01308,721.06451,45.25303,-208.03714,649.11688,90.26935,-112.75089,660.92767
18,0.142,-12.90936,-199.01308,721.06451,46.08979,-209.08626,649.3714,90.26935,-112.75089,660.92767
19,0.15,-12.90936,-199.01308,721.06451,45.25303,-208.03714,649.11688,90.26935,-112.75089,660.92767
20,0.158,-12.90936,-199.01308,721.06451,45.25303,-208.03714,649.11688,90.26935,-112.75089,660.92767
21,0.167,-12.90936,-199.01308,721.06451,45.25303,-208.03714,649.11688,90.26935,-112.75089,660.92767
22,0.175,-12.90936,-199.01308,721.06451,45.25303,-208.03714,649.11688,90.26935,-112.75089,660.92767
23,0.183,-12.90936,-199.01308,721.06451,45.25303,-208.03714,649.11688,90.26935,-112.75089,660.92767
24,0.192,-12.90936,-199.01308,721.06451,45.25303,-208.03714,649.11688,90.26935,-112.75089,660.92767
25,0.2,-12.47227,-197.838,720.79492,45.59378,-206.76492,648.58087,90.42805,-112.19208,660.93201
26,0.208,-12.47227,-197.838,720.79492,45.59378,-206.76492,648.58087,90.42805,-112.19208,660.93201
27,0.217,-12.47227,-197.838,720.79492,45.59378,-206.76492,648.58087,90.42805,-112.19208,660.93201
28,0.225,-12.47227,-197.838,720.79492,45.59378,-206.76492,648.58087,89.90602,-111.52659,660.67352
29,0.233,-12.47227,-197.838,720.79492,45.59378,-206.76492,648.58087,89.77666,-111.19249,660.16742
30,0.242,-12.47227,-197.838,720.79492,45.36301,-206.63065,649.23993,89.77666,-111.19249,660.16742
31,0.25,-12.17308,-197.41548,720.88995,45.59378,-206.76492,648.58087,89.9353,-111.27441,660.01575
32,0.258,-12.47227,-197.838,720.79492,45.36301,-206.63065,649.23993,90.29881,-111.85812,660.42609
33,0.267,-12.47227,-197.838,720.79492,45.59378,-206.76492,648.58087,90.29881,-111.85812,660.42609
34,0.275,-12.47227,-197.838,720.79492,46.20014,-207.68108,649.49481,90.42805,-112.19208,660.93201
35,0.283,-12.47227,-197.838,720.79492,47.34688,-208.69283,649.48804,90.91708,-112.45306,660.81775
36,0.292,-12.17308,-197.41548,720.88995,47.34688,-208.69283,649.48804,90.42805,-112.19208,660.93201
37,0.3,-12.17308,-197.41548,720.88995,47.34688,-208.69283,649.48804,90.29881,-111.85812,660.42609
38,0.308,-12.47227,-197.838,720.79492,47.34688,-208.69283,649.48804,90.91708,-112.45306,660.81775
39,0.317,-12.47227,-197.838,720.79492,47.34688,-208.69283,649.48804,90.91708,-112.45306,660.81775
40,0.325,-12.47227,-197.838,720.79492,47.00548,-209.96291,650.02307,90.91708,-112.45306,660.81775
41,0.333,-12.47227,-197.838,720.79492,47.00548,-209.96291,650.02307,90.75834,-113.0118,660.81342
42,0.342,-13.2059,-198.46475,720.65265,47.00548,-209.96291,650.02307,91.14628,-113.30363,660.63928
43,0.35,-13.25311,-199.17021,721.21991,47.00548,-209.96291,650.02307,90.75834,-113.0118,660.81342
44,0.358,-12.87057,-198.15767,721.08484,47.00548,-209.96291,650.02307,90.75834,-113.0118,660.81342
45,0.367,-13.25311,-199.17021,721.21991,47.00548,-209.96291,650.02307,90.75834,-113.0118,660.81342
46,0.375,-12.27439,-198.25536,721.11145,47.00548,-209.96291,650.02307,90.75834,-113.0118,660.81342
47,0.383,-12.65673,-199.26778,721.24652,47.00548,-209.96291,650.02307,90.75834,-113.0118,660.81342
48,0.392,-12.65673,-199.26778,721.24652,47.00548,-209.96291,650.02307,90.75834,-113.0118,660.81342
49,0.4,-12.65673,-199.26778,721.24652,47.00548,-209.96291,650.02307,90.91708,-112.45306,660.81775
50,0.408,-12.27439,-198.25536,721.11145,47.00548,-209.96291,650.02307,90.91708,-112.45306,660.81775
51,0.417,-12.27439,-198.25536,721.11145,47.00548,-209.96291,650.02307,90.91708,-112.45306,660.81775
52,0.425,-12.27439,-198.25536,721.11145,47.34688,-208.69283,649.48804,90.91708,-112.45306,660.81775
53,0.433,-12.27439,-198.25536,721.11145,47.34688,-208.69283,649.48804,90.91708,-112.45306,660.81775
54,0.442,-12.27439,-198.25536,721.11145,47.34688,-208.69283,649.48804,90.91708,-112.45306,660.81775
55,0.45,-12.27439,-198.25536,721.11145,47.34688,-208.69283,649.48804,90.91708,-112.45306,660.81775
56,0.458,-12.27439,-198.25536,721.11145,47.34688,-208.69283,649.48804,90.91708,-112.45306,660.81775
57,0.467,-12.27439,-198.25536,721.11145,47.34688,-208.69283,649.48804,90.91708,-112.45306,660.81775
58,0.475,-12.27439,-198.25536,721.11145,47.34688,-208.69283,649.48804,90.91708,-112.45306,660.81775
59,0.483,-12.27439,-198.25536,721.11145,46.43086,-207.81522,648.83582,90.91708,-112.45306,660.81775
60,0.492,-12.27439,-198.25536,721.11145,46.43086,-207.81522,648.83582,90.91708,-112.45306,660.81775
61,0.5,-12.27439,-198.25536,721.11145,46.43086,-207.81522,648.83582,90.91708,-112.45306,660.81775
62,0.508,-12.27439,-198.25536,721.11145,46.43086,-207.81522,648.83582,90.91708,-112.45306,660.81775
63,0.517,-12.27439,-198.25536,721.11145,46.43086,-207.81522,648.83582,90.91708,-112.45306,660.81775
64,0.525,-12.27439,-198.25536,721.11145,46.43086,-207.81522,648.83582,90.91708,-112.45306,660.81775
65,0.533,-12.61674,-198.09448,720.4826,46.43086,-207.81522,648.83582,90.91708,-112.45306,660.81775
66,0.542,-12.27439,-198.25536,721.11145,46.43086,-207.81522,648.83582,90.91708,-112.45306,660.81775
67,0.55,-12.61674,-198.09448,720.4826,46.08979,-209.08626,649.3714,90.42805,-112.19208,660.93201
68,0.558,-12.27439,-198.25536,721.11145,46.08979,-209.08626,649.3714,90.42805,-112.19208,660.93201
69,0.567,-12.27439,-198.25536,721.11145,46.08979,-209.08626,649.3714,90.42805,-112.19208,660.93201
70,0.575,-12.65673,-199.26778,721.24652,46.08979,-209.08626,649.3714,90.26935,-112.75089,660.92767
71,0.583,-12.65673,-199.26778,721.24652,46.08979,-209.08626,649.3714,90.26935,-112.75089,660.92767
72,0.592,-12.65673,-199.26778,721.24652,46.08979,-209.08626,649.3714,90.26935,-112.75089,660.92767
73,0.6,-12.65673,-199.26778,721.24652,46.08979,-209.08626,649.3714,90.26935,-112.75089,660.92767
74,0.608,-12.65673,-199.26778,721.24652,45.25303,-208.03714,649.11688,90.26935,-112.75089,660.92767
75,0.617,-12.65673,-199.26778,721.24652,45.25303,-208.03714,649.11688,90.26935,-112.75089,660.92767
76,0.625,-12.65673,-199.26778,721.24652,46.08979,-209.08626,649.3714,90.26935,-112.75089,660.92767
77,0.633,-12.65673,-199.26778,721.24652,45.25303,-208.03714,649.11688,90.42805,-112.19208,660.93201
78,0.642,-12.65673,-199.26778,721.24652,45.25303,-208.03714,649.11688,90.42805,-112.19208,660.93201
79,0.65,-12.27439,-198.25536,721.11145,45.25303,-208.03714,649.11688,90.42805,-112.19208,660.93201
80,0.658,-12.65673,-199.26778,721.24652,45.25303,-208.03714,649.11688,90.42805,-112.19208,660.93201
81,0.667,-12.27439,-198.25536,721.11145,45.25303,-208.03714,649.11688,90.42805,-112.19208,660.93201
82,0.675,-12.27439,-198.25536,721.11145,45.25303,-208.03714,649.11688,90.42805,-112.19208,660.93201
83,0.683,-12.27439,-198.25536,721.11145,45.36301,-206.63065,649.23993,90.42805,-112.19208,660.93201
84,0.692,-12.27439,-198.25536,721.11145,46.08979,-209.08626,649.3714,90.42805,-112.19208,660.93201
85,0.7,-12.27439,-198.25536,721.11145,46.43086,-207.81522,648.83582,90.42805,-112.19208,660.93201
86,0.708,-12.27439,-198.25536,721.11145,46.43086,-207.81522,648.83582,90.42805,-112.19208,660.93201
87,0.717,-12.27439,-198.25536,721.11145,46.43086,-207.81522,648.83582,90.42805,-112.19208,660.93201
88,0.725,-12.27439,-198.25536,721.11145,47.34688,-208.69283,649.48804,90.42805,-112.19208,660.93201
89,0.733,-12.27439,-198.25536,721.11145,45.59378,-206.76492,648.58087,90.42805,-112.19208,660.93201
90,0.742,-12.27439,-198.25536,721.11145,47.00548,-209.96291,650.02307,90.42805,-112.19208,660.93201
91,0.75,-12.27439,-198.25536,721.11145,46.08979,-209.08626,649.3714,90.42805,-112.19208,660.93201
92,0.758,-12.27439,-198.25536,721.11145,46.08979,-209.08626,649.3714,90.42805,-112.19208,660.93201
93,0.767,-12.65673,-199.26778,721.24652,46.08979,-209.08626,649.3714,90.42805,-112.19208,660.93201
94,0.775,-12.65673,-199.26778,721.24652,46.08979,-209.08626,649.3714,90.42805,-112.19208,660.93201
95,0.783,-12.27439,-198.25536,721.11145,46.08979,-209.08626,649.3714,90.42805,-112.19208,660.93201
96,0.792,-12.27439,-198.25536,721.11145,46.08979,-209.08626,649.3714,90.42805,-112.19208,660.93201
97,0.8,-12.27439,-198.25536,721.11145,46.08979,-209.08626,649.3714,90.42805,-112.19208,660.93201
98,0.808,-12.27439,-198.25536,721.11145,45.25303,-208.03714,649.11688,90.42805,-112.19208,660.93201
99,0.817,-12.27439,-198.25536,721.11145,45.25303,-208.03714,649.11688,90.42805,-112.19208,660.93201
100,0.825,-12.27439,-198.25536,721.11145,46.43086,-207.81522,648.83582,90.42805,-112.19208,660.93201
101,0.833,-12.27439,-198.25536,721.11145,46.08979,-209.08626,649.3714,90.42805,-112.19208,660.93201
102,0.842,-12.27439,-198.25536,721.11145,45.59378,-206.76492,648.58087,90.42805,-112.19208,660.93201
103,0.85,-12.45739,-197.98804,720.91345,45.59378,-206.76492,648.58087,90.42805,-112.19208,660.93201
104,0.858,-12.45739,-197.98804,720.91345,45.59378,-206.76492,648.58087,90.29881,-111.85812,660.42609
105,0.867,-12.87057,-198.15767,721.08484,45.36301,-206.63065,649.23993,90.42805,-112.19208,660.93201
106,0.875,-12.87057,-198.15767,721.08484,45.59378,-206.76492,648.58087,89.9353,-111.27441,660.01575
107,0.883,-12.87057,-198.15767,721.08484,45.59378,-206.76492,648.58087,89.9353,-111.27441,660.01575
108,0.892,-12.82338,-197.45235,720.51764,45.36301,-206.63065,649.23993,90.0647,-111.60852,660.52185
109,0.9,-12.82338,-197.45235,720.51764,45.36301,-206.63065,649.23993,90.0647,-111.60852,660.52185
110,0.908,-12.82338,-197.45235,720.51764,45.36301,-206.63065,649.23993,90.0647,-111.60852,660.52185
111,0.917,-12.47227,-197.838,720.79492,45.36301,-206.63065,649.23993,90.8197,-111.7199,661.09015
112,0.925,-12.47227,-197.838,720.79492,45.36301,-206.63065,649.23993,90.42805,-112.19208,660.93201
113,0.933,-12.47227,-197.838,720.79492,45.36301,-206.63065,649.23993,90.42805,-112.19208,660.93201
114,0.942,-12.47227,-197.838,720.79492,46.20014,-207.68108,649.49481,90.42805,-112.19208,660.93201
115,0.95,-12.47227,-197.838,720.79492,45.25303,-208.03714,649.11688,90.42805,-112.19208,660.93201
116,0.958,-12.47227,-197.838,720.79492,45.25303,-208.03714,649.11688,90.42805,-112.19208,660.93201
117,0.967,-12.47227,-197.838,720.79492,46.08979,-209.08626,649.3714,90.42805,-112.19208,660.93201
118,0.975,-12.47227,-197.838,720.79492,46.08979,-209.08626,649.3714,90.42805,-112.19208,660.93201
119,0.983,-12.47227,-197.838,720.79492,46.08979,-209.08626,649.3714,90.42805,-112.19208,660.93201
120,0.992,-12.47227,-197.838,720.79492,47.00548,-209.96291,650.02307,90.91708,-112.45306,660.81775
121,1,-12.47227,-197.838,720.79492,46.08979,-209.08626,649.3714,90.42805,-112.19208,660.93201
122,1.008,-12.47227,-197.838,720.79492,46.08979,-209.08626,649.3714,90.42805,-112.19208,660.93201
123,1.017,-12.47227,-197.838,720.79492,47.00548,-209.96291,650.02307,90.42805,-112.19208,660.93201
124,1.025,-12.47227,-197.838,720.79492,46.08979,-209.08626,649.3714,90.91708,-112.45306,660.81775
125,1.033,-12.47227,-197.838,720.79492,47.34688,-208.69283,649.48804,90.91708,-112.45306,660.81775
126,1.042,-12.47227,-197.838,720.79492,47.34688,-208.69283,649.48804,90.91708,-112.45306,660.81775
127,1.05,-12.17308,-197.41548,720.88995,46.08979,-209.08626,649.3714,90.91708,-112.45306,660.81775
128,1.058,-12.47227,-197.838,720.79492,46.43086,-207.81522,648.83582,90.91708,-112.45306,660.81775
129,1.067,-12.17308,-197.41548,720.88995,47.34688,-208.69283,649.48804,90.91708,-112.45306,660.81775
130,1.075,-12.47227,-197.838,720.79492,46.43086,-207.81522,648.83582,90.91708,-112.45306,660.81775
131,1.083,-12.47227,-197.838,720.79492,47.11612,-208.55858,650.14667,90.6529,-111.50102,660.63385
132,1.092,-12.17308,-197.41548,720.88995,46.20014,-207.68108,649.49481,90.94556,-111.39745,660.56573
133,1.1,-12.17308,-197.41548,720.88995,46.20014,-207.68108,649.49481,90.77868,-111.17847,660.10931
134,1.108,-12.17308,-197.41548,720.88995,47.11612,-208.55858,650.14667,89.9353,-111.27441,660.01575
135,1.117,-12.47227,-197.838,720.79492,46.20014,-207.68108,649.49481,90.94556,-111.39745,660.56573
136,1.125,-12.47227,-197.838,720.79492,45.36301,-206.63065,649.23993,91.06766,-110.97066,660.35565
137,1.133,-12.17308,-197.41548,720.88995,45.36301,-206.63065,649.23993,90.41726,-110.57127,660.09686
138,1.142,-12.17308,-197.41548,720.88995,45.36301,-206.63065,649.23993,90.28948,-110.91731,660.22363
139,1.15,-12.17308,-197.41548,720.88995,45.36301,-206.63065,649.23993,90.41726,-110.57127,660.09686
140,1.158,-12.47227,-197.838,720.79492,45.36301,-206.63065,649.23993,90.41726,-110.57127,660.09686
141,1.167,-12.17308,-197.41548,720.88995,45.36301,-206.63065,649.23993,90.28948,-110.91731,660.22363
142,1.175,-12.17308,-197.41548,720.88995,45.36301,-206.63065,649.23993,90.41726,-110.57127,660.09686
143,1.183,-12.17308,-197.41548,720.88995,45.36301,-206.63065,649.23993,90.28948,-110.91731,660.22363
144,1.192,-12.17308,-197.41548,720.88995,45.36301,-206.63065,649.23993,89.89716,-110.3185,659.84094
145,1.2,-12.47227,-197.838,720.79492,45.36301,-206.63065,649.23993,90.02492,-109.97238,659.71417
146,1.208,-12.17308,-197.41548,720.88995,45.36301,-206.63065,649.23993,89.91229,-109.94731,659.88513
147,1.217,-12.17308,-197.41548,720.88995,45.36301,-206.63065,649.23993,89.89716,-110.3185,659.84094
148,1.225,-12.47227,-197.838,720.79492,45.59837,-205.59277,648.81793,89.78452,-110.29342,660.0119
149,1.233,-12.47227,-197.838,720.79492,45.36301,-206.63065,649.23993,89.78452,-110.29342,660.0119
150,1.242,-12.47227,-197.838,720.79492,46.20014,-207.68108,649.49481,89.78452,-110.29342,660.0119
151,1.25,-12.17308,-197.41548,720.88995,45.36301,-206.63065,649.23993,89.91229,-109.94731,659.88513
152,1.258,-12.17308,-197.41548,720.88995,45.36301,-206.63065,649.23993,89.91229,-109.94731,659.88513
153,1.267,-12.47227,-197.838,720.79492,45.36301,-206.63065,649.23993,89.78452,-110.29342,660.0119
154,1.275,-12.47227,-197.838,720.79492,45.36301,-206.63065,649.23993,89.91229,-109.94731,659.88513
155,1.283,-12.56571,-197.04732,720.63031,45.36301,-206.63065,649.23993,89.91229,-109.94731,659.88513
156,1.292,-12.61296,-197.75269,721.19745,45.36301,-206.63065,649.23993,89.91229,-109.94731,659.88513
157,1.3,-12.45739,-197.98804,720.91345,45.59837,-205.59277,648.81793,89.91229,-109.94731,659.88513
158,1.308,-12.45739,-197.98804,720.91345,45.59837,-205.59277,648.81793,89.91229,-109.94731,659.88513
159,1.317,-12.27439,-198.25536,721.11145,45.36301,-206.63065,649.23993,89.91229,-109.94731,659.88513
160,1.325,-12.01688,-197.85037,721.22394,45.59837,-205.59277,648.81793,89.91229,-109.94731,659.88513
161,1.333,-12.23755,-197.40446,720.49402,45.36301,-206.63065,649.23993,89.78452,-110.29342,660.0119
162,1.342,-12.45739,-197.98804,720.91345,45.36301,-206.63065,649.23993,89.78452,-110.29342,660.0119
163,1.35,-12.27439,-198.25536,721.11145,45.59837,-205.59277,648.81793,89.95158,-110.51254,660.46851
164,1.358,-12.27439,-198.25536,721.11145,45.36301,-206.63065,649.23993,89.95158,-110.51254,660.46851
165,1.367,-12.27439,-198.25536,721.11145,45.36301,-206.63065,649.23993,89.95158,-110.51254,660.46851
166,1.375,-12.27439,-198.25536,721.11145,45.36301,-206.63065,649.23993,89.95158,-110.51254,660.46851
167,1.383,-12.27439,-198.25536,721.11145,45.36301,-206.63065,649.23993,89.95158,-110.51254,660.46851
168,1.392,-12.27439,-198.25536,721.11145,45.36301,-206.63065,649.23993,89.95158,-110.51254,660.46851
169,1.4,-12.27439,-198.25536,721.11145,45.36301,-206.63065,649.23993,89.55973,-110.98478,660.31024
170,1.408,-12.27439,-198.25536,721.11145,45.36301,-206.63065,649.23993,89.55973,-110.98478,660.31024
171,1.417,-12.27439,-198.25536,721.11145,45.36301,-206.63065,649.23993,89.55973,-110.98478,660.31024
172,1.425,-12.27439,-198.25536,721.11145,45.36301,-206.63065,649.23993,89.55973,-110.98478,660.31024
173,1.433,-12.65673,-199.26778,721.24652,45.02217,-207.90288,649.77582,89.55973,-110.98478,660.31024
174,1.442,-12.27439,-198.25536,721.11145,45.02217,-207.90288,649.77582,89.67244,-111.00986,660.13928
175,1.45,-12.01688,-197.85037,721.22394,45.02217,-207.90288,649.77582,89.67244,-111.00986,660.13928
176,1.458,-12.01688,-197.85037,721.22394,45.36301,-206.63065,649.23993,89.67244,-111.00986,660.13928
177,1.467,-12.01688,-197.85037,721.22394,45.02217,-207.90288,649.77582,89.67244,-111.00986,660.13928
178,1.475,-12.01688,-197.85037,721.22394,45.36301,-206.63065,649.23993,89.55973,-110.98478,660.31024
179,1.483,-12.01688,-197.85037,721.22394,46.25934,-207.55124,649.79242,89.95158,-110.51254,660.46851
180,1.492,-12.01688,-197.85037,721.22394,46.25934,-207.55124,649.79242,89.95158,-110.51254,660.46851
181,1.5,-12.01688,-197.85037,721.22394,45.59837,-205.59277,648.81793,89.95158,-110.51254,660.46851
182,1.508,-12.01688,-197.85037,721.22394,45.59837,-205.59277,648.81793,89.95158,-110.51254,660.46851
183,1.517,-12.01688,-197.85037,721.22394,45.59837,-205.59277,648.81793,89.95158,-110.51254,660.46851
184,1.525,-12.01688,-197.85037,721.22394,45.59837,-205.59277,648.81793,89.95158,-110.51254,660.46851
185,1.533,-12.01688,-197.85037,721.22394,45.59837,-205.59277,648.81793,90.07366,-110.08562,660.25836
186,1.542,-12.01688,-197.85037,721.22394,45.59837,-205.59277,648.81793,90.07366,-110.08562,660.25836
187,1.55,-12.01688,-197.85037,721.22394,45.59837,-205.59277,648.81793,90.07366,-110.08562,660.25836
188,1.558,-11.63426,-196.83853,721.08923,45.59837,-205.59277,648.81793,90.07366,-110.08562,660.25836
189,1.567,-11.63426,-196.83853,721.08923,45.59837,-205.59277,648.81793,90.07366,-110.08562,660.25836
190,1.575,-11.63426,-196.83853,721.08923,45.59837,-205.59277,648.81793,90.07366,-110.08562,660.25836
191,1.583,-11.63426,-196.83853,721.08923,45.59837,-205.59277,648.81793,89.91229,-109.94731,659.88513
192,1.592,-11.63426,-196.83853,721.08923,45.59837,-205.59277,648.81793,89.91229,-109.94731,659.88513
193,1.6,-11.63426,-196.83853,721.08923,45.59837,-205.59277,648.81793,89.91229,-109.94731,659.88513
194,1.608,-11.63426,-196.83853,721.08923,45.59837,-205.59277,648.81793,89.91229,-109.94731,659.88513
195,1.617,-11.63426,-196.83853,721.08923,45.59837,-205.59277,648.81793,89.91229,-109.94731,659.88513
196,1.625,-11.63426,-196.83853,721.08923,45.59837,-205.59277,648.81793,89.91229,-109.94731,659.88513
197,1.633,-11.73561,-196.24098,720.62073,45.59837,-205.59277,648.81793,89.91229,-109.94731,659.88513
198,1.642,-11.73561,-196.24098,720.62073,45.59837,-205.59277,648.81793,89.91229,-109.94731,659.88513
199,1.65,-11.73561,-196.24098,720.62073,45.59837,-205.59277,648.81793,89.91229,-109.94731,659.88513
200,1.658,-11.73561,-196.24098,720.62073,45.59837,-205.59277,648.81793,89.91229,-109.94731,659.88513
