Frame#,Time,L.Forearm.x,L.Forearm.y,L.Forearm.z,L.Ulna.x,L.Ulna.y,L.Ulna.z,L.Radius.x,L.Radius.y,L.Radius.z
1,0,576.66046,228.04515,946.41052,637.53613,280.11319,930.49121,661.18372,188.17213,939.0387
2,0.008,576.70148,228.02649,946.6405,637.53613,280.11319,930.49121,660.961,188.98817,938.58441
3,0.017,576.45367,228.08131,946.62018,637.53613,280.11319,930.49121,661.25854,188.96561,938.64032
4,0.025,576.45367,228.08131,946.62018,637.68182,280.22119,930.39587,661.44916,188.0567,938.98718
5,0.033,576.70148,228.02649,946.6405,637.53613,280.11319,930.49121,661.18372,188.17213,939.0387
6,0.042,576.70148,228.02649,946.6405,637.53613,280.11319,930.49121,661.18372,188.17213,939.0387
7,0.05,576.45367,228.08131,946.62018,637.53613,280.11319,930.49121,661.73737,189.13651,938.50342
8,0.058,577.02466,227.8091,946.51678,637.53613,280.11319,930.49121,661.48004,189.23538,938.54486
9,0.067,576.70148,228.02649,946.6405,637.53613,280.11319,930.49121,661.18372,188.17213,939.0387
10,0.075,576.70148,228.02649,946.6405,637.53613,280.11319,930.49121,660.51691,187.51996,939.40167
11,0.083,576.66046,228.04515,946.41052,637.53613,280.11319,930.49121,660.51691,187.51996,939.40167
12,0.092,576.45367,228.08131,946.62018,637.53613,280.11319,930.49121,660.51691,187.51996,939.40167
13,0.1,576.70148,228.02649,946.6405,637.53613,280.11319,930.49121,660.22906,187.58153,939.45605
14,0.108,576.70148,228.02649,946.6405,637.68182,280.22119,930.39587,660.15582,186.45689,939.98859
15,0.117,576.45367,228.08131,946.62018,637.68182,280.22119,930.39587,660.43127,187.79456,939.26959
16,0.125,576.70148,228.02649,946.6405,637.68182,280.22119,930.39587,660.71912,187.733,939.21515
17,0.133,576.70148,228.02649,946.6405,637.68182,280.22119,930.39587,660.71912,187.733,939.21515
18,0.142,576.32031,229.28473,946.72437,637.68182,280.22119,930.39587,660.43127,187.79456,939.26959
19,0.15,576.91272,229.25984,946.56427,637.53613,280.11319,930.49121,661.86914,189.21768,938.48389
20,0.158,576.91272,229.25984,946.56427,637.53613,280.11319,930.49121,662.1889,188.28297,939.60449
21,0.167,576.99713,229.34196,946.6875,637.53613,280.11319,930.49121,661.98938,189.35359,938.72516
22,0.175,576.42419,228.68985,947.16852,637.55316,280.19998,931.11176,661.98938,189.35359,938.72516
23,0.183,576.92761,228.57162,947.02466,637.54303,279.97198,931.37958,661.74225,189.74031,939.24475
24,0.192,577.1413,228.22444,947.46704,637.90948,279.95062,931.78912,660.81714,187.86676,939.39142
25,0.2,576.86761,229.15758,947.08759,637.98151,279.77982,931.96045,660.89178,188.14787,939.95367
26,0.208,577.25903,228.94298,946.99194,638.40662,279.67871,932.08807,660.89178,188.14787,939.95367
27,0.217,576.62067,228.86833,947.24347,637.98151,279.77982,931.96045,660.68958,187.93486,940.14008
28,0.225,577.22571,228.30653,947.59021,637.98151,279.77982,931.96045,660.68958,187.93486,940.14008
29,0.233,576.84967,228.46938,947.94159,637.98151,279.77982,931.96045,660.59576,188.10663,940.34863
30,0.242,576.84967,228.46938,947.94159,637.98151,279.77982,931.96045,660.37097,186.60486,940.94354
31,0.25,576.83435,228.52113,947.68579,637.98151,279.77982,931.96045,660.68958,187.93486,940.14008
32,0.258,576.84967,228.46938,947.94159,637.98151,279.77982,931.96045,660.59576,188.10663,940.34863
33,0.267,576.84967,228.46938,947.94159,638.40662,279.67871,932.08807,660.59576,188.10663,940.34863
34,0.275,576.84967,228.46938,947.94159,637.98151,279.77982,931.96045,661.57855,188.80711,940.23029
35,0.283,577.0744,228.60283,948.17438,637.98151,279.77982,931.96045,661.73029,187.64378,941.23682
36,0.292,577.0744,228.60283,948.17438,637.98151,279.77982,931.96045,661.54126,188.5251,940.85107
37,0.3,576.84967,228.46938,947.94159,638.40662,279.67871,932.08807,661.39044,189.65742,939.84521
38,0.308,576.84967,228.46938,947.94159,638.40662,279.67871,932.08807,660.59576,188.10663,940.34863
39,0.317,577.0744,228.60283,948.17438,638.83856,280.14087,932.14038,660.59576,188.10663,940.34863
40,0.325,576.84967,228.46938,947.94159,638.40662,279.67871,932.08807,661.70862,189.50467,939.7594
41,0.333,577.06177,228.11653,948.26251,638.61835,279.39163,932.39191,661.70862,189.50467,939.7594
42,0.342,577.58466,227.69077,948.70789,639.05017,279.85379,932.44415,661.70862,189.50467,939.7594
43,0.35,577.37256,228.04369,948.38708,639.05017,279.85379,932.44415,661.70862,189.50467,939.7594
44,0.358,577.37256,228.04369,948.38708,639.06628,279.94144,933.06476,661.70862,189.50467,939.7594
45,0.367,577.37256,228.04369,948.38708,639.06628,279.94144,933.06476,661.70862,189.50467,939.7594
46,0.375,577.58466,227.69077,948.70789,639.06628,279.94144,933.06476,661.70862,189.50467,939.7594
47,0.383,577.91626,227.70131,948.84265,639.06628,279.94144,933.06476,660.59576,188.10663,940.34863
48,0.392,578.41882,227.51537,948.82068,639.06628,279.94144,933.06476,660.59576,188.10663,940.34863
49,0.4,577.91626,227.70131,948.84265,639.06628,279.94144,933.06476,660.59576,188.10663,940.34863
50,0.408,577.91626,227.70131,948.84265,639.05017,279.85379,932.44415,660.59576,188.10663,940.34863
51,0.417,577.91626,227.70131,948.84265,639.06628,279.94144,933.06476,660.59576,188.10663,940.34863
52,0.425,578.26166,228.22545,948.93353,639.05017,279.85379,932.44415,660.59576,188.10663,940.34863
53,0.433,577.91626,227.70131,948.84265,639.06628,279.94144,933.06476,660.59576,188.10663,940.34863
54,0.442,577.70416,228.05421,948.52185,639.06628,279.94144,933.06476,660.59576,188.10663,940.34863
55,0.45,577.64111,228.10709,948.78674,639.06628,279.94144,933.06476,660.59576,188.10663,940.34863
56,0.458,577.97278,228.20691,949.07776,639.06628,279.94144,933.06476,660.59576,188.10663,940.34863
57,0.467,578.09326,228.01263,948.90442,638.97998,280.22549,933.22925,660.59576,188.10663,940.34863
58,0.475,578.31818,228.731,949.16852,638.97998,280.22549,933.22925,660.26422,186.80779,941.17377
59,0.483,577.97278,228.20691,949.07776,638.97998,280.22549,933.22925,660.59576,188.10663,940.34863
60,0.492,578.51855,228.9523,949.09497,638.97998,280.22549,933.22925,660.59576,188.10663,940.34863
61,0.5,578.57458,228.58408,949.12964,638.97998,280.22549,933.22925,660.59576,188.10663,940.34863
62,0.508,578.48541,228.89795,948.96503,638.97998,280.22549,933.22925,660.59576,188.10663,940.34863
63,0.517,578.48541,228.89795,948.96503,638.97998,280.22549,933.22925,660.59576,188.10663,940.34863
64,0.525,578.48541,228.89795,948.96503,638.97998,280.22549,933.22925,660.59576,188.10663,940.34863
65,0.533,578.48541,228.89795,948.96503,638.82404,280.27271,933.51666,660.59576,188.10663,940.34863
66,0.542,578.48541,228.89795,948.96503,638.82404,280.27271,933.51666,660.59576,188.10663,940.34863
67,0.55,578.48541,228.89795,948.96503,638.82404,280.27271,933.51666,660.59576,188.10663,940.34863
68,0.558,578.48541,228.89795,948.96503,638.75098,280.86374,933.54053,660.59576,188.10663,940.34863
69,0.567,578.4541,228.77835,949.30298,638.73785,280.55688,933.68109,660.59576,188.10663,940.34863
70,0.575,578.4541,228.77835,949.30298,638.73785,280.55688,933.68109,660.59576,188.10663,940.34863
71,0.583,578.4541,228.77835,949.30298,638.73785,280.55688,933.68109,660.59576,188.10663,940.34863
72,0.592,578.4541,228.77835,949.30298,638.73785,280.55688,933.68109,660.59576,188.10663,940.34863
73,0.6,578.33179,228.7067,949.39618,638.73785,280.55688,933.68109,660.76349,187.97104,940.51276
74,0.608,578.13135,228.48543,949.46973,638.66473,281.14789,933.70496,659.9707,186.75008,941.81848
75,0.617,578.13135,228.48543,949.46973,638.63336,280.35159,933.87451,660.31219,186.86205,941.93311
76,0.625,578.13135,228.48543,949.46973,638.5603,280.94269,933.89838,660.87421,186.04134,942.21167
77,0.633,578.26892,228.58215,949.62921,638.5603,280.94269,933.89838,660.25275,186.88332,941.95911
78,0.642,578.26892,228.58215,949.62921,638.56897,280.09631,934.54901,660.31219,186.86205,941.93311
79,0.65,578.26892,228.58215,949.62921,638.56897,280.09631,934.54901,660.31219,186.86205,941.93311
80,0.658,578.26892,228.58215,949.62921,638.56897,280.09631,934.54901,660.87421,186.04134,942.21167
81,0.667,578.26892,228.58215,949.62921,638.56897,280.09631,934.54901,660.87421,186.04134,942.21167
82,0.675,578.26892,228.58215,949.62921,638.13721,279.63422,934.49701,661.15033,186.17662,942.35492
83,0.683,578.26892,228.58215,949.62921,638.72913,279.94321,934.70959,660.87421,186.04134,942.21167
84,0.692,578.26892,228.58215,949.62921,638.13721,279.63422,934.49701,661.18561,187.06314,941.58173
85,0.7,578.26892,228.58215,949.62921,638.13721,279.63422,934.49701,660.87421,186.04134,942.21167
86,0.708,578.26892,228.58215,949.62921,638.56897,280.09631,934.54901,661.18561,187.06314,941.58173
87,0.717,578.13135,228.48543,949.46973,638.13721,279.63422,934.49701,661.18561,187.06314,941.58173
88,0.725,578.13135,228.48543,949.46973,638.13721,279.63422,934.49701,660.84576,186.97087,941.46393
89,0.733,578.13135,228.48543,949.46973,638.56897,280.09631,934.54901,660.84576,186.97087,941.46393
90,0.742,578.13135,228.48543,949.46973,638.52057,278.95969,935.69727,661.50916,186.66975,941.534
91,0.75,578.13135,228.48543,949.46973,638.41394,279.60245,934.12634,660.85022,186.659,941.51123
92,0.758,578.13135,228.48543,949.46973,638.18109,279.35101,934.17633,660.85944,185.46342,942.04205
93,0.767,578.13135,228.48543,949.46973,638.45789,279.31915,933.8056,660.85944,185.46342,942.04205
94,0.775,577.95435,228.17409,949.40808,638.45789,279.31915,933.8056,661.49353,186.18449,941.36896
95,0.783,577.95435,228.17409,949.40808,638.45789,279.31915,933.8056,661.18652,184.99811,941.98724
96,0.792,577.60901,227.64989,949.3172,638.45789,279.31915,933.8056,661.18652,184.99811,941.98724
97,0.8,577.60901,227.64989,949.3172,638.88965,279.78125,933.85779,661.18652,184.99811,941.98724
98,0.808,577.60901,227.64989,949.3172,638.61389,279.27197,933.51825,661.18652,184.99811,941.98724
99,0.817,577.72937,227.45566,949.14392,638.61389,279.27197,933.51825,662.40369,186.70399,941.16492
100,0.825,577.72937,227.45566,949.14392,639.04565,279.7341,933.57043,662.55432,187.61763,940.68262
101,0.833,577.72937,227.45566,949.14392,638.82855,278.70258,933.34546,662.40833,187.72137,940.56354
102,0.842,577.72937,227.45566,949.14392,638.82855,278.70258,933.34546,662.40833,187.72137,940.56354
103,0.85,578.23193,227.26973,949.12195,638.82855,278.70258,933.34546,662.40833,187.72137,940.56354
104,0.858,577.72937,227.45566,949.14392,638.82855,278.70258,933.34546,662.40833,187.72137,940.56354
105,0.867,578.23193,227.26973,949.12195,638.93304,278.90805,933.15198,662.48944,187.56371,940.40314
106,0.875,578.23193,227.26973,949.12195,638.93304,278.90805,933.15198,661.83691,188.39345,940.36365
107,0.883,577.85175,227.52739,949.05066,638.93304,278.90805,933.15198,662.40833,187.72137,940.56354
108,0.892,577.29559,227.38335,948.68329,638.91693,278.82037,932.53125,661.81512,187.47118,940.73096
109,0.9,577.88367,227.36028,948.87506,638.93304,278.90805,933.15198,661.67078,188.22765,940.33789
110,0.908,577.5202,227.51683,948.91589,638.93304,278.90805,933.15198,661.75189,188.06992,940.17749
111,0.917,577.29559,227.38335,948.68329,638.91693,278.82037,932.53125,661.75189,188.06992,940.17749
112,0.925,577.125,227.23787,948.58258,638.91693,278.82037,932.53125,661.75189,188.06992,940.17749
113,0.933,577.36353,226.74452,947.99518,638.91693,278.82037,932.53125,661.72021,188.07126,940.0611
114,0.942,577.36353,226.74452,947.99518,638.91693,278.82037,932.53125,660.55243,185.75607,941.33954
115,0.95,577.12109,227.215,948.00574,638.91693,278.82037,932.53125,660.55243,185.75607,941.33954
116,0.958,577.42798,226.91847,947.78711,638.91693,278.82037,932.53125,660.45117,185.59702,941.16388
117,0.967,577.80511,226.6902,947.67114,638.91693,278.82037,932.53125,660.45117,185.59702,941.16388
118,0.975,577.80511,226.6902,947.67114,638.91693,278.82037,932.53125,660.36395,185.26472,940.6026
119,0.983,577.80511,226.6902,947.67114,638.91693,278.82037,932.53125,660.45117,185.59702,941.16388
120,0.992,577.80511,226.6902,947.67114,638.91693,278.82037,932.53125,660.36395,185.26472,940.6026
121,1,577.80511,226.6902,947.67114,638.91693,278.82037,932.53125,660.36395,185.26472,940.6026
122,1.008,577.80511,226.6902,947.67114,638.91693,278.82037,932.53125,660.36395,185.26472,940.6026
123,1.017,577.72552,226.70348,947.33655,638.49188,278.92151,932.40375,660.36395,185.26472,940.6026
124,1.025,577.19275,227.42477,947.30927,638.7915,278.8233,932.06293,660.60187,185.36488,940.87708
125,1.033,577.27716,227.50682,947.43237,638.7915,278.8233,932.06293,660.23438,186.11562,940.14294
126,1.042,577.57001,227.19649,947.19324,637.98151,279.77982,931.96045,660.23438,186.11562,940.14294
127,1.05,577.57001,227.19649,947.19324,638.36633,278.92441,931.9353,660.43561,186.00191,940.55829
128,1.058,577.32214,227.25137,947.17297,637.98151,279.77982,931.96045,660.51691,187.51996,939.40167
129,1.067,577.19275,227.42477,947.30927,637.98151,279.77982,931.96045,660.23438,186.11562,940.14294
130,1.075,577.26556,227.11118,946.99518,637.98151,279.77982,931.96045,660.23438,186.11562,940.14294
131,1.083,577.57001,227.19649,947.19324,637.98151,279.77982,931.96045,660.22906,187.58153,939.45605
132,1.092,576.88586,227.72133,947.52795,637.98151,279.77982,931.96045,660.22906,187.58153,939.45605
133,1.1,576.94489,227.47968,947.28894,637.98151,279.77982,931.96045,660.43561,186.00191,940.55829
134,1.108,576.94489,227.47968,947.28894,637.98151,279.77982,931.96045,659.93793,186.18466,940.21381
135,1.117,577.19275,227.42477,947.30927,637.98151,279.77982,931.96045,659.93793,186.18466,940.21381
136,1.125,576.63806,227.77621,947.50763,638.19324,279.49277,932.26434,660.22906,187.58153,939.45605
137,1.133,576.88586,227.72133,947.52795,638.61835,279.39163,932.39191,660.59155,187.80098,939.96393
138,1.142,576.88586,227.72133,947.52795,638.61835,279.39163,932.39191,660.38281,188.01596,940.21747
139,1.15,576.68152,227.63174,947.65204,638.19324,279.49277,932.26434,660.05396,186.69688,941.04016
140,1.158,577.14838,227.43053,948.14465,638.19324,279.49277,932.26434,660.68958,187.93486,940.14008
141,1.167,576.63806,227.77621,947.50763,638.19324,279.49277,932.26434,660.24445,188.21571,940.45782
142,1.175,576.64441,227.67329,947.99915,638.61835,279.39163,932.39191,660.24445,188.21571,940.45782
143,1.183,577.125,227.23787,948.58258,638.20947,279.58047,932.88495,659.90015,186.93245,941.30682
144,1.192,576.63763,227.99655,948.20569,638.63446,279.47931,933.01251,660.24445,188.21571,940.45782
145,1.2,577.12225,227.43515,948.78253,638.20947,279.58047,932.88495,660.59576,188.10663,940.34863
146,1.208,576.61908,228.00999,948.90094,638.20947,279.58047,932.88495,660.24445,188.21571,940.45782
147,1.217,577.09601,227.69398,949.13239,638.20947,279.58047,932.88495,659.90015,186.93245,941.30682
148,1.225,577.18103,228.09398,949.02844,638.63446,279.47931,933.01251,660.24445,188.21571,940.45782
149,1.233,576.82086,228.09979,949.07642,638.20947,279.58047,932.88495,660.24445,188.21571,940.45782
150,1.242,577.33392,227.61642,949.17761,638.63446,279.47931,933.01251,660.24445,188.21571,940.45782
151,1.25,576.82086,228.09979,949.07642,638.63446,279.47931,933.01251,660.24445,188.21571,940.45782
152,1.258,577.09601,227.69398,949.13239,638.10699,279.67657,933.23187,660.24445,188.21571,940.45782
153,1.267,577.33392,227.61642,949.17761,638.44373,279.55807,933.37042,660.24445,188.21571,940.45782
154,1.275,577.09601,227.69398,949.13239,638.10699,279.67657,933.23187,660.24445,188.21571,940.45782
155,1.283,577.09601,227.69398,949.13239,638.45789,279.31915,933.8056,660.24445,188.21571,940.45782
156,1.292,577.33392,227.61642,949.17761,638.61389,279.27197,933.51825,661.22278,189.42522,940.00024
157,1.3,577.03491,227.59306,949.24713,638.45789,279.31915,933.8056,660.24445,188.21571,940.45782
158,1.308,577.03491,227.59306,949.24713,638.45789,279.31915,933.8056,659.7959,187.83969,941.15417
159,1.317,577.09601,227.69398,949.13239,638.45789,279.31915,933.8056,659.9303,187.41841,941.75958
160,1.325,577.24292,227.5132,949.29926,638.45789,279.31915,933.8056,659.38239,187.81934,941.12329
161,1.333,577.03491,227.59306,949.24713,638.45789,279.31915,933.8056,659.7959,187.83969,941.15417
162,1.342,577.03491,227.59306,949.24713,638.45789,279.31915,933.8056,659.38239,187.81934,941.12329
163,1.35,577.03491,227.59306,949.24713,638.45789,279.31915,933.8056,659.7959,187.83969,941.15417
164,1.358,577.24292,227.5132,949.29926,638.45789,279.31915,933.8056,659.7959,187.83969,941.15417
165,1.367,577.03491,227.59306,949.24713,638.45789,279.31915,933.8056,659.7959,187.83969,941.15417
166,1.375,577.03491,227.59306,949.24713,638.45789,279.31915,933.8056,659.7959,187.83969,941.15417
167,1.383,577.03491,227.59306,949.24713,638.45789,279.31915,933.8056,659.7959,187.83969,941.15417
168,1.392,577.24292,227.5132,949.29926,638.45789,279.31915,933.8056,659.7959,187.83969,941.15417
169,1.4,577.51801,227.54665,949.43884,638.45789,279.31915,933.8056,659.7959,187.83969,941.15417
170,1.408,577.24292,227.5132,949.29926,638.45789,279.31915,933.8056,659.7959,187.83969,941.15417
171,1.417,577.24292,227.5132,949.29926,638.45789,279.31915,933.8056,659.7959,187.83969,941.15417
172,1.425,577.24292,227.5132,949.29926,638.18109,279.35101,934.17633,660.11969,187.44618,941.10657
173,1.433,577.07239,227.3676,949.19855,638.45789,279.31915,933.8056,659.7959,187.83969,941.15417
174,1.442,577.24292,227.5132,949.29926,638.18109,279.35101,934.17633,659.7959,187.83969,941.15417
175,1.45,576.87061,227.27783,949.02313,638.18109,279.35101,934.17633,660.44397,187.05316,941.05939
176,1.458,576.86432,227.44746,949.14636,638.45789,279.31915,933.8056,659.73248,187.94667,940.61066
177,1.467,576.86432,227.44746,949.14636,638.45789,279.31915,933.8056,660.17328,187.9377,940.63434
178,1.475,576.86432,227.44746,949.14636,638.45789,279.31915,933.8056,659.49072,186.96327,941.77454
179,1.483,576.86432,227.44746,949.14636,638.67261,278.74976,933.63281,659.38239,187.81934,941.12329
180,1.492,576.6626,227.3577,948.97095,638.82855,278.70258,933.34546,659.9035,187.39044,941.36255
181,1.5,576.76471,227.24367,948.63055,638.33588,278.86826,933.49432,659.67041,186.69801,942.31927
182,1.508,576.72369,227.45862,948.8562,638.49182,278.82108,933.20691,659.67041,186.69801,942.31927
183,1.517,576.72369,227.45862,948.8562,638.49182,278.82108,933.20691,659.28967,186.71706,942.31494
184,1.525,576.9483,227.39572,948.6333,638.49182,278.82108,933.20691,659.28967,186.71706,942.31494
185,1.533,576.9483,227.39572,948.6333,638.49182,278.82108,933.20691,659.66455,186.561,941.97455
186,1.542,576.68262,227.47726,948.62634,638.50806,279.00922,933.02441,660.07538,186.50865,941.96869
187,1.55,576.68262,227.47726,948.62634,638.20947,279.58047,932.88495,660.07538,186.50865,941.96869
188,1.558,576.72363,227.26234,948.40063,638.20947,279.58047,932.88495,659.45172,186.93677,941.29926
189,1.567,576.61707,227.45775,947.86017,638.19324,279.49277,932.26434,659.45172,186.93677,941.29926
190,1.575,576.48419,227.39967,947.94086,638.19324,279.49277,932.26434,660.24445,188.21571,940.45782
191,1.583,576.69629,227.04681,948.26172,638.19324,279.49277,932.26434,660.38281,188.01596,940.21747
192,1.592,576.69629,227.04681,948.26172,638.19324,279.49277,932.26434,659.80359,188.2247,940.43414
193,1.6,576.61707,227.45775,947.86017,638.19324,279.49277,932.26434,660.24445,188.21571,940.45782
194,1.608,576.48419,227.39967,947.94086,638.19324,279.49277,932.26434,660.38281,188.01596,940.21747
195,1.617,576.69629,227.04681,948.26172,638.19324,279.49277,932.26434,660.24445,188.21571,940.45782
196,1.625,576.82922,227.10489,948.18109,638.19324,279.49277,932.26434,659.95703,187.8344,939.95538
197,1.633,576.63806,227.77621,947.50763,638.19324,279.49277,932.26434,659.80359,188.2247,940.43414
198,1.642,576.14594,227.9594,947.73334,638.19324,279.49277,932.26434,659.80359,188.2247,940.43414
199,1.65,576.29834,228.00798,947.65973,638.19324,279.49277,932.26434,659.77136,188.0141,940.16656
200,1.658,576.14594,227.9594,947.73334,638.19324,279.49277,932.26434,659.80359,188.2247,940.43414
201,1.667,576.10492,228.17429,947.95911,638.19324,279.49277,932.26434,659.80359,188.2247,940.43414
202,1.675,576.17322,228.17496,947.87225,638.19324,279.49277,932.26434,659.80359,188.2247,940.43414
