Frame#,Time,L.Forearm.x,L.Forearm.y,L.Forearm.z,L.Ulna.x,L.Ulna.y,L.Ulna.z,L.Radius.x,L.Radius.y,L.Radius.z
1,0,19.60446,291.53973,948.00397,70.09771,220.81938,976.01923,3.07612,150.00116,999.20776
2,0.008,19.70194,291.33215,948.11908,70.19791,220.97244,975.91156,3.2188,149.15169,999.80457
3,0.017,19.70194,291.33215,948.11908,70.34517,220.95534,975.79242,3.2188,149.15169,999.80457
4,0.025,19.7978,291.51428,947.91095,70.76039,220.62117,975.5423,3.75707,148.81993,999.57495
5,0.033,20.47735,290.6199,948.07452,71.10526,220.37888,975.34778,4.26552,148.54915,999.54468
6,0.042,21.01927,290.98383,947.94226,71.10526,220.37888,975.34778,4.32347,148.59381,999.68457
7,0.05,21.4295,290.93555,947.73297,71.24142,220.28851,975.36902,4.43389,148.99211,999.84064
8,0.058,21.40172,290.76511,947.82367,71.28042,220.40163,975.18158,4.43389,148.99211,999.84064
9,0.067,21.40172,290.76511,947.82367,71.24142,220.28851,975.36902,4.35661,149.01695,1000.13885
10,0.075,21.50299,290.67383,947.88696,71.21786,220.17245,975.55603,4.27518,148.78868,1000.28284
11,0.083,21.50299,290.67383,947.88696,71.21786,220.17245,975.55603,3.78538,148.5575,1000.27051
12,0.092,21.50086,290.74814,948.13745,71.21855,219.94905,975.65515,3.78538,148.5575,1000.27051
13,0.1,21.50086,290.74814,948.13745,71.10232,219.4736,975.98444,3.38101,148.81065,1000.45874
14,0.108,21.50086,290.74814,948.13745,71.16344,219.16658,976.33466,3.79417,148.52547,1000.55939
15,0.117,21.18366,290.36398,948.23688,71.16795,218.80446,976.63287,3.53314,149.1584,1000.86401
16,0.125,21.50086,290.74814,948.13745,71.16795,218.80446,976.63287,3.53314,149.1584,1000.86401
17,0.133,21.23343,289.94385,948.10303,70.97148,218.99921,976.80219,3.78201,147.90668,1000.54266
18,0.142,21.57022,290.30569,947.77704,70.97148,218.99921,976.80219,3.78201,147.90668,1000.54266
19,0.15,21.24254,289.84692,947.82074,70.97148,218.99921,976.80219,4.31112,146.82036,1000.00909
20,0.158,21.24254,289.84692,947.82074,71.18045,218.88815,976.95959,4.31112,146.82036,1000.00909
21,0.167,21.4092,289.78305,947.82831,71.37848,218.70383,976.83118,4.67973,147.06308,1000.01929
22,0.175,21.45366,289.32611,947.51648,71.37848,218.70383,976.83118,5.10187,146.79076,999.96442
23,0.183,21.59803,289.23575,947.56305,71.8114,218.44255,976.73004,5.34794,147.37202,1000.0451
24,0.192,21.80588,288.85367,947.49072,71.8114,218.44255,976.73004,6.02143,147.36777,999.6405
25,0.2,21.80588,288.85367,947.49072,72.29021,218.71249,976.48529,6.41191,147.01332,999.66803
26,0.208,21.80588,288.85367,947.49072,72.63963,218.78197,976.56128,6.84452,146.66011,999.82776
27,0.217,21.80588,288.85367,947.49072,73.04069,218.28075,976.44275,7.5326,146.16721,999.35925
28,0.225,21.93147,288.85489,947.25647,73.56177,218.14859,976.56696,7.69662,146.71686,999.4436
29,0.233,22.26819,288.65533,947.08563,74.32566,217.98079,976.26129,7.69662,146.71686,999.4436
30,0.242,22.61345,288.61206,947.00012,74.81622,218.24435,976.00623,8.49296,146.7858,999.51086
31,0.25,22.7489,288.64999,946.90405,75.04375,218.51167,976.09534,8.49296,146.7858,999.51086
32,0.258,22.7489,288.64999,946.90405,75.47106,218.13536,975.82135,8.56927,146.7066,999.63513
33,0.267,23.2118,288.46075,946.92847,75.47106,218.13536,975.82135,8.52515,146.66246,1000.22101
34,0.275,22.7489,288.64999,946.90405,75.57587,217.85028,975.88727,8.54721,146.68468,999.92804
35,0.283,22.7489,288.64999,946.90405,75.30241,218.07912,976.09521,8.52515,146.66246,1000.22101
36,0.292,22.7489,288.64999,946.90405,75.40723,217.79401,976.16113,8.54721,146.68468,999.92804
37,0.3,22.7489,288.64999,946.90405,74.95477,218.2146,976.45471,8.54721,146.68468,999.92804
38,0.308,22.7489,288.64999,946.90405,74.95477,218.2146,976.45471,9.19792,146.30161,999.60248
39,0.317,22.7489,288.64999,946.90405,74.92387,218.07924,976.62451,9.19792,146.30161,999.60248
40,0.325,23.23839,288.21783,947.09064,75.28908,217.8006,976.78113,9.20539,145.84004,999.20355
41,0.333,23.37136,287.95911,947.02899,75.52093,217.8092,976.42639,9.45588,144.69426,998.85516
42,0.342,23.59822,287.79868,946.74658,75.5686,217.64886,976.00397,9.58909,144.63133,998.65015
43,0.35,23.56496,287.52625,946.62134,75.71104,217.83636,976.13104,10.18532,144.67455,998.55634
44,0.358,23.67752,286.83905,946.81531,75.78436,217.92841,975.83435,10.18532,144.67455,998.55634
45,0.367,24.1041,286.65155,946.79736,75.87285,217.74248,975.65125,10.3198,144.82599,998.40082
46,0.375,24.1041,286.65155,946.79736,76.18821,217.60114,975.63617,10.61412,144.77246,998.41449
47,0.383,24.29637,286.85574,946.45935,76.22747,217.09909,975.12384,10.78472,144.41185,998.62415
48,0.392,24.29637,286.85574,946.45935,76.10228,216.90768,974.98987,10.78472,144.41185,998.62415
49,0.4,24.61088,286.77161,946.61072,76.41969,217.41747,974.77917,11.1688,144.23389,998.65564
50,0.408,24.61088,286.77161,946.61072,76.53751,217.25983,974.62115,11.28688,144.22137,998.57147
51,0.417,24.8104,286.85855,946.75232,76.58452,217.40616,974.45544,11.30341,144.3853,998.50006
52,0.425,24.94706,287.14093,946.57697,76.68266,217.59404,974.5921,11.56689,144.52716,998.85834
53,0.433,24.94706,287.14093,946.57697,76.68266,217.59404,974.5921,11.65503,144.29326,999.24933
54,0.442,24.94706,287.14093,946.57697,76.68266,217.59404,974.5921,11.65503,144.29326,999.24933
55,0.45,25.14277,287.68774,946.8092,76.68266,217.59404,974.5921,11.65503,144.29326,999.24933
56,0.458,24.94706,287.14093,946.57697,76.56482,217.75171,974.75018,11.65503,144.29326,999.24933
57,0.467,24.74755,287.05399,946.43536,76.57421,217.81392,974.99518,11.82999,144.83875,999.26605
58,0.475,24.74755,287.05399,946.43536,76.58363,217.87646,975.24023,12.2478,144.56146,999.26428
59,0.483,24.74755,287.05399,946.43536,76.60497,218.30205,975.53546,12.40699,144.52116,999.17725
60,0.492,24.74755,287.05399,946.43536,76.54842,218.25595,975.60596,12.94559,144.01006,998.84393
61,0.5,24.82517,286.73068,946.57355,77.011,218.20529,975.79138,13.11944,144.08031,998.50171
62,0.508,24.82517,286.73068,946.57355,77.011,218.20529,975.79138,13.15606,143.57948,998.59485
63,0.517,24.82517,286.73068,946.57355,77.011,218.20529,975.79138,13.40745,143.34445,998.2356
64,0.525,24.92449,286.63876,946.63947,77.011,218.20529,975.79138,13.40745,143.34445,998.2356
65,0.533,25.00501,286.42996,946.72522,77.34019,218.02556,975.47223,13.40745,143.34445,998.2356
66,0.542,25.44646,286.48013,947.06824,77.32345,217.8181,975.35962,13.94722,143.04007,997.99261
67,0.55,25.50341,286.45847,947.07068,77.57037,217.26996,974.55908,13.94722,143.04007,997.99261
68,0.558,25.50341,286.45847,947.07068,77.95403,217.09122,974.90063,13.94722,143.04007,997.99261
69,0.567,26.2978,286.05399,946.61639,78.13789,217.0377,974.90717,13.62755,143.06912,998.31665
70,0.575,26.09452,286.12637,946.95172,78.76137,216.73402,975.04486,13.62755,143.06912,998.31665
71,0.583,26.2978,286.05399,946.61639,78.48254,216.73177,974.66681,13.47072,142.57655,998.47211
72,0.592,26.09452,286.12637,946.95172,78.48254,216.73177,974.66681,13.32236,142.73763,998.69873
73,0.6,25.95003,286.21686,946.90503,78.48254,216.73177,974.66681,13.18914,142.8007,998.90369
74,0.608,25.95003,286.21686,946.90503,78.76137,216.73402,975.04486,13.36411,143.34587,998.92041
75,0.617,25.95003,286.21686,946.90503,78.76137,216.73402,975.04486,13.61584,143.2343,999.72498
76,0.625,26.19424,286.03784,946.67523,79.03336,216.93193,975.54114,13.61584,143.2343,999.72498
77,0.633,26.19424,286.03784,946.67523,79.20744,216.71983,975.32581,13.99048,142.88577,999.80756
78,0.642,25.7833,286.28085,946.89728,79.12035,217.07562,975.58502,14.2143,143.40759,1000.10254
79,0.65,25.44646,286.48013,947.06824,79.07833,217.88179,976.08905,14.33947,143.45215,999.84375
80,0.658,25.44646,286.48013,947.06824,79.32195,217.90536,976.32745,15.15883,143.17618,999.84821
81,0.667,25.33542,286.22858,947.16571,79.56918,218.04085,976.38849,15.35897,143.00797,999.87244
82,0.675,25.36782,286.18506,947.2027,79.70633,217.90385,976.45367,15.35897,143.00797,999.87244
83,0.683,25.36782,286.18506,947.2027,79.6353,218.02119,976.64575,15.82887,142.59853,999.95453
84,0.692,25.36782,286.18506,947.2027,79.73156,218.28578,976.62592,15.92631,142.32336,999.99597
85,0.7,25.64661,286.07422,947.22015,79.73156,218.28578,976.62592,16.38799,142.01997,999.96466
86,0.708,25.64661,286.07422,947.22015,79.98738,218.06007,976.50159,16.32594,142.02748,1000.23346
87,0.717,25.72712,285.86533,947.30597,80.18981,218.18814,976.81464,16.65874,142.10265,1000.36798
88,0.725,25.91397,285.9758,947.41345,80.18981,218.18814,976.81464,16.81339,142.46742,1000.41846
89,0.733,25.54252,286.01764,947.6947,80.38599,217.99432,976.64532,17.3518,141.94751,1000.75989
90,0.742,25.61661,285.88184,947.87616,80.64461,217.62779,976.71802,17.61807,141.9509,1001.03296
91,0.75,25.84522,285.86908,947.80145,80.8547,217.5278,976.91608,17.81789,141.47781,1001.245
92,0.758,25.84522,285.86908,947.80145,81.11855,217.61525,976.79309,18.05293,141.93419,1001.46783
93,0.767,26.07402,285.66168,947.68182,81.11855,217.61525,976.79309,18.81627,143.10904,1001.70459
94,0.775,26.58062,286.26743,948.09766,81.38509,217.46313,976.95441,20.40322,143.03189,1002.08295
95,0.783,27.38561,286.13666,948.43787,82.05093,217.69374,977.10303,20.40322,143.03189,1002.08295
96,0.792,27.38561,286.13666,948.43787,82.34218,218.0368,977.79907,21.26063,142.71043,1002.29919
97,0.8,27.51427,285.86423,948.5025,83.44086,218.20543,978.14893,21.3151,142.61292,1002.40936
98,0.808,27.41623,286.09555,949.57056,84.19507,218.03885,978.34723,21.81737,143.06065,1002.83295
99,0.817,27.56016,286.37357,950.36639,84.91354,218.25824,978.77026,23.12482,141.97411,1003.27374
100,0.825,27.77048,286.18555,950.55414,85.31875,218.09389,979.57513,24.08619,142.16776,1003.2511
101,0.833,27.94033,286.00592,950.91284,85.84145,219.16911,979.78741,24.57287,141.5396,1004.11615
102,0.842,28.33879,286.05261,951.01068,86.16189,219.27869,980.34662,26.02911,141.66989,1004.93103
103,0.85,28.76562,285.86539,950.99286,86.61035,219.87746,980.76764,27.15789,142.02744,1005.43939
104,0.858,29.36066,286.60977,951.42554,87.10117,219.96524,980.97906,28.2634,142.00009,1005.91284
105,0.867,30.22368,287.13138,952.33508,88.08144,219.9613,981.23663,29.36596,141.91595,1006.31482
106,0.875,30.11982,286.78131,952.92987,89.53482,220.0536,981.67798,29.58664,143.3228,1007.92566
107,0.883,30.07759,286.74927,953.4389,90.53261,220.36562,982.11292,31.10678,142.45695,1008.289
108,0.892,30.29283,286.7944,953.96082,91.05138,220.29219,982.73334,32.57355,142.09265,1009.37006
109,0.9,30.65501,286.65814,954.23022,91.54411,220.3308,983.84216,33.00759,141.62985,1009.88501
110,0.908,31.46124,286.94095,955.15344,91.79783,220.3893,984.73212,34.59255,143.40198,1011.05713
111,0.917,31.46556,286.29309,956.36963,93.22999,220.01392,985.16473,35.90888,142.65999,1011.14233
112,0.925,32.1898,286.35214,957.03809,94.48954,220.60519,985.55347,37.12233,142.19096,1012.20929
113,0.933,33.43974,285.90793,958.49225,95.93171,220.4193,986.40393,38.08594,142.17641,1013.97351
114,0.942,33.25042,286.20755,959.19202,96.52318,220.58868,986.80975,39.09812,142.73953,1014.63464
115,0.95,33.81809,286.49103,959.63452,96.84407,221.5562,987.93262,40.95266,142.05307,1015.22406
116,0.958,34.56496,286.36505,960.74615,97.92338,222.21155,989.00012,42.68159,141.65242,1015.57007
117,0.967,34.81438,286.12344,961.46625,99.67337,221.70148,989.51898,44.03548,142.90213,1016.41907
118,0.975,34.37494,284.74518,962.66754,100.73018,221.90135,990.2912,45.58923,141.60263,1016.52448
119,0.983,36.01611,286.38043,963.7674,101.27676,221.55461,991.28998,47.38674,141.41396,1018.24365
120,0.992,36.1976,286.47937,964.30237,101.93258,221.78732,992.64728,49.33126,140.21245,1018.65076
121,1,37.24578,286.18384,964.74005,102.87277,222.457,993.79553,49.89483,140.87071,1020.1203
122,1.008,37.40214,286.23361,965.77979,104.80152,223.23134,994.54962,51.80424,140.69894,1020.20074
123,1.017,38.61318,285.91614,966.97211,105.52395,222.63916,995.01556,53.53233,141.5556,1021.22223
124,1.025,37.78604,284.1781,968.31708,105.97179,223.19479,995.70746,54.75531,140.9313,1022.70721
125,1.033,38.58532,283.64352,969.72485,106.58699,223.53992,996.74341,56.35929,140.4095,1023.49084
126,1.042,39.47136,285.08932,969.90302,108.14567,223.05338,998.14008,57.4551,139.10387,1024.41711
127,1.05,40.2929,283.88251,970.67957,109.40289,222.70331,999.15271,58.73169,139.21005,1025.17468
128,1.058,40.94146,284.89355,972.57928,110.34482,222.67702,999.53723,60.36143,138.63857,1026.59619
129,1.067,41.70787,284.50909,973.81683,111.81344,223.60233,1000.70856,62.07913,139.34915,1028.34119
130,1.075,42.40004,283.88321,974.6897,112.25043,223.54845,1000.70123,63.1877,138.91125,1029.05334
131,1.083,43.18151,284.29172,975.50671,114.10632,222.05492,1001.83899,65.12303,137.8692,1029.26477
132,1.092,44.16082,283.46771,976.46161,115.73977,222.36526,1003.98944,66.8299,137.76424,1030.12512
133,1.1,44.32768,281.11798,976.82599,116.67001,222.82602,1004.14288,68.67669,137.4763,1031.23267
134,1.108,45.65313,280.85394,977.82141,117.17306,222.32962,1004.45404,70.59132,137.00557,1032.41321
135,1.117,46.90345,280.57407,979.38995,119.33591,221.69839,1006.08215,72.53497,136.69293,1033.29395
136,1.125,47.01369,280.87125,979.86462,120.27883,221.88524,1006.60956,73.60896,136.92368,1033.66321
137,1.133,47.24713,281.23654,980.88043,120.87392,221.99283,1007.95782,76.63504,136.03336,1034.40369
138,1.142,48.27952,282.19507,982.31073,122.17251,222.22514,1008.83954,78.23342,135.23074,1035.0863
139,1.15,49.42105,280.56412,982.77289,123.85369,221.44621,1009.62817,80.50084,135.14914,1035.59045
140,1.158,50.50322,278.93387,984.26031,125.14822,221.42386,1010.56451,82.20492,136.22878,1037.01978
141,1.167,51.08422,279.02072,985.68744,125.91875,221.39139,1011.27478,83.16883,135.55679,1037.16467
142,1.175,52.14931,278.93378,986.0517,127.59138,221.7025,1011.5318,84.90491,134.49661,1038.14685
143,1.183,53.14377,278.5928,987.18494,128.94124,221.10127,1012.60114,86.55989,134.1714,1039.28857
144,1.192,53.28748,277.91769,988.15631,129.94212,220.72064,1013.09381,86.98537,134.48833,1040.41467
145,1.2,54.37626,277.66159,988.59644,131.01828,220.39198,1014.0224,89.11739,133.54909,1041.03137
146,1.208,55.75869,277.81787,990.203,131.77087,220.34471,1014.40997,90.25034,133.90103,1042.33521
147,1.217,56.67749,277.14523,990.75342,133.94739,219.62361,1015.35846,90.51868,134.53299,1044.1134
148,1.225,57.56337,276.35638,991.7879,134.6507,219.23914,1016.36383,92.76098,132.61447,1044.95728
149,1.233,57.87742,275.12994,992.90051,136.04404,220.06416,1017.76483,93.6879,132.70303,1046.08032
150,1.242,58.45794,274.85254,993.75769,137.5912,220.17642,1017.87506,96.85998,130.967,1046.83118
151,1.25,58.83244,273.93765,994.52856,138.4176,219.265,1019.09576,97.95583,131.41046,1048.64868
152,1.258,60.23084,272.9451,996.71075,138.60811,220.26836,1020.70227,100.06443,130.90685,1049.08704
153,1.267,61.86147,272.68704,997.96033,139.97009,220.82625,1021.69464,103.36316,130.3744,1049.71326
154,1.275,62.33848,272.24213,998.22729,141.46945,219.17934,1021.91528,105.28357,130.77943,1049.78979
155,1.283,62.86629,271.20535,999.34821,142.98305,219.24194,1022.31354,108.39119,129.5219,1050.56006
156,1.292,63.33628,270.74051,1000.32635,144.86963,218.61707,1022.75201,110.01999,130.07872,1051.36646
157,1.3,65.00736,270.69699,1001.69592,146.11661,217.64456,1023.44165,112.56552,129.45146,1052.09875
158,1.308,66.28619,270.47903,1002.42047,147.72417,218.42174,1024.67249,113.9046,129.32927,1052.8999
159,1.317,67.56284,269.91751,1003.01965,148.33498,218.56615,1025.599,115.63291,129.10245,1053.37048
160,1.325,68.57904,269.48486,1003.27588,150.72131,217.78889,1026.03906,117.23734,127.95004,1054.18079
161,1.333,69.94908,269.0531,1004.34137,152.40999,218.06355,1026.42761,118.71772,128.39957,1055.01807
162,1.342,70.94852,268.60757,1005.0166,153.31139,217.77188,1026.69666,120.6065,129.44273,1056.40662
163,1.35,72.33344,268.409,1005.87714,154.47289,217.79765,1027.1748,121.99243,128.77191,1057.61609
164,1.358,72.16595,268.00473,1006.47827,155.66774,217.60342,1027.77966,124.14867,128.37993,1058.00549
165,1.367,72.73283,267.82596,1007.92035,156.78506,216.96974,1028.30005,125.14191,127.89279,1058.31836
166,1.375,74.10136,267.28464,1009.88428,157.42874,217.13286,1028.41919,126.5248,127.55164,1058.79346
167,1.383,74.6844,267.40237,1010.18811,159.1931,216.12383,1029.8783,128.99519,127.77063,1058.59607
168,1.392,75.98711,266.15472,1010.43011,159.98268,215.48468,1030.07483,131.03603,125.70634,1059.61572
169,1.4,76.79081,265.27365,1011.62384,160.94629,216.02908,1031.07642,133.39914,125.16762,1060.22668
170,1.408,78.03756,263.39749,1012.37756,162.02779,215.7504,1031.28906,134.97522,125.58944,1060.69312
171,1.417,78.08738,263.01749,1012.38586,164.18947,216.61739,1031.59753,137.40428,122.72076,1061.15222
172,1.425,78.54656,261.58109,1013.09698,165.27455,216.57799,1031.81299,138.64136,123.20341,1061.74561
173,1.433,79.74195,261.06482,1014.28052,166.60551,216.87971,1032.77441,141.56746,124.79885,1061.69092
174,1.442,80.436,260.78928,1015.46637,167.27643,216.38748,1032.68066,142.13655,124.87278,1062.05823
175,1.45,81.64776,260.54385,1016.63043,169.50508,215.28757,1033.01245,145.35477,122.36251,1062.08228
176,1.458,83.27615,259.74176,1017.20868,169.94612,215.1568,1033.64954,147.10925,122.85301,1062.74707
177,1.467,83.88979,259.92001,1017.7608,171.33397,215.46581,1033.90356,149.40501,123.87981,1063.4491
178,1.475,85.61704,259.94046,1018.34741,174.00374,215.45581,1033.82227,151.35907,123.78592,1063.56604
179,1.483,86.60596,259.1423,1019.0368,175.43181,215.93912,1034.15771,153.48654,122.73012,1063.87354
180,1.492,87.95181,258.95093,1019.83484,176.07617,216.07657,1034.55762,154.37769,122.26997,1063.8512
181,1.5,89.68776,258.10202,1021.2019,177.31439,216.22971,1034.72009,156.59415,120.81425,1064.5918
182,1.508,90.52267,258.19632,1021.58679,179.04002,214.75621,1035.41101,157.8602,121.54552,1065.41479
183,1.517,91.87999,256.71194,1022.64648,180.12532,213.92636,1036.16907,160.55049,122.49837,1065.70569
184,1.525,92.0045,256.24197,1023.69446,180.92702,214.13651,1036.45874,161.83211,122.21803,1066.25867
185,1.533,92.97794,255.45135,1024.68347,181.39093,213.83804,1036.78455,162.25485,120.76778,1067.19116
186,1.542,93.58949,254.11815,1025.28967,183.23146,213.80888,1038.03198,164.84756,120.105,1067.64331
187,1.55,94.34454,253.67334,1026.10437,183.57716,214.01927,1038.5144,166.82809,119.68762,1068.27551
188,1.558,94.67978,253.5997,1026.13806,184.87166,214.77933,1039.46448,169.0766,119.24106,1068.82654
189,1.567,95.49029,252.32637,1027.35669,186.36456,214.20538,1040.64319,172.2045,119.09019,1069.18896
190,1.575,96.40404,251.42798,1028.43689,187.95168,212.80267,1041.16602,174.33226,119.10487,1069.77954
191,1.583,97.55289,249.64563,1030.08301,189.32327,212.8869,1041.38318,176.58763,117.83425,1070.33936
192,1.592,98.32462,248.60597,1030.93201,191.82909,212.84744,1041.46875,179.21858,117.91974,1071.27173
193,1.6,99.39964,248.209,1032.10754,193.21863,213.5482,1042.77771,182.56725,118.3754,1071.75024
194,1.608,101.20438,247.21806,1033.15051,194.17122,213.59447,1043.42944,184.64758,117.15195,1072.27222
195,1.617,102.65756,247.3183,1034.87952,196.5948,212.18921,1044.65601,185.93135,116.76698,1072.47388
196,1.625,104.21369,247.21619,1035.9386,198.06467,212.39236,1044.97278,189.2937,116.63695,1073.09351
197,1.633,105.66933,247.50159,1037.89209,199.55304,211.88,1045.24084,190.49767,116.58494,1075.01917
198,1.642,107.48273,245.90381,1038.54053,201.43471,211.85323,1045.9679,193.58253,116.98132,1075.79639
199,1.65,108.92007,246.03284,1039.56238,202.69208,212.10811,1046.89136,194.58517,116.69746,1076.55298
200,1.658,109.70541,244.36359,1040.52771,203.19421,211.82556,1047.28162,196.78268,115.68082,1077.30408
201,1.667,111.08886,243.82118,1042.23853,205.12715,211.1825,1048.07544,198.46254,115.82547,1078.22693
202,1.675,112.17998,243.34877,1043.29822,206.86255,210.95207,1049.12549,200.95259,115.22898,1079.12842
203,1.683,113.27555,242.705,1043.88281,207.54819,210.11157,1049.72083,202.69647,114.92241,1080.53833
204,1.692,114.12753,241.36642,1044.64648,207.97185,209.97588,1050.34839,205.11763,114.63935,1080.74036
