Frame#,Time,L.Forearm.x,L.Forearm.y,L.Forearm.z,L.Ulna.x,L.Ulna.y,L.Ulna.z,L.Radius.x,L.Radius.y,L.Radius.z
1,0,97.86395,240.31625,982.94379,185.48143,284.86353,985.67944,242.02184,224.54237,989.58142
2,0.008,97.92641,240.50311,983.19574,185.26988,284.8866,985.76215,242.02184,224.54237,989.58142
3,0.017,98.03945,240.59114,983.07739,185.26988,284.8866,985.76215,241.28883,225.18338,990.26166
4,0.025,97.97856,240.94409,983.35144,185.37482,284.88284,985.89185,241.70686,224.71246,989.78625
5,0.033,98.10193,240.77795,983.32941,185.52733,285.13998,986.04297,241.52225,224.91664,989.99811
6,0.042,98.11412,240.63353,983.35681,185.22192,285.64325,985.86206,241.70686,224.71246,989.78625
7,0.05,98.11412,240.63353,983.35681,185.10104,285.51254,985.85291,241.70686,224.71246,989.78625
8,0.058,97.9499,240.50549,983.29462,185.30309,285.28348,986.05011,241.52225,224.91664,989.99811
9,0.067,97.97856,240.94409,983.35144,185.24922,285.08878,985.98651,241.73601,224.95903,990.32428
10,0.075,98.0416,240.58957,983.44885,185.35413,285.08499,986.11621,241.52225,224.91664,989.99811
11,0.083,98.0416,240.58957,983.44885,185.32225,284.97931,986.08722,241.46284,224.64316,990.47906
12,0.092,98.0416,240.58957,983.44885,185.35413,285.08499,986.11621,241.46284,224.64316,990.47906
13,0.1,98.0416,240.58957,983.44885,185.21733,284.98309,985.95752,241.422,224.34184,990.03723
14,0.108,97.84235,240.70891,983.19647,185.16626,285.06427,986.03369,241.23732,224.54602,990.24908
15,0.117,97.25319,240.83034,983.20203,185.28242,284.92603,986.00269,241.422,224.34184,990.03723
16,0.125,97.55013,240.59937,983.42975,185.10117,285.12134,985.98853,241.422,224.34184,990.03723
17,0.133,97.29983,241.17885,983.42902,185.16626,285.06427,986.03369,241.422,224.34184,990.03723
18,0.142,97.09198,241.16309,983.4549,185.34145,284.70752,986.06421,241.422,224.34184,990.03723
19,0.15,97.63454,240.69316,983.22235,185.22527,284.84576,986.09528,241.422,224.34184,990.03723
20,0.158,97.02947,240.97632,983.203,185.34145,284.70752,986.06421,241.422,224.34184,990.03723
21,0.167,96.87576,240.7225,983.11823,185.22527,284.84576,986.09528,241.422,224.34184,990.03723
22,0.175,96.7754,240.38483,983.05927,185.34145,284.70752,986.06421,240.96179,223.95096,990.03613
23,0.183,96.70464,240.21089,983.10309,185.22527,284.84576,986.09528,240.56006,224.29385,990.56335
24,0.192,96.6746,239.90546,983.35675,185.34145,284.70752,986.06421,240.59941,224.18225,990.8902
25,0.2,96.7979,239.73943,983.33472,185.30667,284.56979,986.14276,240.82951,223.7339,991.09601
26,0.208,96.55026,239.60905,983.60303,185.41162,284.56601,986.27252,240.91348,224.0069,991.23413
27,0.217,96.50216,239.71223,983.49335,185.41162,284.56601,986.27252,241.05238,223.15744,991.2193
28,0.225,96.55026,239.60905,983.60303,185.56555,284.43402,986.2962,240.9982,223.32655,991.5058
29,0.233,96.427,239.77509,983.62506,185.29544,284.70425,986.30353,241.36665,222.98201,991.56323
30,0.242,96.62966,239.79451,983.72565,185.41162,284.56601,986.27252,241.00549,223.37779,991.86261
31,0.25,96.36483,239.66154,983.87457,185.29544,284.70425,986.30353,241.00549,223.37779,991.86261
32,0.258,96.44092,239.88603,983.58905,185.57263,284.37051,986.5661,241.48555,222.19435,991.2821
33,0.267,96.46274,239.57567,983.64502,185.59859,284.27545,986.76862,241.39818,222.30675,991.47852
34,0.275,96.38992,239.32144,983.93427,185.42915,284.31476,986.84229,240.80989,222.59302,992.29474
35,0.283,96.27464,239.44337,984.07269,185.4191,284.22318,986.94739,241.03714,222.76996,992.4314
36,0.292,96.27464,239.44337,984.07269,185.42429,284.18665,987.10187,240.94554,222.97726,992.68158
37,0.3,96.35945,239.2883,984.18518,185.20627,284.24036,987.10974,241.03714,222.76996,992.4314
38,0.308,96.3903,239.1976,984.26196,185.62895,284.37155,987.38953,241.56859,222.26605,993.07611
39,0.317,95.99471,239.22324,984.36456,185.36348,284.36798,987.45422,241.56859,222.26605,993.07611
40,0.325,96.18401,239.18742,984.63861,185.36348,284.36798,987.45422,241.56859,222.26605,993.07611
41,0.333,96.18401,239.18742,984.63861,185.24655,284.12781,987.65131,241.10864,222.81764,993.2691
42,0.342,96.13306,239.02542,984.69348,185.17499,284.09686,987.70276,241.37938,222.0898,993.23328
43,0.35,96.13306,239.02542,984.69348,185.15521,284.01746,988.02106,241.28793,222.29684,993.48352
44,0.358,96.04192,238.94048,984.79553,184.77614,283.72568,988.01343,241.28793,222.29684,993.48352
45,0.367,96.04192,238.94048,984.79553,184.77614,283.72568,988.01343,241.28793,222.29684,993.48352
46,0.375,96.02227,239.0788,984.93097,184.32878,283.74976,988.30139,240.5715,222.19174,993.59528
47,0.383,95.96786,239.1132,985.05237,184.43475,283.72925,988.29675,240.53789,221.72813,994.05902
48,0.392,95.85447,238.93091,985.18842,184.32878,283.74976,988.30139,240.53789,221.72813,994.05902
49,0.4,95.77787,238.90596,985.24847,184.32878,283.74976,988.30139,240.53789,221.72813,994.05902
50,0.408,95.77787,238.90596,985.24847,184.23535,283.58871,988.34302,240.1694,222.07259,994.00177
51,0.417,95.77787,238.90596,985.24847,184.07455,283.64081,988.42322,240.14122,221.90173,994.25482
52,0.425,95.56962,239.03008,985.37579,183.96864,283.55988,988.52069,240.14122,221.90173,994.25482
53,0.433,95.42963,239.23297,985.50153,183.67921,283.70972,988.77673,240.18108,221.78981,994.58124
54,0.442,95.42963,239.23297,985.50153,183.71257,283.69247,988.84393,240.14122,221.90173,994.25482
55,0.45,95.42963,239.23297,985.50153,183.7036,283.89914,988.92761,239.6834,221.97229,994.32123
56,0.458,95.42963,239.23297,985.50153,183.60954,283.94415,988.90643,239.77269,222.24626,994.19757
57,0.467,95.42963,239.23297,985.50153,183.46169,283.73517,988.91113,239.77269,222.24626,994.19757
58,0.475,95.42963,239.23297,985.50153,183.61577,283.49313,989.14105,239.31483,222.31689,994.26392
59,0.483,95.30214,239.43591,985.53113,183.62885,283.92093,989.02753,239.35477,222.2049,994.59045
60,0.492,95.20006,239.58737,985.5661,183.48608,283.92462,989.06201,239.35477,222.2049,994.59045
61,0.5,95.42963,239.23297,985.50153,183.07056,284.01456,989.19696,239.35477,222.2049,994.59045
62,0.508,95.20006,239.58737,985.5661,183.01619,283.73209,989.17889,239.35477,222.2049,994.59045
63,0.517,95.20006,239.58737,985.5661,183.1196,283.83514,989.18732,239.35477,222.2049,994.59045
64,0.525,95.20006,239.58737,985.5661,182.93304,283.75049,989.18011,239.35477,222.2049,994.59045
65,0.533,95.20006,239.58737,985.5661,182.97231,283.78769,989.13007,239.84,221.49225,994.14563
66,0.542,95.20006,239.58737,985.5661,182.93304,283.75049,989.18011,239.35477,222.2049,994.59045
67,0.55,95.20006,239.58737,985.5661,182.84726,284.112,989.3252,239.35477,222.2049,994.59045
68,0.558,95.20006,239.58737,985.5661,182.88445,283.6221,989.3139,239.5957,222.44595,994.62183
69,0.567,95.20006,239.58737,985.5661,182.98082,283.76294,989.37024,239.35477,222.2049,994.59045
70,0.575,95.20006,239.58737,985.5661,183.07187,283.64789,989.49457,239.5957,222.44595,994.62183
71,0.583,95.20006,239.58737,985.5661,183.03537,283.78775,989.54956,239.5957,222.44595,994.62183
72,0.592,95.16855,239.68796,985.64136,182.89769,283.78131,989.37146,239.57076,222.55524,994.81305
73,0.6,95.20006,239.58737,985.5661,183.03537,283.78775,989.54956,239.32982,222.31413,994.78174
74,0.608,95.20006,239.58737,985.5661,183.03537,283.78775,989.54956,239.5957,222.44595,994.62183
75,0.617,95.20006,239.58737,985.5661,182.98331,283.64789,989.51697,239.57076,222.55524,994.81305
76,0.625,95.20006,239.58737,985.5661,182.81575,283.77829,989.39545,239.57076,222.55524,994.81305
77,0.633,95.16855,239.68796,985.64136,182.98711,283.74115,989.41541,239.57076,222.55524,994.81305
78,0.642,95.20006,239.58737,985.5661,183.07683,283.91797,989.4093,239.5957,222.44595,994.62183
79,0.65,95.20006,239.58737,985.5661,183.07683,283.91797,989.4093,239.5957,222.44595,994.62183
80,0.658,95.20006,239.58737,985.5661,183.01697,284.17108,989.21503,239.35477,222.2049,994.59045
81,0.667,95.16855,239.68796,985.64136,182.99554,284.12305,989.28448,239.5957,222.44595,994.62183
82,0.675,95.20006,239.58737,985.5661,182.80748,284.27966,989.27502,239.5957,222.44595,994.62183
83,0.683,95.20006,239.58737,985.5661,182.94902,283.87057,989.0094,239.5957,222.44595,994.62183
84,0.692,95.20006,239.58737,985.5661,182.99751,283.89325,988.92761,239.35477,222.2049,994.59045
85,0.7,95.20006,239.58737,985.5661,182.95337,283.95395,988.87329,239.35477,222.2049,994.59045
86,0.708,95.20006,239.58737,985.5661,182.96661,284.11319,988.93085,239.35477,222.2049,994.59045
87,0.717,95.20006,239.58737,985.5661,182.82877,284.14432,989.07782,239.35477,222.2049,994.59045
88,0.725,95.20006,239.58737,985.5661,182.87143,283.95093,988.89728,239.35477,222.2049,994.59045
89,0.733,95.20006,239.58737,985.5661,182.87143,283.95093,988.89728,239.5957,222.44595,994.62183
90,0.742,95.20006,239.58737,985.5661,182.88467,284.11017,988.95483,239.35477,222.2049,994.59045
91,0.75,95.20006,239.58737,985.5661,182.87143,283.95093,988.89728,239.35477,222.2049,994.59045
92,0.758,95.20006,239.58737,985.5661,182.81551,283.98511,989.02032,239.35477,222.2049,994.59045
93,0.767,95.20006,239.58737,985.5661,182.81551,283.98511,989.02032,239.35477,222.2049,994.59045
94,0.775,95.20006,239.58737,985.5661,182.85303,283.92743,989.07306,239.35477,222.2049,994.59045
95,0.783,95.20006,239.58737,985.5661,182.92148,284.00293,989.17371,239.35477,222.2049,994.59045
96,0.792,94.99182,239.71165,985.69336,182.85303,283.92743,989.07306,239.0742,221.77103,994.87518
97,0.8,95.16855,239.68796,985.64136,182.97414,284.11166,989.29541,239.35477,222.2049,994.59045
98,0.808,94.96032,239.81224,985.76855,183.03552,284.11597,989.40997,239.35477,222.2049,994.59045
99,0.817,94.94221,239.65732,985.84949,182.95381,284.11292,989.61078,239.32982,222.31413,994.78174
100,0.825,94.94221,239.65732,985.84949,182.93208,284.11591,989.81451,239.32982,222.31413,994.78174
101,0.833,94.85168,239.64993,985.89838,182.80875,284.25311,989.95087,239.51791,222.19547,994.9411
102,0.842,94.98196,239.66208,986.06268,182.93303,283.81931,990.01379,239.75885,222.43655,994.97241
103,0.85,94.98196,239.66208,986.06268,182.82243,283.8963,989.9743,239.4673,222.22449,995.41138
104,0.858,95.17114,239.62721,986.33667,183.00494,283.67667,990.12012,239.40082,221.90919,995.59125
105,0.867,95.16316,239.84338,986.69086,182.95058,283.76337,990.50513,239.40082,221.90919,995.59125
106,0.875,95.0577,239.87212,986.71045,182.84633,283.49194,990.81183,239.40082,221.90919,995.59125
107,0.883,94.96525,239.75861,986.89764,182.61775,283.1777,990.90131,239.22005,222.52042,995.64886
108,0.892,95.06084,239.93835,986.99048,182.84633,283.49194,990.81183,239.26929,222.74883,995.71161
109,0.9,95.06084,239.93835,986.99048,182.79062,283.52261,990.91412,239.26929,222.74883,995.71161
110,0.908,95.16734,240.05125,987.07697,182.8324,283.67743,991.26105,239.63829,222.20825,995.37152
111,0.917,95.20404,239.9182,987.19519,182.63022,283.48001,991.35529,239.26929,222.74883,995.71161
112,0.925,95.07149,239.9894,987.28937,182.60144,283.63654,991.50214,239.63829,222.20825,995.37152
113,0.933,95.0555,239.63794,987.72113,182.73831,283.49561,991.74591,239.04373,223.03117,995.83929
114,0.942,94.95683,239.73599,987.8056,182.54645,283.56274,991.99878,238.78839,222.41682,995.72986
115,0.95,95.10921,239.50468,987.81641,182.54645,283.56274,991.99878,238.9507,222.87747,996.29364
116,0.958,94.94577,239.31161,988.41016,182.45197,283.54419,992.04266,239.01534,222.47516,996.39569
117,0.967,95.26263,239.60898,988.36713,182.44843,283.67377,992.19849,238.62122,222.75426,996.74036
118,0.975,95.22942,239.65968,988.81757,182.57892,283.8797,992.30359,237.9454,223.5136,997.66333
119,0.983,95.27004,239.5813,988.8775,182.57892,283.8797,992.30359,237.70557,223.76991,997.69934
120,0.992,95.27084,239.47374,988.98822,182.44695,283.82971,992.48224,237.92032,223.62242,997.8548
121,1,95.08649,239.10519,988.93713,182.43327,284.18655,992.45874,237.92032,223.62242,997.8548
122,1.008,95.08649,239.10519,988.93713,182.48535,284.00763,992.57471,238.0303,223.6003,998.14746
123,1.017,95.27084,239.47374,988.98822,182.48535,284.00763,992.57471,237.93877,223.80721,998.39795
124,1.025,95.27084,239.47374,988.98822,182.61168,284.04407,992.66528,237.90271,224.09277,998.54852
125,1.033,95.27084,239.47374,988.98822,182.68289,283.52924,992.75134,238.1012,224.20682,998.69763
126,1.042,95.27084,239.47374,988.98822,182.547,284.08841,992.9856,238.1012,224.20682,998.69763
127,1.05,95.27084,239.47374,988.98822,182.66307,283.95044,992.95465,237.64847,223.78706,998.62238
128,1.058,95.03075,239.19342,989.24512,182.547,284.08841,992.9856,237.84697,223.90105,998.77148
129,1.067,94.85481,238.8243,989.12946,182.5834,283.93616,993.14355,237.64847,223.78706,998.62238
130,1.075,94.85481,238.8243,989.12946,182.57341,283.84448,993.24866,238.16054,223.72688,999.11475
131,1.083,95.05653,239.19064,989.05133,182.57341,283.84448,993.24866,237.6447,223.78783,998.98193
132,1.092,95.24088,239.55919,989.10242,182.53702,283.99673,993.0907,237.6447,223.78783,998.98193
133,1.1,95.27084,239.47374,988.98822,182.48431,283.83066,993.28619,237.95827,223.61368,999.32513
134,1.108,95.24088,239.55919,989.10242,182.48431,283.83066,993.28619,237.95827,223.61368,999.32513
135,1.117,94.88477,238.73883,989.01526,182.36826,283.96863,993.31714,237.95827,223.61368,999.32513
136,1.125,94.82032,238.78729,989.18237,182.48431,283.83066,993.28619,237.95827,223.61368,999.32513
137,1.133,94.81161,238.78824,989.18542,182.48431,283.83066,993.28619,237.95827,223.61368,999.32513
138,1.142,94.82032,238.78729,989.18237,182.48431,283.83066,993.28619,237.95827,223.61368,999.32513
139,1.15,94.82032,238.78729,989.18237,182.51985,283.59747,993.23883,237.95827,223.61368,999.32513
140,1.158,94.80662,238.66588,989.12439,182.14529,283.31393,993.11859,237.75977,223.49971,999.17609
141,1.167,94.69744,238.56355,989.24689,182.57983,283.41138,993.30933,237.75977,223.49971,999.17609
142,1.175,94.63165,238.40657,989.24524,182.3455,283.06525,993.26099,237.79584,223.2142,999.02557
143,1.183,94.53196,238.01628,989.14484,182.00092,282.95163,993.13513,237.79584,223.2142,999.02557
144,1.192,94.51426,238.17015,989.28546,182.00092,282.95163,993.13513,237.75977,223.49971,999.17609
145,1.2,94.53196,238.01628,989.14484,182.2408,282.89456,993.14172,237.79584,223.2142,999.02557
146,1.208,94.29774,237.98756,989.06262,182.2408,282.89456,993.14172,237.75615,223.02141,999.34137
147,1.217,94.37007,238.07759,989.22601,182.2408,282.89456,993.14172,237.75615,223.02141,999.34137
148,1.225,94.37007,238.07759,989.22601,182.20164,282.84973,993.20007,237.75615,223.02141,999.34137
149,1.233,94.44501,237.87837,989.29181,181.95178,282.81516,993.29865,237.75615,223.02141,999.34137
150,1.242,94.44501,237.87837,989.29181,182.19168,282.75809,993.30524,237.75615,223.02141,999.34137
151,1.25,94.44501,237.87837,989.29181,182.19168,282.75809,993.30524,237.75615,223.02141,999.34137
152,1.258,94.48241,237.89589,989.36627,181.95178,282.81516,993.29865,237.91977,222.75677,999.53265
153,1.267,94.44501,237.87837,989.29181,181.82899,282.94949,993.53986,238.15579,222.32938,999.77051
154,1.275,94.44501,237.87837,989.29181,181.7648,282.97623,994.04608,237.72008,223.30688,999.49194
155,1.283,93.69492,237.88908,989.33118,181.79997,282.95731,994.22626,237.91977,222.75677,999.53265
156,1.292,93.60747,237.90466,989.35565,181.49767,283.00897,994.23572,237.95016,222.85899,999.69684
157,1.3,93.7729,238.22234,989.83508,181.58676,283.16183,994.38098,238.37564,222.57864,1000.36731
158,1.308,93.74142,238.32274,989.91022,181.37483,283.20996,994.495,237.97168,222.99426,1000.14478
159,1.317,93.55426,237.91345,989.74512,181.32214,283.17593,994.5451,238.37564,222.57864,1000.36731
160,1.325,93.2801,237.98944,990.03253,181.32214,283.17593,994.5451,238.17004,223.10832,1000.29376
161,1.333,93.25777,238.07605,989.90314,181.34854,283.06467,994.66071,238.17004,223.10832,1000.29376
162,1.342,93.08173,238.05421,990.05872,181.34854,283.06467,994.66071,238.17004,223.10832,1000.29376
163,1.35,93.07138,237.86856,990.15088,181.34854,283.06467,994.66071,238.17004,223.10832,1000.29376
164,1.358,92.96795,237.87238,990.1947,181.34854,283.06467,994.66071,238.17004,223.10832,1000.29376
165,1.367,92.96795,237.87238,990.1947,181.34854,283.06467,994.66071,237.84962,223.27003,1000.4787
166,1.375,92.96795,237.87238,990.1947,181.12196,283.25003,994.81311,237.84962,223.27003,1000.4787
167,1.383,92.96795,237.87238,990.1947,180.88818,283.08688,995.11066,237.78313,222.95529,1000.6582
168,1.392,92.96795,237.87238,990.1947,180.91316,283.12738,995.38361,237.78313,222.95529,1000.6582
169,1.4,92.96795,237.87238,990.1947,180.91316,283.12738,995.38361,237.78313,222.95529,1000.6582
170,1.408,92.85291,237.99352,990.33313,180.75069,283.1803,995.46204,237.78313,222.95529,1000.6582
171,1.417,92.85291,237.99352,990.33313,180.67322,283.27496,995.54456,237.78313,222.95529,1000.6582
172,1.425,92.85291,237.99352,990.33313,180.80533,283.26102,995.64966,237.78313,222.95529,1000.6582
173,1.433,92.85291,237.99352,990.33313,180.69672,283.25552,995.68317,237.78313,222.95529,1000.6582
174,1.442,92.92245,238.19403,990.51056,180.69672,283.25552,995.68317,237.78313,222.95529,1000.6582
175,1.45,93.01695,238.20374,991.06903,180.69672,283.25552,995.68317,237.78313,222.95529,1000.6582
176,1.458,93.01695,238.20374,991.06903,180.76245,283.23126,995.79828,237.77634,222.73305,1001.10645
177,1.467,92.99448,238.54019,991.22626,180.38066,283.26288,995.77631,237.53792,223.15167,1001.32581
178,1.475,92.99448,238.54019,991.22626,180.4464,283.23859,995.89136,237.53792,223.15167,1001.32581
179,1.483,92.91499,238.35487,991.10394,180.48143,283.35547,996.26196,237.53792,223.15167,1001.32581
180,1.492,93.1712,238.80359,991.51001,180.48143,283.35547,996.26196,237.70007,222.96475,1001.5799
181,1.5,93.1712,238.80359,991.51001,180.54526,283.29303,996.31329,237.70007,222.96475,1001.5799
182,1.508,93.08076,238.80321,991.67236,180.54346,283.31979,996.46545,237.70007,222.96475,1001.5799
183,1.517,93.08076,238.80321,991.67236,180.54346,283.31979,996.46545,237.70007,222.96475,1001.5799
184,1.525,92.97418,238.86801,991.65631,180.54346,283.31979,996.46545,237.51102,222.78851,1001.73682
185,1.533,92.68842,238.6246,991.99084,180.54346,283.31979,996.46545,237.70938,222.90236,1001.8858
186,1.542,92.75339,238.69991,992.14911,180.54346,283.31979,996.46545,237.51102,222.78851,1001.73682
187,1.55,92.52062,238.79266,992.086,180.54346,283.31979,996.46545,237.51102,222.78851,1001.73682
188,1.558,92.46576,238.58209,992.2923,180.54346,283.31979,996.46545,237.51102,222.78851,1001.73682
189,1.567,92.66698,238.7196,992.24457,180.54346,283.31979,996.46545,237.51102,222.78851,1001.73682
190,1.575,92.73821,238.67368,992.4245,180.54346,283.31979,996.46545,237.51102,222.78851,1001.73682
191,1.583,92.6212,238.85466,992.05267,180.78275,283.65692,996.41608,237.4444,222.474,1001.91626
192,1.592,92.66582,238.49846,992.25757,180.54346,283.31979,996.46545,237.4444,222.474,1001.91626
193,1.6,92.72292,238.67506,992.30853,180.54346,283.31979,996.46545,237.4444,222.474,1001.91626
194,1.608,92.94964,238.62343,991.93738,180.54346,283.31979,996.46545,237.4444,222.474,1001.91626
195,1.617,93.00687,238.81401,992.22278,180.54346,283.31979,996.46545,237.51102,222.78851,1001.73682
196,1.625,92.99319,238.60178,991.78082,180.64726,283.28046,996.48169,237.4444,222.474,1001.91626
197,1.633,92.99319,238.60178,991.78082,180.54346,283.31979,996.46545,237.51102,222.78851,1001.73682
198,1.642,92.99319,238.60178,991.78082,180.54346,283.31979,996.46545,237.4444,222.474,1001.91626
199,1.65,92.99319,238.60178,991.78082,180.54346,283.31979,996.46545,237.51102,222.78851,1001.73682
200,1.658,92.99319,238.60178,991.78082,180.54346,283.31979,996.46545,237.99756,222.25592,1001.73535
201,1.667,92.99319,238.60178,991.78082,180.54526,283.29303,996.31329,237.70007,222.96475,1001.5799
202,1.675,93.17069,238.67558,991.4198,180.54526,283.29303,996.31329,237.9156,221.99902,1001.70099
203,1.683,93.19315,238.33908,991.26257,180.54526,283.29303,996.31329,237.99756,222.25592,1001.73535
204,1.692,93.0216,238.29007,991.12,180.54526,283.29303,996.31329,237.70007,222.96475,1001.5799
