Frame#,Time,L.Forearm.x,L.Forearm.y,L.Forearm.z,L.Ulna.x,L.Ulna.y,L.Ulna.z,L.Radius.x,L.Radius.y,L.Radius.z
1,0,201.36847,117.97729,1117.65735,303.89987,138.08643,1100.89111,328.57825,49.45741,1122.55676
2,0.008,201.83742,118.03637,1117.599,304.20956,137.16719,1100.25867,328.40918,49.28052,1122.24658
3,0.017,201.74916,119.28615,1117.76099,303.37943,136.39368,1099.86731,328.71146,50.10201,1121.3905
4,0.025,202.44182,118.73712,1117.53369,303.36429,137.97974,1100.70886,327.91348,48.71638,1119.28235
5,0.033,201.07172,119.02254,1117.1947,303.11884,138.7467,1101.25085,328.715,47.87645,1118.30664
6,0.042,201.83043,117.39262,1115.9989,303.76111,139.6933,1100.96887,330.0571,49.3681,1117.85425
7,0.05,201.74924,116.60841,1115.61157,302.55518,138.72083,1100.8894,328.95523,48.12964,1117.12903
8,0.058,201.08545,116.87165,1115.27087,301.92596,138.96623,1101.31494,329.31818,48.01456,1116.15637
9,0.067,201.18561,116.89558,1115.00391,302.14691,139.34654,1102.21301,329.01651,48.20395,1115.97314
10,0.075,200.48953,117.39638,1114.69238,302.11249,139.60173,1102.66821,328.69208,47.94501,1114.31116
11,0.083,200.351,117.46761,1114.77832,301.27676,140.65356,1103.16321,328.85507,48.05602,1114.40063
12,0.092,200.351,117.46761,1114.77832,301.27676,140.65356,1103.16321,327.87936,49.30187,1115.17957
13,0.1,200.19904,117.64672,1115.57361,301.15637,140.67133,1103.10315,327.41803,49.78433,1115.51794
14,0.108,200.19385,117.71067,1115.49377,301.33517,142.10194,1104.12561,326.50308,50.74991,1116.37427
15,0.117,199.59474,118.72424,1115.49365,301.33517,142.10194,1104.12561,326.65289,52.06079,1118.18738
16,0.125,199.56775,120.24703,1116.30737,301.00723,143.33369,1104.61096,326.33682,52.88413,1118.84705
17,0.133,198.89151,121.01239,1116.73462,300.08228,144.38116,1104.60498,325.61639,52.9463,1119.2439
18,0.142,198.40607,121.94499,1116.71143,300.91345,146.59137,1104.51245,324.15579,53.66315,1121.63733
19,0.15,197.92641,123.16553,1117.19702,300.55939,146.27898,1104.05969,324.41547,53.56861,1123.15173
20,0.158,197.91545,124.24493,1117.49939,300.33221,146.69994,1103.52185,323.90067,54.52671,1123.93274
21,0.167,197.82991,125.31725,1118.44214,299.89139,146.73573,1103.48865,325.41385,57.8511,1124.93774
22,0.175,198.16371,125.57397,1119.03442,300.67792,147.02739,1102.83716,324.01392,56.3296,1125.08069
23,0.183,198.60222,127.60387,1119.09509,300.83047,147.26546,1102.79517,325.08658,57.40746,1126.25708
24,0.192,198.79356,127.07321,1119.37598,301.01712,147.05563,1102.18579,324.95416,58.51049,1125.44006
25,0.2,198.84732,127.96619,1119.01526,300.89917,147.46887,1102.04944,324.36609,58.51296,1124.31714
26,0.208,198.86195,127.9289,1118.57141,299.66742,146.39702,1102.26953,323.67004,58.13169,1123.86926
27,0.217,198.72954,127.85508,1118.22546,299.69766,147.02922,1102.27722,324.19742,57.22465,1122.73303
28,0.225,198.07024,126.09798,1117.37463,299.99646,147.7963,1102.89209,325.64508,59.05568,1121.56616
29,0.233,198.06322,125.65141,1117.31628,298.35574,148.39008,1102.20544,324.57755,57.33816,1120.0365
30,0.242,197.35791,124.46688,1117.0166,298.26691,148.73413,1102.19092,325.00903,57.51456,1119.23718
31,0.25,196.99178,123.58289,1116.07532,298.34756,149.61816,1103.45886,324.73019,58.20179,1118.42273
32,0.258,196.78801,123.29073,1115.67737,298.14566,148.87766,1103.5614,324.73019,58.20179,1118.42273
33,0.267,196.65234,123.03719,1115.48279,298.10669,149.17319,1103.72302,324.73019,58.20179,1118.42273
34,0.275,196.4958,123.33721,1115.47754,298.04916,149.45982,1103.78735,324.73019,58.20179,1118.42273
35,0.283,196.52103,123.33251,1115.47949,297.64075,149.00294,1104.05054,324.77914,58.54497,1118.44641
36,0.292,196.52103,123.33251,1115.47949,297.76926,148.97081,1104.98425,324.41638,58.8069,1118.55457
37,0.3,195.80418,123.91988,1115.57312,297.76926,148.97081,1104.98425,323.82288,58.74228,1118.76941
38,0.308,195.50189,124.57682,1115.86682,297.27887,150.37311,1104.54309,323.83966,58.88633,1118.90503
39,0.317,195.29057,125.41201,1115.99219,296.72989,150.48781,1104.14001,322.46576,59.61082,1119.61865
40,0.325,195.46809,125.85923,1116.35925,296.72729,151.21913,1104.46313,321.68063,58.72793,1119.79468
41,0.333,195.3996,126.32812,1116.42004,297.99057,151.76532,1102.66003,321.45456,59.32544,1121.33093
42,0.342,195.37508,126.45282,1116.53845,297.35645,150.77434,1102.4718,320.50998,58.43615,1122.79285
43,0.35,195.98978,127.69464,1116.70117,297.15857,150.6259,1102.22998,320.87399,59.29237,1123.39734
44,0.358,195.56224,128.25537,1117.09778,296.81622,150.1459,1100.95349,322.73239,60.83951,1123.98108
45,0.367,195.59569,129.31242,1117.21326,297.04846,148.93361,1100.3634,322.33624,60.46796,1124.54297
46,0.375,195.73689,129.19759,1117.26221,297.6384,148.82587,1100.39307,322.36362,60.5268,1124.51904
47,0.383,195.77968,129.13731,1117.14258,297.27661,148.44724,1100.56641,322.05563,60.7181,1124.33081
48,0.392,196.2536,128.41637,1116.69348,297.53647,148.47218,1099.19397,320.79361,58.98049,1123.53137
49,0.4,196.18654,128.82709,1116.81848,297.59241,148.54451,1098.68884,320.29498,58.62878,1123.06372
50,0.408,195.05803,128.4377,1116.37708,297.26859,149.22858,1098.37219,322.68445,61.65598,1120.901
51,0.417,195.73506,128.32574,1115.51868,297.00531,148.72536,1098.74121,322.71152,60.22326,1119.31287
52,0.425,195.17532,128.53369,1114.08655,296.89893,148.54436,1097.65979,320.27173,58.25522,1118.28857
53,0.433,195.612,127.17758,1113.4408,296.86414,149.29015,1097.66516,320.96191,58.89158,1117.67847
54,0.442,195.39722,126.75897,1112.95081,297.40424,149.80794,1098.0614,320.94028,59.0266,1116.89075
55,0.45,194.69261,127.19132,1112.35156,297.60999,150.21127,1098.91846,321.26495,59.08564,1116.62207
56,0.458,194.5302,128.06865,1110.30798,298.15723,150.87572,1098.849,322.01605,61.09246,1115.69263
57,0.467,194.29062,128.2459,1110.00293,297.20319,150.7121,1097.51404,321.93399,61.2425,1114.92725
58,0.475,194.35831,128.6884,1109.82751,297.16791,150.81142,1097.39758,320.74619,59.54727,1114.46448
59,0.483,195.14081,129.89638,1109.42725,297.07364,151.78395,1097.48059,321.01407,61.46933,1114.35608
60,0.492,193.99515,131.25465,1109.60742,297.03696,152.15788,1097.23889,321.58801,62.74287,1114.71631
61,0.5,194.18465,130.74306,1109.77124,297.31015,154.02592,1098.2052,321.58801,62.74287,1114.71631
62,0.508,193.43138,131.90665,1110.13733,296.41666,154.16936,1097.823,320.24225,63.8486,1115.51807
63,0.517,193.23134,133.43889,1110.22363,296.04318,154.55937,1097.35095,320.15378,64.57217,1116.18835
64,0.525,193.00732,134.50916,1110.66724,295.77255,155.73256,1096.30176,320.18082,65.74287,1116.95447
65,0.533,193.06891,135.5367,1111.06262,296.06876,155.71436,1096.24512,320.2005,66.2737,1117.62793
66,0.542,193.32178,136.48633,1111.15747,296.31195,158.75301,1095.13782,320.15094,67.12312,1118.09363
67,0.55,193.53767,137.56015,1111.51416,296.24533,160.07286,1094.90601,320.33691,69.07682,1118.34436
68,0.558,194.05154,139.00206,1112.08997,296.32376,159.97017,1095.15564,320.76758,70.87491,1118.34375
69,0.567,194.73192,139.79941,1112.71484,296.14264,161.06396,1094.48352,320.08646,71.80224,1117.68445
70,0.575,194.90157,141.33795,1112.73962,296.1597,161.44276,1094.3949,320.427,72.5099,1117.85767
71,0.583,194.98247,141.57462,1112.76709,296.07288,161.53377,1094.3031,320.49442,72.88156,1117.86279
72,0.592,194.9024,141.8306,1112.40454,296.08112,162.32092,1094.35535,320.49442,72.88156,1117.86279
73,0.6,194.24011,142.40926,1111.86902,295.65179,162.93063,1095.17004,320.69519,73.38258,1117.93359
74,0.608,194.24011,142.40926,1111.86902,295.45337,163.88133,1094.84619,320.17609,75.36144,1117.26062
75,0.617,193.9597,143.08792,1111.66003,295.2468,165.05872,1094.38464,319.66901,75.45612,1117.32361
76,0.625,194.36725,143.66246,1111.19006,295.39154,167.16774,1094.97632,319.7074,77.36226,1117.15662
77,0.633,194.58998,144.86826,1111.02722,295.05569,168.0697,1094.60132,319.60724,78.62783,1116.80627
78,0.642,192.80217,146.95187,1109.35681,294.17792,169.18039,1095.00317,319.20123,79.41295,1116.83032
79,0.65,192.26682,147.96039,1108.82166,294.29752,170.74947,1095.23608,319.21094,79.43023,1117.32874
80,0.658,192.78842,150.11642,1108.54919,294.31705,172.46309,1094.48206,317.34113,80.96737,1118.26794
81,0.667,192.88072,151.28047,1108.06494,293.87177,172.87103,1094.52466,316.72275,83.19031,1118.78601
82,0.675,193.09773,152.8334,1107.94714,294.10858,174.27141,1094.48096,317.26019,86.8195,1119.64172
83,0.683,191.3548,156.20273,1106.63818,293.62982,176.64055,1093.32666,315.5239,87.20321,1119.32935
84,0.692,191.03044,158.4379,1106.04968,293.56912,178.80258,1092.66699,312.61002,85.28837,1120.42468
85,0.7,191.40547,161.17137,1106.3363,293.7504,179.84587,1091.74951,312.13174,87.30735,1121.40381
86,0.708,190.49518,163.84206,1106.15222,293.37997,180.70845,1090.32483,310.32901,88.38284,1122.99707
87,0.717,190.30089,167.1796,1105.54224,293.37567,182.30141,1090.02429,310.22479,92.08701,1122.25696
88,0.725,190.35509,169.55899,1104.36353,293.74472,183.57657,1087.63684,308.6506,92.28775,1122.90088
89,0.733,190.42038,171.54507,1103.94287,294.00775,184.44759,1086.13757,308.08527,92.79179,1122.01953
90,0.742,190.35179,173.34509,1102.99609,294.18958,185.93481,1084.61523,307.55466,95.01452,1119.48706
91,0.75,190.74155,175.33926,1101.65161,293.51385,186.40607,1083.51282,307.00528,97.09187,1118.91882
92,0.758,189.99716,177.64467,1100.84644,293.62674,187.24673,1082.90845,307.10483,98.18926,1118.07007
93,0.767,190.00427,178.49969,1100.33105,293.48514,188.65324,1082.58521,307.26904,99.30968,1117.29211
94,0.775,190.01793,179.08485,1099.62732,292.7063,190.0697,1081.927,307.0372,99.81091,1116.62537
95,0.783,189.37695,180.29773,1098.25745,292.66525,191.43375,1082.53345,306.29886,100.94339,1116.64636
96,0.792,189.1958,180.76144,1097.91113,292.64725,193.00328,1082.73206,305.80234,101.49272,1116.38074
97,0.8,189.01749,181.51479,1097.48889,292.46869,195.60971,1082.6239,305.68182,102.58455,1116.75537
98,0.808,188.76373,181.2989,1096.83398,291.61411,197.33081,1082.86499,304.12103,104.11061,1117.34229
99,0.817,187.88795,184.78757,1095.36975,291.37793,197.67705,1082.56421,302.62448,106.3233,1118.90247
100,0.825,186.86571,186.97336,1093.33472,290.54285,199.59679,1082.5481,301.85205,107.92191,1120.85376
101,0.833,188.27577,188.51051,1091.0415,290.53055,202.31673,1081.77649,299.24713,110.89001,1121.9541
102,0.842,186.29185,193.27025,1090.4209,289.66827,204.84271,1080.73669,296.16983,113.07114,1124.59131
103,0.85,185.31003,196.90642,1089.46509,288.16565,207.80157,1078.87109,293.51733,117.07326,1126.51489
104,0.858,185.19405,202.45151,1088.48975,286.78589,208.52196,1075.88245,288.00937,122.59781,1128.17822
105,0.867,183.47733,206.75206,1086.41724,285.85031,210.17154,1072.80188,284.73422,126.05363,1128.77234
106,0.875,181.57735,213.95811,1085.30212,283.51544,211.32976,1068.85071,281.01639,130.13379,1129.97644
107,0.883,179.3607,220.36946,1083.05554,282.16003,211.92778,1066.07947,280.5004,136.46663,1131.19714
108,0.892,177.91078,223.88521,1081.95447,279.99451,211.78877,1062.18481,273.88177,138.50594,1130.9165
109,0.9,176.39252,230.45857,1081.15906,276.90527,211.74768,1059.20068,267.90338,140.11269,1129.74951
110,0.908,174.5739,236.0032,1078.06799,274.20126,211.8026,1057.1178,264.12543,142.17134,1128.3175
111,0.917,172.06578,242.17836,1075.39697,271.20743,212.06995,1055.2467,257.62024,143.88553,1126.35913
112,0.925,169.29567,244.54614,1072.95703,268.36926,212.24335,1053.30847,252.52782,144.03603,1124.58911
113,0.933,167.83946,247.60735,1070.76831,265.56943,213.3781,1052.1427,248.30937,143.31442,1123.06702
114,0.942,164.70853,248.76241,1067.37903,262.88315,213.71184,1051.54443,241.8342,144.13286,1121.69153
115,0.95,162.22153,249.87883,1063.39929,260.30688,214.28773,1051.03821,235.56935,145.46637,1119.71643
116,0.958,159.66953,249.81287,1061.67786,257.30518,214.67375,1049.82581,231.66679,145.45061,1119.24561
117,0.967,156.04659,249.9176,1057.61804,254.77611,215.3273,1049.11572,227.27061,148.04593,1118.26392
118,0.975,154.17259,251.74405,1053.203,251.74471,216.8847,1047.79517,224.34695,149.53574,1117.72131
119,0.983,151.83051,251.65417,1050.349,250.8555,217.36154,1046.40466,221.8045,152.63069,1117.47473
120,0.992,149.3851,253.43292,1046.85132,247.97455,217.95468,1042.99365,218.97137,155.71762,1117.3241
121,1,148.48051,254.54395,1044.05469,246.02002,217.84924,1040.72314,216.36299,158.41661,1117.32166
122,1.008,148.20515,255.42812,1041.47009,243.96303,216.64185,1037.79822,212.80861,162.2699,1116.94617
123,1.017,147.41263,259.16553,1038.08984,242.36679,216.86241,1034.93933,210.52739,165.02499,1116.76587
124,1.025,146.66663,260.53867,1035.79175,239.81506,214.39568,1031.51099,206.23752,167.96706,1114.99744
125,1.033,147.02985,262.89517,1033.48633,238.40115,213.80286,1029.73132,204.43852,168.68492,1114.17346
126,1.042,145.11594,265.8317,1031.17944,234.75293,212.3963,1027.45764,203.03403,170.16571,1111.67004
127,1.05,147.28259,266.70575,1029.33606,232.83394,211.12981,1025.43701,199.98856,170.21318,1110.64355
128,1.058,144.79451,270.23096,1026.26379,231.28369,210.04539,1023.79565,196.62672,172.03966,1109.50305
129,1.067,145.76395,271.1326,1023.53455,228.67624,209.00156,1021.92822,193.80367,173.20631,1108.93079
130,1.075,144.57526,271.85339,1020.95575,226.88545,208.74654,1020.34991,191.44662,174.67088,1107.26501
131,1.083,144.18866,272.22379,1018.81085,224.23808,207.26924,1018.63678,188.08513,174.96567,1106.03406
132,1.092,143.08255,272.68774,1015.47809,222.37233,206.98967,1016.95129,184.64928,175.22398,1105.04163
133,1.1,140.55095,272.73038,1013.63556,220.58365,206.29887,1015.34674,181.48318,175.85953,1104.01453
134,1.108,139.93494,272.84174,1010.85944,217.62869,204.86618,1015.01178,179.79294,177.33237,1101.40198
135,1.117,139.04988,273.2063,1007.88422,215.59732,203.55255,1013.42572,177.44409,177.98846,1099.18713
136,1.125,137.61559,272.80872,1005.46735,214.08383,202.98872,1011.11731,174.07733,178.24992,1097.82764
137,1.133,136.51239,271.86816,1002.42212,212.21765,202.6705,1009.47034,170.08893,179.12444,1096.60071
138,1.142,135.4641,272.26669,1000.29114,209.48177,202.52023,1008.25061,167.46825,180.1299,1095.06152
139,1.15,134.63998,272.16135,997.07147,208.00919,200.93945,1006.91895,163.18533,179.97041,1094.55334
140,1.158,134.14996,272.38788,995.19366,205.66502,200.79955,1005.6109,164.8998,181.92125,1092.54675
141,1.167,134.03955,272.00064,992.91425,201.93307,197.90671,1003.01147,161.84187,181.55481,1091.37549
142,1.175,133.79124,271.58353,991.10876,201.33134,195.47891,1001.89948,160.55437,181.68114,1091.0824
143,1.183,133.8549,271.95978,988.55023,198.42805,193.47517,1001.27167,158.26132,181.62317,1089.52344
144,1.192,133.82368,270.8924,987.59283,197.61099,191.98299,1000.59778,156.49817,182.10675,1088.93152
145,1.2,133.76663,271.20065,986.13715,196.42993,190.22176,999.76996,154.45589,182.52495,1088.09338
146,1.208,133.25899,269.87988,985.7998,194.00468,188.80228,997.44873,152.77861,181.51405,1086.27295
147,1.217,132.42604,269.16394,984.83112,192.27995,187.45865,996.90314,151.26581,180.70872,1085.90808
148,1.225,132.23268,268.29968,983.62823,191.30258,185.69525,996.39923,148.16783,179.5636,1085.4447
149,1.233,132.19685,268.21371,982.1438,189.80824,185.06143,996.18811,146.73665,179.33804,1084.43665
150,1.242,131.57216,267.89981,981.16888,188.27307,184.67375,996.07568,143.58769,177.61826,1083.36682
151,1.25,131.73509,267.5173,980.69122,187.19249,183.36131,995.7641,141.56543,177.97502,1082.89563
152,1.258,130.44505,266.40872,979.9834,186.12169,182.92334,995.67133,139.6273,178.00163,1081.41064
153,1.267,129.1412,265.46899,979.14319,184.82709,182.19193,995.15332,136.33162,175.76408,1080.37488
154,1.275,127.96771,264.21701,977.88995,184.3275,180.37964,994.72052,134.66353,175.45963,1079.90491
155,1.283,127.57645,263.84668,976.46722,183.04858,179.37538,994.18353,133.11151,176.39438,1079.37891
156,1.292,126.66923,262.57166,974.99731,180.80812,177.99202,993.55841,131.53091,176.15515,1078.15308
157,1.3,125.21811,261.39709,973.75043,179.08275,176.76715,992.97876,129.88284,175.4402,1077.29468
158,1.308,124.93967,260.61969,972.73334,176.61749,175.3933,991.82251,127.60986,175.1347,1076.39661
159,1.317,124.42257,260.24066,971.2724,173.56851,175.3154,990.5766,126.5799,175.08946,1075.79944
160,1.325,124.42337,258.86496,969.75238,172.18077,170.90164,989.60205,125.63585,175.4398,1075.5575
161,1.333,124.38265,257.56177,969.28821,170.65704,169.99094,988.63977,122.81435,173.68623,1075.56262
162,1.342,124.09813,256.94046,968.95917,167.82074,167.46175,987.90442,121.70116,173.14326,1074.83142
163,1.35,123.69809,255.91313,968.13757,165.91353,165.41922,987.22498,121.01483,172.62874,1073.67163
164,1.358,123.32904,255.31679,968.0708,163.96938,162.90948,986.09302,118.24502,171.14828,1072.96289
165,1.367,123.4416,254.84857,967.23267,163.00613,161.31473,985.55988,116.15302,171.0493,1071.20129
166,1.375,123.49241,254.31064,966.17975,160.9832,161.18741,983.55579,114.2521,171.07176,1070.41772
167,1.383,123.38697,253.41176,965.89618,160.07576,160.14841,984.14532,110.83858,170.13152,1069.89685
168,1.392,122.8322,253.40367,964.47638,159.55203,159.69028,984.52045,108.90817,169.56883,1068.68396
169,1.4,122.48966,252.74815,963.68854,159.40413,159.68048,985.02228,107.42755,168.43674,1068.06409
170,1.408,121.67719,251.1938,963.80817,159.89629,159.47389,985.41492,105.01377,167.73056,1067.52844
171,1.417,120.36356,250.7644,963.50604,159.90599,159.70396,985.55383,103.451,166.23392,1066.08813
172,1.425,119.49346,250.08614,963.07275,160.15091,159.54663,985.53711,102.81602,165.65425,1064.46838
173,1.433,118.53601,249.63542,962.77905,160.15738,159.23122,985.36621,102.55688,165.6371,1064.01318
174,1.442,117.87366,248.27419,962.59839,160.22939,159.10768,985.1098,101.70708,164.48344,1063.36414
175,1.45,117.52193,248.23584,962.19049,158.77985,156.95209,983.62744,101.63441,164.43648,1063.0907
176,1.458,116.99561,245.84181,960.802,157.57695,156.1955,983.12695,100.93144,165.36409,1063.32153
177,1.467,116.40226,244.44945,959.8266,155.83168,154.24709,981.89099,100.06664,165.21654,1062.86182
178,1.475,115.93356,244.40883,958.20874,153.9594,151.59007,981.38507,99.08378,164.15994,1061.64917
179,1.483,116.50311,241.5937,956.48615,150.70929,149.80653,980.27362,98.53009,164.07779,1061.30603
180,1.492,116.29134,240.1273,954.62494,148.12427,147.43509,978.45618,98.19373,164.4765,1061.58362
181,1.5,116.74082,239.39659,953.5575,144.7959,145.35481,976.86249,97.15732,163.39915,1060.21997
182,1.508,116.27418,237.91235,952.16357,143.33963,142.93423,976.40546,96.09987,161.74661,1060.17419
183,1.517,115.84855,236.20677,951.66473,142.07716,139.35757,975.11523,95.56338,160.11852,1058.64844
184,1.525,116.27087,234.64034,951.13379,140.5544,137.46211,973.84985,94.78867,159.29024,1058.13232
185,1.533,116.5894,233.37318,950.69946,139.79097,136.48711,973.23737,93.43953,157.90607,1057.47351
186,1.542,117.26151,231.7226,950.5921,140.32603,134.55957,971.17505,92.54585,157.43692,1056.0647
187,1.55,117.66582,230.73949,949.91394,140.57791,134.24911,970.73456,91.43111,156.47137,1055.06262
188,1.558,118.17889,230.77036,949.05792,140.49109,133.9445,969.62347,91.09901,154.84869,1053.29712
189,1.567,117.61362,230.29823,948.33142,141.05855,133.18411,969.00146,90.98613,152.34697,1051.49902
190,1.575,117.24796,229.57101,947.75079,141.88092,132.47343,968.13043,90.99326,151.10353,1050.34753
191,1.583,116.26295,228.37508,947.05951,141.47026,132.86015,966.99524,90.91322,150.01367,1049.59009
192,1.592,115.90487,227.47092,946.81128,142.29945,131.99646,966.29443,91.09085,149.9256,1048.74988
193,1.6,116.07128,226.93307,946.93646,142.12047,131.33406,965.28784,91.42435,149.79938,1048.38196
194,1.608,116.01731,225.84065,946.37708,141.76527,130.87027,965.04291,92.6804,149.85756,1048.11438
195,1.617,115.81227,225.8432,945.95142,139.70352,129.86395,965.25787,92.05678,150.28978,1048.60522
196,1.625,115.57276,225.73,945.60193,138.87311,129.43069,965.38831,91.32298,150.09445,1048.99353
197,1.633,115.55759,225.56367,945.03253,137.41492,129.29189,965.53638,91.15304,150.46286,1049.73694
198,1.642,115.55759,225.56367,945.03253,135.89186,128.41336,965.6109,90.26199,150.93863,1050.22131
