Frame#,Time,L.Forearm.x,L.Forearm.y,L.Forearm.z,L.Ulna.x,L.Ulna.y,L.Ulna.z,L.Radius.x,L.Radius.y,L.Radius.z
1,0,519.19373,213.83221,1342.17822,589.42267,289.46265,1322.55969,653.3429,208.66484,1317.05566
2,0.008,518.61322,214.32196,1340.78345,588.96521,289.46765,1324.02722,653.78815,209.60513,1317.88245
3,0.017,517.78186,211.75433,1341.39905,588.85876,289.47189,1325.1145,653.35828,210.14426,1318.97559
4,0.025,516.65393,212.52341,1340.99646,588.76794,289.18115,1325.77917,653.62646,209.23102,1321.13953
5,0.033,517.39594,212.07474,1342.12524,587.70905,289.83047,1326.20422,653.66779,208.98268,1324.25
6,0.042,517.39386,212.40668,1342.77527,587.70905,289.83047,1326.20422,652.74103,209.51967,1325.94238
7,0.05,515.93463,213.49397,1344.10547,587.49591,290.11081,1326.18042,653.27808,210.07896,1328.00952
8,0.058,516.68323,214.12097,1344.75354,587.59192,290.19601,1326.02686,652.63275,209.24524,1329.14648
9,0.067,515.99438,215.22246,1345.28333,587.44269,290.92752,1325.80481,652.1944,209.06192,1330.93445
10,0.075,516.18805,217.62892,1347.02942,587.63141,290.81058,1325.53821,652.03467,208.83105,1331.74573
11,0.083,516.50952,218.35751,1349.03601,587.32031,290.83798,1324.92456,650.43225,209.73106,1331.6543
12,0.092,515.76477,219.6322,1349.75854,587.55939,291.35257,1324.23267,650.75513,206.28908,1332.53333
13,0.1,515.12616,220.70743,1349.41992,588.07922,291.21637,1323.18762,651.43005,205.61584,1331.17468
14,0.108,514.56067,220.70692,1349.25891,587.8338,290.76227,1322.06409,650.13544,209.11848,1328.49805
15,0.117,513.86481,221.08788,1348.50757,587.16559,290.47321,1321.67505,649.77802,205.5208,1326.65002
16,0.125,513.76337,221.1371,1348.2804,586.55328,290.56802,1321.3092,651.22705,203.94897,1324.84009
17,0.133,513.5498,220.34384,1345.67688,585.78186,291.14908,1321.47009,649.36774,204.5936,1320.89929
18,0.142,513.36505,218.02,1344.7782,585.21344,291.84909,1321.96204,646.77936,210.64662,1319.29639
19,0.15,513.67395,217.22139,1344.10083,584.80414,291.74329,1322.83228,646.3877,210.18001,1318.55151
20,0.158,513.97449,216.99979,1343.55029,584.78186,291.23734,1323.5697,646.32782,210.56404,1317.74231
21,0.167,513.00098,216.3084,1342.24756,584.84546,291.04086,1325.07178,647.05902,210.12123,1318.68933
22,0.175,513.14288,217.16003,1341.67883,585.18036,290.9137,1325.83789,646.77936,210.64662,1319.29639
23,0.183,512.56445,215.68349,1342.35193,584.3595,288.94363,1326.69385,649.76019,204.25008,1321.6156
24,0.192,512.55261,214.9404,1342.27039,584.22827,288.87961,1328.31775,647.89392,207.44984,1322.85498
25,0.2,512.17932,214.04663,1342.5437,584.22827,288.87961,1328.31775,648.19653,207.42148,1325.8905
26,0.208,512.12494,214.39195,1342.13586,584.53809,288.8093,1329.05066,648.3717,203.97528,1328.00049
27,0.217,511.28122,214.23364,1344.20801,584.39337,288.78699,1329.11646,647.44653,203.83768,1329.58765
28,0.225,512.02484,214.81342,1344.99426,584.53809,288.8093,1329.05066,647.13428,206.50427,1329.91541
29,0.233,511.2984,215.63451,1345.53394,584.16089,289.28687,1328.38098,646.81989,206.08282,1330.77563
30,0.242,510.70963,216.25444,1346.55469,584.16089,289.28687,1328.38098,646.45435,206.60039,1332.03149
31,0.25,510.98022,217.25777,1346.84717,583.82813,289.23413,1327.93616,646.69696,206.06796,1332.45813
32,0.258,511.17093,217.05708,1347.86023,583.66479,289.61917,1327.51123,645.98474,206.2477,1332.01819
33,0.267,510.70694,217.67773,1348.06677,584.21448,289.3801,1326.57239,647.13531,202.39999,1331.91602
34,0.275,510.21307,218.08049,1347.62451,583.77515,289.29468,1326.02905,645.90472,205.31023,1330.12634
35,0.283,509.8812,218.30272,1347.10315,583.95972,289.677,1325.28723,645.04944,207.1622,1329.10132
36,0.292,510.07318,218.1149,1346.48682,583.7569,290.16425,1324.64868,645.02795,204.56604,1327.73376
37,0.3,509.87537,217.14778,1345.75256,583.28302,290.72134,1322.44312,644.92664,204.79907,1325.39209
38,0.308,509.63345,216.91971,1344.44995,583.04047,290.70981,1322.13879,645.31213,204.4267,1322.19519
39,0.317,510.90393,217.78551,1343.80444,583.04047,290.70981,1322.13879,646.26971,206.16428,1320.23193
40,0.325,511.46448,216.38007,1343.33105,583.67749,290.38239,1321.63257,646.07849,206.13368,1318.52258
41,0.333,512.01971,215.14873,1342.24731,583.87439,290.45563,1321.87122,645.89655,210.47745,1315.66272
42,0.342,512.50476,213.21213,1341.00684,583.76459,290.61887,1322.48425,646.43799,209.2907,1315.15942
43,0.35,512.45264,212.90643,1340.5105,584.16156,289.66898,1322.65308,647.30103,211.23128,1314.49805
44,0.358,512.82324,212.04381,1339.44287,584.21387,288.64603,1325.08057,647.74701,210.73685,1317.59558
45,0.367,513.03656,211.56779,1339.59448,584.38013,288.58041,1325.47412,648.30652,209.34917,1319.32715
46,0.375,512.11426,211.8353,1340.25574,584.26801,288.25012,1325.76758,650.03992,204.5809,1321.93127
47,0.383,511.8999,212.36409,1340.85852,584.26801,288.25012,1325.76758,649.65967,208.23131,1322.64941
48,0.392,511.30887,212.73517,1342.55786,584.22687,288.31091,1325.68127,649.22736,208.14738,1326.0011
49,0.4,512.62103,212.30093,1343.25757,584.38013,288.58041,1325.47412,650.12073,205.40184,1327.66333
50,0.408,511.84348,212.98244,1344.66479,583.76398,289.81659,1324.74927,650.3844,205.00049,1328.85327
51,0.417,512.14471,213.82495,1344.68835,583.71265,290.32166,1323.75977,650.28693,204.88924,1329.37695
52,0.425,512.39258,215.41588,1345.35291,583.76459,290.61887,1322.48425,649.86804,204.76247,1329.83508
53,0.433,511.04141,216.57732,1345.7135,583.94263,289.93353,1321.88489,649.09442,204.75449,1329.60388
54,0.442,511.22278,216.81053,1346,584.08398,289.61716,1321.01587,647.99164,204.36113,1328.09424
55,0.45,510.83472,217.38873,1345.48425,584.07574,289.74936,1319.68958,648.18048,204.66864,1327.12109
56,0.458,510.86282,217.51421,1344.97925,584.58441,288.88748,1319.29944,647.54291,203.34663,1324.63196
57,0.467,510.99545,217.38629,1344.24023,584.53436,288.97681,1319.18567,645.22443,205.65608,1321.29077
58,0.475,510.85666,217.42349,1343.86523,584.53436,288.97681,1319.18567,645.10815,205.68301,1319.80859
59,0.483,511.01788,217.11752,1343.35278,584.58441,288.88748,1319.29944,644.23346,208.54105,1317.40662
60,0.492,512.08636,214.79488,1342.13892,584.59143,288.53986,1319.39978,644.48425,208.28203,1314.01697
61,0.5,510.83789,215.72037,1340.16553,584.86853,288.01651,1320.21521,645.01758,209.80473,1313.39233
62,0.508,512.02936,212.68837,1340.24927,584.61774,288.34381,1321.32227,645.06171,209.55011,1313.06958
63,0.517,512.12109,212.20787,1339.44031,583.99841,288.18399,1322.38477,646.11285,209.84819,1313.80164
64,0.525,511.6684,212.66692,1339.0199,584.79352,287.67709,1324.03198,647.46643,206.81158,1316.02002
65,0.533,510.94626,212.55643,1338.34058,584.07843,286.6734,1324.8623,647.83966,204.8954,1318.12671
66,0.542,511.78641,211.98732,1338.09827,584.18085,286.61032,1325.67969,648.84052,201.76669,1320.65149
67,0.55,512.4903,211.01068,1339.88379,584.18085,286.61032,1325.67969,647.64838,204.98067,1321.58044
68,0.558,511.94022,211.29413,1340.76257,584.29285,286.3837,1325.80615,647.60522,204.98466,1322.07471
69,0.567,511.19894,212.01135,1342.73303,584.18085,286.61032,1325.67969,647.27484,203.17967,1324.39331
70,0.575,511.84399,211.62137,1343.32739,584.16907,286.41846,1325.42969,646.47388,204.00673,1326.88391
71,0.583,512.35699,213.01884,1343.86475,584.16907,286.41846,1325.42969,646.54462,204.0705,1327.71326
72,0.592,511.98447,213.15685,1344.69299,584.10468,286.26022,1325.16968,646.47333,204.03555,1329.05054
73,0.6,511.76041,213.44916,1345.2738,584.16272,286.4953,1324.97681,646.12927,198.8911,1333.14551
74,0.608,511.83401,215.437,1348.03711,584.41394,286.33026,1324.7489,645.91022,203.31273,1330.87317
75,0.617,511.71286,215.6626,1348.25354,584.70483,286.37143,1323.60559,645.91022,203.31273,1330.87317
76,0.625,511.64566,215.97325,1348.34412,584.85156,286.56491,1322.60522,645.97638,203.20525,1330.62354
77,0.633,511.76495,215.85297,1347.95422,584.78491,285.72083,1322.15283,645.75073,203.59715,1328.83105
78,0.642,511.4733,214.15871,1345.80469,584.40741,285.2948,1321.28503,645.77637,203.66246,1326.41846
79,0.65,511.65768,213.69408,1344.77112,584.63129,285.84592,1321.03699,647.52295,199.62334,1322.90552
80,0.658,512.10114,213.17891,1344.27319,584.72351,286.3627,1320.59509,646.00885,202.63417,1319.8147
81,0.667,512.97552,212.57695,1343.02551,584.85999,286.367,1320.55627,648.68604,199.23495,1316.38257
82,0.675,514.466,211.11679,1342.50305,585.14191,286.19604,1320.72986,647.87347,202.91069,1313.26599
83,0.683,515.16504,210.42256,1341.8905,586.11359,286.89886,1321.36438,648.53503,203.43478,1312.94666
84,0.692,515.17676,209.28088,1341.4209,586.70001,286.57059,1323.29846,648.95142,204.0876,1312.92969
85,0.7,515.30823,209.49165,1340.29968,586.36957,285.35205,1325.62292,649.62866,205.0535,1313.62024
86,0.708,515.06628,209.08322,1340.05835,586.34595,285.25815,1326.42053,649.92694,205.33826,1314.74146
87,0.717,514.64044,209.59116,1339.20276,586.06488,284.19406,1327.20471,649.78149,206.44147,1317.65088
88,0.725,513.93542,209.78355,1339.66199,586.27679,284.10419,1327.57617,649.38855,203.78415,1320.67749
89,0.733,513.63507,210.26451,1340.58411,586.16821,285.06369,1328.0636,648.22125,203.42108,1322.25415
90,0.742,512.45386,211.0284,1341.72534,586.12585,284.75769,1327.68494,649.28607,202.0892,1324.70679
91,0.75,513.06812,210.58508,1343.96204,585.79041,284.80344,1327.40857,647.82776,202.15659,1327.51563
92,0.758,512.48254,211.52884,1344.9342,585.74255,284.92496,1327.22839,647.80011,202.74025,1328.46338
93,0.767,512.53656,212.58084,1345.38513,585.80359,284.85199,1326.50549,647.31635,203.06926,1330.15466
94,0.775,512.93695,212.07678,1346.18982,585.90637,284.86185,1326.31152,646.24225,203.29547,1330.84656
95,0.783,512.57013,213.00516,1347.30713,586.03552,284.83511,1325.82056,646.02032,203.254,1331.31458
96,0.792,511.83621,214.19717,1347.52014,585.68121,284.87604,1324.97546,645.85767,202.91537,1331.37476
97,0.8,511.44562,216.68236,1349.56494,585.7663,285.38129,1324.33325,645.5943,202.62038,1330.95789
98,0.808,511.14246,217.60046,1349.19128,585.92828,286.63138,1323.09338,645.83075,202.313,1330.00049
99,0.817,511.31613,217.75562,1348.54663,585.33203,285.53653,1322.29407,644.3913,201.77301,1328.62878
100,0.825,511.13617,217.31854,1347.77332,585.28601,284.59167,1321.35986,645.54681,202.00433,1325.09375
101,0.833,511.44296,214.48166,1345.36194,585.28601,284.59167,1321.35986,645.43671,201.01698,1322.31665
102,0.842,512.12421,213.50902,1344.67834,585.69818,284.90106,1321.78723,645.64685,201.84352,1320.22668
103,0.85,512.62531,213.49503,1343.75635,586.18286,285.21576,1322.35596,645.71704,200.78426,1316.27246
104,0.858,512.34058,212.71967,1342.11414,587.1947,285.67294,1323.38135,646.12048,201.92256,1314.77661
105,0.867,512.61682,212.0126,1340.44641,586.93933,284.68127,1324.76343,647.05383,201.90149,1313.4021
106,0.875,513.54974,210.57945,1340.42297,587.44958,284.27451,1325.94031,648.03241,201.81477,1313.78308
107,0.883,514.73212,210.27463,1340.69409,587.87219,284.70978,1326.40283,649.03198,202.04935,1315.05054
108,0.892,514.61566,211.07124,1339.65527,587.68781,283.84409,1327.22192,649.24847,202.77638,1315.88452
109,0.9,514.47571,210.65906,1339.93298,587.58185,282.94641,1328.57617,649.75537,201.39778,1318.65637
110,0.908,514.34229,210.31328,1339.62073,587.25372,282.07593,1329.43396,648.68781,202.43385,1320.74634
111,0.917,514.73364,209.81757,1340.8241,587.26868,282.54004,1329.74292,648.03638,201.1358,1322.69507
112,0.925,514.44574,210.45648,1341.85425,587.67236,283.62073,1329.06128,649.71478,199.93073,1325.3241
113,0.933,513.59442,211.41676,1343.39771,587.14362,283.50806,1328.69653,649.7251,199.66658,1328.50134
114,0.942,513.53796,211.56793,1344.31616,586.95361,284.47165,1328.06018,649.44867,199.14824,1329.96313
115,0.95,512.97382,212.20125,1345.24255,587.19891,284.47748,1326.88074,648.92786,199.54037,1330.59338
116,0.958,513.15271,212.81606,1346.77612,588.07788,283.84995,1326.28906,648.49939,199.5322,1332.15759
117,0.967,512.8985,212.33899,1347.02148,587.44958,284.27451,1325.94031,648.08716,199.07178,1333.28687
118,0.975,512.41425,214.09224,1347.27295,586.93933,284.68127,1324.76343,647.30225,200.36407,1333.01733
119,0.983,512.10938,214.85959,1347.15356,587.38782,285.686,1323.31677,646.50433,200.65907,1331.26453
120,0.992,511.59702,215.32588,1347.14038,587.55688,285.63306,1322.57776,646.52264,200.15344,1330.25732
121,1,511.82898,214.6008,1347.17944,587.29028,284.94531,1321.89978,645.35785,201.9465,1327.52759
122,1.008,512.65143,213.35106,1346.2926,587.91785,284.72388,1321.78235,646.61688,201.10037,1323.4884
123,1.017,513.54132,212.58098,1345.07751,588.19904,284.0267,1322.11707,646.21161,201.08682,1321.6958
124,1.025,514.40472,211.88306,1344.67322,588.76733,284.24908,1323.22192,647.90839,201.85712,1318.35645
125,1.033,515.20782,210.77298,1343.92651,588.97681,284.55811,1323.73901,648.85925,201.90738,1316.10217
126,1.042,514.83643,209.37587,1343.37781,588.23761,283.85776,1325.17175,649.03198,202.04935,1315.05054
127,1.05,516.89319,207.90796,1342.46057,588.31372,283.36823,1326.073,650.03961,203.37227,1313.76392
128,1.058,517.24506,207.26399,1341.83557,588.58356,282.51324,1326.24207,650.72614,204.12761,1313.3219
129,1.067,517.20959,207.29797,1341.18787,588.99774,282.7038,1326.83203,650.96277,203.77913,1314.0415
130,1.075,516.67371,208.28729,1340.20715,589.07446,282.28702,1327.87048,651.23431,204.66457,1315.2644
131,1.083,517.62518,209.07268,1338.6842,589.03864,282.56689,1328.46545,652.2915,202.94463,1317.55859
132,1.092,516.51514,209.40244,1339.66772,588.88702,282.55615,1328.5144,651.28082,201.34135,1318.63171
133,1.1,516.59741,209.48027,1341.08557,588.96613,282.33792,1327.97168,651.43066,199.71283,1321.70825
134,1.108,515.31586,209.68541,1343.052,589.07446,282.28702,1327.87048,650.75476,201.06897,1322.64941
135,1.117,515.98065,209.28584,1343.05554,588.69287,283.16336,1326.52954,650.54688,200.31685,1324.97119
136,1.125,515.09393,210.34615,1344.01038,588.19293,283.88965,1326.20532,651.84296,196.60667,1328.03052
137,1.133,514.3576,211.66983,1344.95264,588.19293,283.88965,1326.20532,650.34741,199.80478,1328.76355
138,1.142,514.70544,212.01547,1346.03455,588.57263,284.61075,1325.43604,650.62665,199.5984,1330.49927
139,1.15,514.66809,212.20784,1346.22437,588.76672,284.58713,1324.18811,650.49841,200.09505,1330.8927
140,1.158,514.96948,212.23283,1346.77124,588.62726,284.71738,1323.63977,649.44995,201.66405,1330.82019
141,1.167,514.68256,212.87674,1347.16077,588.22784,285.34814,1323.08069,649.23578,200.93726,1329.96387
142,1.175,514.80225,212.7749,1346.87842,588.29663,285.46249,1321.80994,649.46985,198.24213,1328.92419
143,1.183,515.31274,212.32162,1346.62268,588.44135,285.41229,1322.23315,649.21545,198.56155,1325.20264
144,1.192,514.35065,212.30408,1345.82654,588.39331,285.27115,1323.1499,647.84869,202.45547,1322.75757
145,1.2,514.51788,212.13327,1345.13354,588.96472,284.32278,1323.46106,648.72729,202.70094,1319.75378
146,1.208,515.31921,211.37109,1344.54797,588.8092,284.64838,1324.09131,648.81525,202.87708,1316.43347
147,1.217,515.73859,210.45065,1343.94177,588.83813,285.24606,1324.67896,649.24847,202.77638,1315.88452
148,1.225,515.0882,210.01878,1343.66797,588.59149,285.13315,1326.06714,649.29242,202.52269,1315.56226
149,1.233,517.39178,209.35739,1343.27393,588.85822,284.75803,1326.2981,649.29242,202.52269,1315.56226
150,1.242,516.086,209.88577,1342.01648,589.40399,285.08539,1327.17883,649.33984,203.22623,1315.92505
151,1.25,516.08173,209.96414,1341.57117,588.98419,284.68481,1328.11304,651.34216,202.02499,1317.19922
152,1.258,515.83978,209.90488,1341.38977,588.55536,284.96835,1329.34277,652.33154,197.66919,1320.33826
153,1.267,516.08173,209.96414,1341.57117,588.55536,284.96835,1329.34277,649.5871,202.98228,1322.16931
154,1.275,516.086,209.88577,1342.01648,588.28851,285.48236,1329.00317,649.67072,202.26244,1324.00891
155,1.283,514.75366,210.67455,1343.26868,588.44177,285.75192,1328.79553,650.82654,201.20567,1326.71582
156,1.292,515.81464,210.61864,1343.43274,588.21826,285.76733,1326.74695,651.5769,202.08789,1328.6095
157,1.3,515.25763,211.08873,1344.29932,588.34424,286.17068,1326.31714,650.65796,204.24094,1329.29578
158,1.308,515.99512,212.83693,1345.13293,588.30066,286.3811,1325.25745,651.84845,204.03534,1330.01367
159,1.317,517.00336,214.22112,1346.57739,588.37592,286.50143,1323.14685,652.10303,204.11549,1330.19519
160,1.325,516.78699,214.31735,1347.35059,588.57019,286.38419,1321.18518,651.07391,204.75851,1330.03064
161,1.333,516.68951,214.70248,1347.44995,588.62427,286.55719,1320.99829,652.18195,201.30183,1328.61292
162,1.342,516.78046,214.73897,1347.33923,588.62427,286.55719,1320.99829,650.45856,204.91275,1325.02283
163,1.35,517.16113,214.41139,1346.70483,588.62427,286.55719,1320.99829,650.50439,205.27904,1321.69189
164,1.358,516.91144,214.36082,1345.55725,588.62427,286.55719,1320.99829,650.52344,205.15231,1318.37817
165,1.367,516.72308,212.23502,1344.10815,588.62427,286.55719,1320.99829,650.12433,205.03415,1315.39734
166,1.375,516.59711,212.06476,1342.81836,588.64227,286.8508,1322.86389,649.89398,206.3121,1312.6969
167,1.383,517.7005,210.4213,1341.81018,588.20837,286.59158,1323.49878,650.41425,205.42848,1312.88416
168,1.392,516.43604,211.96361,1341.62256,588.62854,286.64188,1324.39233,650.40033,206.03349,1312.5376
169,1.4,516.03363,211.68623,1341.63782,588.29138,286.79117,1325.91248,649.82098,205.86118,1312.80652
170,1.408,516.09686,211.47517,1340.59924,588.15405,286.76666,1325.97986,649.90588,206.08302,1314.19226
171,1.417,514.93311,212.58936,1339.96912,587.43042,286.92654,1326.44019,648.73669,205.06819,1317.21484
172,1.425,512.95502,214.08992,1340.82898,587.08209,287.07669,1326.62732,648.54706,205.37537,1320.02478
173,1.433,512.87201,214.70418,1341.68469,586.30756,287.09146,1326.49292,647.10522,204.52264,1321.95972
174,1.442,512.11359,215.51926,1342.37512,586.25665,286.98331,1326.24438,645.98059,203.79274,1325.50232
175,1.45,512.31769,216.11256,1342.51111,585.07928,287.36261,1325.57739,645.9198,203.80801,1326.94714
176,1.458,511.98181,215.99983,1344.27649,584.98438,287.40723,1325.35657,646.26007,202.85387,1328.3894
177,1.467,511.6015,215.022,1344.89709,586.00159,287.19678,1325.54407,646.26007,202.85387,1328.3894
178,1.475,511.71417,215.46954,1344.69946,586.00159,287.19678,1325.54407,646.62366,202.7303,1328.21985
179,1.483,512.07904,214.84763,1346.21533,586.70898,286.71286,1325.64893,646.57617,202.93259,1328.19666
180,1.492,513.04028,214.41043,1346.38354,587.11359,286.66861,1325.99353,646.65387,202.17268,1327.37378
181,1.5,513.71613,213.82176,1347.23083,588.53003,285.3075,1326.15356,648.10754,198.4409,1325.40161
182,1.508,514.26306,213.369,1347.3457,588.53003,285.3075,1326.15356,648.59143,198.19167,1324.00183
183,1.517,514.33759,213.17747,1346.07312,588.53003,285.3075,1326.15356,648.70135,198.55086,1322.30005
184,1.525,515.05634,211.91602,1346.0802,588.6557,285.01782,1326.29749,648.48981,202.50133,1319.52417
185,1.533,515.42444,211.7652,1345.14563,588.6557,285.01782,1326.29749,649.28619,202.65755,1315.85999
186,1.542,515.11731,211.058,1344.22729,588.71722,284.84344,1326.21106,649.36945,202.75874,1314.31982
187,1.55,517.47601,208.17812,1343.31812,588.50116,285.61295,1326.11414,650.1156,204.22574,1312.90564
188,1.558,517.66943,207.97993,1340.53906,588.39648,285.84283,1325.98926,650.22546,204.35715,1312.38013
189,1.567,516.15588,208.97394,1341.54968,588.30066,286.3811,1325.25745,650.57019,204.41083,1312.56116
190,1.575,514.92993,211.84384,1340.40442,587.61792,286.90103,1323.66675,650.57019,204.41083,1312.56116
191,1.583,515.40918,211.56509,1340.55823,587.4566,287.00293,1323.08557,649.85309,204.91826,1313.00269
192,1.592,515.30359,211.09514,1340.3623,587.03571,287.3945,1322.41125,649.58472,205.30765,1313.94238
193,1.6,514.0498,212.62407,1339.32751,586.65033,287.64014,1321.82458,648.86993,206.12198,1315.28967
194,1.608,514.60846,214.60104,1339.06567,586.00018,287.88107,1321.16516,649.82013,205.71391,1318.91223
195,1.617,513.82831,215.44923,1340.11914,586.0387,287.87167,1320.53772,648.41052,206.23244,1320.82336
196,1.625,512.26086,215.0804,1340.54395,585.18036,287.85065,1320.20496,648.21173,205.70705,1321.65747
