Frame#,Time,R.Forearm.x,R.Forearm.y,R.Forearm.z,R.Ulna.x,R.Ulna.y,R.Ulna.z,R.Radius.x,R.Radius.y,R.Radius.z
1,0,-79.66118,-266.38815,968.39233,1.60151,-221.2914,927.42914,-24.00229,-137.4122,971.47675
2,0.008,-79.35773,-266.60898,968.51093,1.60151,-221.2914,927.42914,-24.41302,-136.35428,971.76434
3,0.017,-79.40868,-266.72034,968.63513,1.60151,-221.2914,927.42914,-24.68371,-136.69299,972.02759
4,0.025,-79.79566,-266.64682,968.62769,1.60151,-221.2914,927.42914,-24.41302,-136.35428,971.76434
5,0.033,-79.63743,-266.47879,968.78424,1.60151,-221.2914,927.42914,-24.31048,-137.6667,971.67285
6,0.042,-79.66118,-266.38815,968.39233,1.60151,-221.2914,927.42914,-24.41302,-136.35428,971.76434
7,0.05,-79.56636,-266.3071,968.52954,1.60151,-221.2914,927.42914,-24.68371,-136.69299,972.02759
8,0.058,-79.82535,-266.54227,968.68646,1.60151,-221.2914,927.42914,-24.68371,-136.69299,972.02759
9,0.067,-79.57413,-266.30112,969.01611,1.60151,-221.2914,927.42914,-24.68371,-136.69299,972.02759
10,0.075,-79.32687,-266.41068,969.33582,1.60151,-221.2914,927.42914,-24.68371,-136.69299,972.02759
11,0.083,-79.29719,-266.51523,969.27704,1.60151,-221.2914,927.42914,-24.68371,-136.69299,972.02759
12,0.092,-79.35654,-266.62405,969.21198,1.60151,-221.2914,927.42914,-24.68371,-136.69299,972.02759
13,0.1,-79.32687,-266.41068,969.33582,1.58567,-221.38965,927.64575,-24.68371,-136.69299,972.02759
14,0.108,-79.188,-266.37039,969.42108,2.04128,-221.34209,927.64703,-24.87508,-136.88028,972.62408
15,0.117,-78.75618,-266.48398,969.8551,2.04128,-221.34209,927.64703,-24.87508,-136.88028,972.62408
16,0.125,-78.83209,-266.29709,970.11322,2.22487,-221.89491,928.03094,-24.87508,-136.88028,972.62408
17,0.133,-78.83209,-266.29709,970.11322,2.39138,-221.6577,928.23102,-24.89035,-136.71051,972.91504
18,0.142,-78.93274,-266.24271,970.20679,2.39138,-221.6577,928.23102,-25.45885,-135.54239,971.98444
19,0.15,-78.83209,-266.29709,970.11322,2.42667,-221.44957,928.63062,-25.45885,-135.54239,971.98444
20,0.158,-78.93274,-266.24271,970.20679,2.54666,-221.4949,928.72247,-25.08829,-135.7989,972.40619
21,0.167,-78.82716,-266.07413,970.20441,2.71937,-221.54614,928.91351,-24.02658,-137.75146,972.66669
22,0.175,-78.69061,-265.92316,970.34399,2.99343,-221.49168,929.06958,-24.57661,-135.07867,972.62726
23,0.183,-78.4035,-265.74823,970.1925,3.30858,-221.50604,929.45135,-24.90579,-135.01668,972.8656
24,0.192,-78.69061,-265.92316,970.34399,3.30858,-221.50604,929.45135,-24.90579,-135.01668,972.8656
25,0.2,-77.62939,-265.89609,970.2074,3.72974,-221.62166,929.63757,-24.90579,-135.01668,972.8656
26,0.208,-77.94651,-265.75073,970.48462,3.30858,-221.50604,929.45135,-24.20625,-137.08717,973.10272
27,0.217,-77.94651,-265.75073,970.48462,3.72974,-221.62166,929.63757,-23.73692,-135.08871,974.75421
28,0.225,-77.30621,-265.85632,970.49731,3.72974,-221.62166,929.63757,-24.17844,-134.74304,975.34296
29,0.233,-76.66311,-265.81424,970.71436,3.89592,-221.60741,929.52313,-24.17844,-134.74304,975.34296
30,0.242,-76.49232,-265.68277,970.724,3.89592,-221.60741,929.52313,-23.37402,-135.29546,975.00623
31,0.25,-76.32158,-265.55118,970.7337,3.72974,-221.62166,929.63757,-22.66936,-134.64029,974.80371
32,0.258,-75.93106,-265.10281,970.73694,3.75548,-220.6698,929.64258,-23.47387,-134.13374,975.20123
33,0.267,-75.77393,-264.99783,970.77124,4.03616,-220.47023,929.59784,-23.47387,-134.13374,975.20123
34,0.275,-75.57437,-264.93665,970.74634,4.03616,-220.47023,929.59784,-22.66936,-134.64029,974.80371
35,0.283,-75.57437,-264.93665,970.74634,4.03616,-220.47023,929.59784,-22.66936,-134.64029,974.80371
36,0.292,-75.41079,-264.92065,970.41022,4.18673,-220.15993,929.57245,-22.72176,-134.2627,974.71527
37,0.3,-75.30008,-264.83057,970.32056,4.22354,-219.66739,929.54181,-22.72176,-134.2627,974.71527
38,0.308,-75.38641,-264.69699,969.92224,4.22354,-219.66739,929.54181,-22.16673,-134.19156,974.61462
39,0.317,-75.38641,-264.69699,969.92224,4.22354,-219.66739,929.54181,-22.72176,-134.2627,974.71527
40,0.325,-75.38641,-264.69699,969.92224,4.3041,-219.62003,929.40057,-22.16673,-134.19156,974.61462
41,0.333,-75.36231,-264.58795,969.85907,4.3041,-219.62003,929.40057,-21.71585,-134.21402,974.39838
42,0.342,-75.36231,-264.58795,969.85907,4.27555,-219.53049,929.22534,-21.71585,-134.21402,974.39838
43,0.35,-75.26169,-264.64227,969.7655,4.54613,-219.39906,928.99805,-22.12038,-134.18498,974.34894
44,0.358,-75.368,-264.76004,969.69788,4.54613,-219.39906,928.99805,-22.51337,-134.4283,973.66357
45,0.367,-75.65524,-264.60501,969.31439,4.50021,-219.3456,928.67218,-22.51337,-134.4283,973.66357
46,0.375,-75.59869,-264.70721,969.1947,4.40285,-219.20322,928.23096,-22.51337,-134.4283,973.66357
47,0.383,-75.13609,-264.20288,968.78461,4.35169,-219.42976,928.10748,-22.51337,-134.4283,973.66357
48,0.392,-75.29919,-264.26477,969.09888,4.50014,-219.13689,928.06812,-22.51337,-134.4283,973.66357
49,0.4,-75.13609,-264.20288,968.78461,3.98201,-219.29752,927.56628,-22.88789,-134.35416,973.10883
50,0.408,-75.09908,-264.70541,968.71637,3.76496,-219.25122,927.49908,-22.51337,-134.4283,973.66357
51,0.417,-75.11559,-264.81702,968.61725,3.58934,-219.18248,927.35693,-22.51337,-134.4283,973.66357
52,0.425,-75.15849,-264.71481,968.54236,3.58934,-219.18248,927.35693,-22.88789,-134.35416,973.10883
53,0.433,-75.24609,-264.72275,968.46692,3.67324,-219.30397,927.21979,-22.51337,-134.4283,973.66357
54,0.442,-75.24609,-264.72275,968.46692,3.58166,-219.54758,927.19513,-22.78067,-134.21109,972.58478
55,0.45,-75.13731,-264.68918,968.31531,3.58166,-219.54758,927.19513,-21.93497,-134.58136,973.55127
56,0.458,-75.15952,-264.81836,968.06549,3.40095,-219.64786,927.22589,-22.88789,-134.35416,973.10883
57,0.467,-75.29421,-264.77499,967.83655,3.22796,-219.48839,927.1413,-22.88789,-134.35416,973.10883
58,0.475,-75.29421,-264.77499,967.83655,3.22796,-219.48839,927.1413,-22.87004,-134.50404,973.58917
59,0.483,-75.34551,-265.07266,967.85858,3.22796,-219.48839,927.1413,-23.66486,-134.26387,972.479
60,0.492,-75.37167,-264.93085,967.80566,3.22796,-219.48839,927.1413,-23.77201,-134.40689,973.00317
61,0.5,-75.89641,-264.85391,967.87482,3.22796,-219.48839,927.1413,-24.2872,-134.25647,972.15173
62,0.508,-76.08474,-265.26453,967.84875,3.22796,-219.48839,927.1413,-23.34774,-134.50008,973.62854
63,0.517,-76.08474,-265.26453,967.84875,3.18723,-219.61391,927.03833,-24.2872,-134.25647,972.15173
64,0.525,-76.19225,-265.4902,968.1452,3.18723,-219.61391,927.03833,-24.2872,-134.25647,972.15173
65,0.533,-77.02357,-265.36426,968.22589,2.8745,-219.47763,927.29907,-23.61778,-134.53471,973.23413
66,0.542,-77.3177,-264.9108,968.26538,2.93948,-219.66367,927.20837,-23.61778,-134.53471,973.23413
67,0.55,-77.71061,-264.7634,968.31305,2.70275,-220.22504,927.20709,-23.61778,-134.53471,973.23413
68,0.558,-77.77393,-265.49716,968.34778,2.5562,-220.07494,927.35327,-23.61778,-134.53471,973.23413
69,0.567,-77.68798,-265.58932,968.64209,2.5562,-220.07494,927.35327,-23.61778,-134.53471,973.23413
70,0.575,-77.81594,-265.56998,968.71503,2.5562,-220.07494,927.35327,-24.61639,-134.1946,972.39026
71,0.583,-77.77926,-265.66559,968.78223,2.45145,-220.12416,927.51123,-24.90579,-135.01668,972.8656
72,0.592,-77.89558,-265.96286,968.8288,2.45145,-220.12416,927.51123,-25.22082,-136.79318,973.98236
73,0.6,-77.86941,-266.03967,969.02777,2.08537,-220.2357,927.27924,-25.22082,-136.79318,973.98236
74,0.608,-77.86941,-266.03967,969.02777,2.31846,-220.58846,927.61823,-25.22082,-136.79318,973.98236
75,0.617,-77.91462,-266.14368,969.13989,2.53558,-220.67853,928.00287,-25.22082,-136.79318,973.98236
76,0.625,-78.13298,-266.54181,969.17322,2.53558,-220.67853,928.00287,-25.36998,-135.6387,975.38104
77,0.633,-78.13298,-266.54181,969.17322,2.53558,-220.67853,928.00287,-24.56927,-136.2574,975.15588
78,0.642,-78.3521,-266.54507,969.34338,2.54681,-220.7298,928.16071,-24.56927,-136.2574,975.15588
79,0.65,-78.13298,-266.54181,969.17322,2.46839,-220.72318,928.30151,-24.56927,-136.2574,975.15588
80,0.658,-77.79475,-266.60706,969.18109,2.47962,-220.77438,928.45935,-25.48828,-135.87173,975.34216
81,0.667,-78.13298,-266.54181,969.17322,2.52564,-220.82774,928.7854,-25.48828,-135.87173,975.34216
82,0.675,-78.15316,-266.59476,969.39185,2.52564,-220.82774,928.7854,-24.56927,-136.2574,975.15588
83,0.683,-78.51405,-266.46176,969.72723,2.27672,-220.76974,928.78851,-24.56927,-136.2574,975.15588
84,0.692,-78.51171,-266.58286,969.60254,2.52564,-220.82774,928.7854,-25.29837,-137.13924,973.95782
85,0.7,-78.27271,-266.59073,969.4621,2.52564,-220.82774,928.7854,-24.56927,-136.2574,975.15588
86,0.708,-78.13298,-266.54181,969.17322,2.52564,-220.82774,928.7854,-24.77536,-138.22258,973.72589
87,0.717,-78.13298,-266.54181,969.17322,2.52564,-220.82774,928.7854,-26.0553,-136.86551,973.66901
88,0.725,-78.27271,-266.59073,969.4621,2.52564,-220.82774,928.7854,-26.0553,-136.86551,973.66901
89,0.733,-78.13298,-266.54181,969.17322,2.47962,-220.77438,928.45935,-26.0553,-136.86551,973.66901
90,0.742,-77.6302,-266.6348,969.17719,2.51885,-220.69167,928.26404,-25.29837,-137.13924,973.95782
91,0.75,-77.96843,-266.56955,969.16931,2.51885,-220.69167,928.26404,-25.09399,-137.18759,973.40356
92,0.758,-77.52674,-266.46082,969.11542,2.51885,-220.69167,928.26404,-25.29837,-137.13924,973.95782
93,0.767,-77.61086,-266.63028,969.06989,2.59406,-220.58899,928.52911,-25.22082,-136.79318,973.98236
94,0.775,-77.42299,-266.48566,969.05682,2.64006,-220.64236,928.85516,-25.22082,-136.79318,973.98236
95,0.783,-77.34386,-266.59302,969.02313,2.64006,-220.64236,928.85516,-25.09399,-137.18759,973.40356
96,0.792,-77.3485,-266.4696,968.91821,2.74846,-220.47209,928.95093,-25.22082,-136.79318,973.98236
97,0.8,-77.61021,-266.16977,968.9339,2.8552,-220.48921,929.04474,-24.20625,-137.08717,973.10272
98,0.808,-77.42299,-266.48566,969.05682,2.8552,-220.48921,929.04474,-24.90579,-135.01668,972.8656
99,0.817,-77.29774,-266.25974,969.07996,3.05598,-220.57863,929.13245,-24.90579,-135.01668,972.8656
100,0.825,-77.21021,-266.25183,969.15533,3.39617,-220.67104,929.15533,-24.90579,-135.01668,972.8656
101,0.833,-77.13571,-266.23578,969.01678,3.39617,-220.67104,929.15533,-24.20625,-137.08717,973.10272
102,0.842,-77.02132,-266.11176,968.95532,3.81725,-220.78662,929.34149,-24.20625,-137.08717,973.10272
103,0.85,-76.67303,-266.22678,968.93768,3.90206,-220.72803,929.17395,-24.90579,-135.01668,972.8656
104,0.858,-76.5219,-266.08243,969.11993,3.81725,-220.78662,929.34149,-23.37402,-135.29546,975.00623
105,0.867,-76.04869,-265.77188,969.06616,3.8501,-220.86478,929.49023,-23.37402,-135.29546,975.00623
106,0.875,-75.87868,-265.79559,969.0553,3.8501,-220.86478,929.49023,-24.17844,-134.74304,975.34296
107,0.883,-75.59225,-265.83609,968.94855,3.9306,-220.81747,929.34912,-24.17844,-134.74304,975.34296
108,0.892,-75.59225,-265.83609,968.94855,4.16281,-221.69917,929.3847,-23.37402,-135.29546,975.00623
109,0.9,-75.20736,-266.0596,969.1416,4.16281,-221.69917,929.3847,-23.37402,-135.29546,975.00623
110,0.908,-75.20736,-266.0596,969.1416,4.08311,-221.63197,929.47992,-23.37402,-135.29546,975.00623
111,0.917,-75.59225,-265.83609,968.94855,3.89592,-221.60741,929.52313,-23.37402,-135.29546,975.00623
112,0.925,-75.5255,-265.94144,968.91504,4.08311,-221.63197,929.47992,-23.37402,-135.29546,975.00623
113,0.933,-75.20736,-266.0596,969.1416,4.51337,-221.72626,929.26312,-23.37402,-135.29546,975.00623
114,0.942,-75.18707,-266.00653,968.92291,4.51337,-221.72626,929.26312,-23.03284,-135.34532,974.78754
115,0.95,-75.20736,-266.0596,969.1416,4.26034,-221.69458,929.32532,-23.03284,-135.34532,974.78754
116,0.958,-75.5255,-265.94144,968.91504,4.16281,-221.69917,929.3847,-23.03284,-135.34532,974.78754
117,0.967,-75.07188,-266.24323,969.06921,4.51337,-221.72626,929.26312,-23.87372,-134.77597,975.15015
118,0.975,-75.47876,-266.56567,968.97321,4.54132,-221.76436,929.15985,-23.87372,-134.77597,975.15015
119,0.983,-75.48058,-266.33142,968.39246,4.55727,-221.66612,928.94324,-23.03284,-135.34532,974.78754
120,0.992,-75.48058,-266.33142,968.39246,4.28529,-221.59192,928.92493,-23.03284,-135.34532,974.78754
121,1,-75.6955,-266.48639,968.33807,4.17687,-221.76213,928.82916,-23.03284,-135.34532,974.78754
122,1.008,-75.51393,-266.26828,968.284,4.16727,-221.91266,928.72461,-24.24421,-135.58157,972.62158
123,1.017,-75.84384,-266.50708,968.1499,4.59329,-221.64352,927.99664,-24.06217,-136.58908,972.62878
124,1.025,-75.84384,-266.50708,968.1499,4.14921,-221.49579,928.14319,-23.86077,-136.03232,972.25079
125,1.033,-75.84384,-266.50708,968.1499,4.3446,-221.58495,927.99963,-23.86077,-136.03232,972.25079
126,1.042,-75.84384,-266.50708,968.1499,4.3446,-221.58495,927.99963,-23.86077,-136.03232,972.25079
127,1.05,-75.84384,-266.50708,968.1499,4.23782,-221.56784,927.90582,-23.86077,-136.03232,972.25079
128,1.058,-75.84384,-266.50708,968.1499,4.36419,-221.78778,927.85541,-23.06016,-137.79041,971.75366
129,1.067,-76.01992,-266.56924,968.17004,3.89987,-221.68213,927.6864,-24.18102,-137.57936,972.00244
130,1.075,-76.08015,-266.655,968.08203,3.72505,-221.69952,927.36621,-24.27234,-136.57043,972.62567
131,1.083,-76.08015,-266.655,968.08203,3.72505,-221.69952,927.36621,-23.55315,-137.10603,971.88556
132,1.092,-76.24743,-266.81644,967.71063,3.76414,-221.89053,927.30646,-24.01437,-136.80579,972.11987
133,1.1,-76.32117,-266.73865,967.58612,3.54606,-221.62451,927.29828,-24.28252,-136.73398,972.36017
134,1.108,-76.61863,-266.7016,967.33215,3.39824,-221.52533,927.16272,-24.4731,-136.40739,972.1817
135,1.117,-76.76247,-266.69336,967.35846,3.43735,-221.71638,927.10297,-24.7987,-136.26468,971.96509
136,1.125,-77.13499,-266.71603,967.37408,3.34581,-221.95995,927.07837,-23.91589,-136.89919,971.63342
137,1.133,-77.27119,-266.8287,967.3313,3.1905,-222.24834,927.03619,-23.60868,-136.98763,971.3634
138,1.142,-77.27119,-266.8287,967.3313,2.78941,-222.09073,927.16547,-23.60868,-136.98763,971.3634
139,1.15,-77.41667,-267.01813,967.38922,2.78941,-222.09073,927.16547,-24.5305,-136.3365,971.72473
140,1.158,-77.8741,-266.94846,967.45154,3.1905,-222.24834,927.03619,-23.91589,-136.89919,971.63342
141,1.167,-77.72866,-266.75906,967.39362,3.1905,-222.24834,927.03619,-24.5305,-136.3365,971.72473
142,1.175,-77.89876,-267.14157,967.43042,3.1905,-222.24834,927.03619,-24.18663,-137.23779,971.89667
143,1.183,-77.89876,-267.14157,967.43042,2.78943,-222.32036,927.06787,-23.87942,-137.32628,971.62677
144,1.192,-77.89876,-267.14157,967.43042,2.78943,-222.32036,927.06787,-23.87942,-137.32628,971.62677
145,1.2,-77.89876,-267.14157,967.43042,2.78943,-222.32036,927.06787,-24.88061,-136.89116,972.35791
146,1.208,-77.89876,-267.14157,967.43042,2.78943,-222.32036,927.06787,-24.18663,-137.23779,971.89667
147,1.217,-77.89876,-267.14157,967.43042,2.68335,-222.16287,927.04645,-24.04891,-137.66177,971.60608
148,1.225,-78.15715,-267.05774,967.29297,2.51738,-222.17671,927.16083,-24.3561,-137.5733,971.87598
149,1.233,-78.15715,-267.05774,967.29297,2.51734,-221.94705,927.25848,-24.3561,-137.5733,971.87598
150,1.242,-77.89876,-267.14157,967.43042,2.51734,-221.94705,927.25848,-24.3561,-137.5733,971.87598
151,1.25,-77.89876,-267.14157,967.43042,2.68333,-221.93323,927.14404,-23.91553,-138.67502,971.80688
152,1.258,-77.89876,-267.14157,967.43042,2.51734,-221.94705,927.25848,-24.18663,-137.23779,971.89667
153,1.267,-78.34283,-267.03705,967.34698,2.51734,-221.94705,927.25848,-24.88061,-136.89116,972.35791
154,1.275,-78.34283,-267.03705,967.34698,2.51734,-221.94705,927.25848,-25.06803,-137.19725,972.32214
155,1.283,-77.89876,-267.14157,967.43042,2.37102,-221.93213,926.59735,-24.18663,-137.23779,971.89667
156,1.292,-77.89876,-267.14157,967.43042,2.78943,-222.32036,927.06787,-24.18663,-137.23779,971.89667
157,1.3,-77.89876,-267.14157,967.43042,2.78943,-222.32036,927.06787,-24.18663,-137.23779,971.89667
158,1.308,-77.89876,-267.14157,967.43042,2.78941,-222.09073,927.16547,-23.82392,-137.44456,972.14874
159,1.317,-77.89876,-267.14157,967.43042,2.78943,-222.32036,927.06787,-23.82392,-137.44456,972.14874
160,1.325,-77.28267,-267.29294,967.54987,2.78943,-222.32036,927.06787,-23.51672,-137.53305,971.87885
161,1.333,-77.04541,-267.13327,967.76752,2.78943,-222.32036,927.06787,-23.93791,-138.18329,972.16705
162,1.342,-76.98273,-266.95956,968.03967,2.78941,-222.09073,927.16547,-23.51672,-137.53305,971.87885
163,1.35,-76.34611,-267.00333,968.05005,3.1905,-222.24834,927.03619,-23.24596,-137.19446,971.6156
164,1.358,-76.22559,-266.84442,968.13995,3.15139,-222.05737,927.09595,-23.24596,-137.19446,971.6156
165,1.367,-76.01992,-266.56924,968.17004,3.1905,-222.24834,927.03619,-23.24596,-137.19446,971.6156
166,1.375,-76.01992,-266.56924,968.17004,3.24294,-221.81381,927.12061,-23.24596,-137.19446,971.6156
167,1.383,-75.96834,-266.5264,968.30109,3.39824,-221.52533,927.16272,-22.79229,-138.32364,971.58734
168,1.392,-75.66228,-266.28897,968.09583,3.39824,-221.52533,927.16272,-24.01437,-136.80579,972.11987
169,1.4,-75.66228,-266.28897,968.09583,3.39824,-221.52533,927.16272,-24.01437,-136.80579,972.11987
170,1.408,-75.33953,-266.17703,968.24353,3.67935,-221.18655,927.23541,-24.27234,-136.57043,972.62567
171,1.417,-75.15184,-266.02167,968.41742,3.74949,-220.6338,927.19849,-23.24744,-136.76028,972.34607
172,1.425,-74.98163,-265.89627,968.38123,4.12743,-220.27063,927.15863,-23.24744,-136.76028,972.34607
173,1.433,-74.98163,-265.89627,968.38123,4.48805,-220.41925,927.47235,-21.4562,-137.44931,971.94061
174,1.442,-74.70487,-265.99759,968.74908,4.97536,-220.42609,927.2406,-21.96559,-136.16885,972.05731
175,1.45,-74.51523,-265.72293,968.79779,4.97536,-220.42609,927.2406,-21.52899,-136.03333,972.11279
176,1.458,-74.38046,-265.70004,968.72937,4.97536,-220.42609,927.2406,-22.0476,-135.71468,972.87024
177,1.467,-74.01939,-265.63458,968.35901,5.35239,-220.37103,927.52649,-22.22281,-135.85844,973.38721
178,1.475,-74.01939,-265.63458,968.35901,5.35239,-220.37103,927.52649,-21.24919,-136.14934,972.38678
179,1.483,-73.11733,-265.80975,968.37988,5.35239,-220.37103,927.52649,-21.24919,-136.14934,972.38678
180,1.492,-73.04564,-265.65466,968.41327,5.57296,-219.75737,927.4787,-21.16319,-136.28809,973.36896
181,1.5,-73.39654,-265.48227,968.52197,5.94841,-219.03535,927.68341,-21.16319,-136.28809,973.36896
182,1.508,-72.79312,-265.36328,968.40167,5.94841,-219.03535,927.68341,-21.73976,-135.08612,973.25787
183,1.517,-72.77866,-265.18622,968.40802,6.19646,-218.94398,927.83228,-21.96443,-134.84244,973.34247
184,1.525,-72.63234,-265.18204,968.56189,6.55384,-218.6481,927.70551,-21.96443,-134.84244,973.34247
185,1.533,-72.63234,-265.18204,968.56189,6.55384,-218.6481,927.70551,-21.4797,-134.86868,973.27393
186,1.542,-72.63234,-265.18204,968.56189,6.66845,-218.46263,927.77521,-21.18333,-135.42877,972.84955
187,1.55,-72.63234,-265.18204,968.56189,6.7681,-218.21967,927.67694,-21.4797,-134.86868,973.27393
188,1.558,-72.63234,-265.18204,968.56189,6.7681,-218.21967,927.67694,-21.4797,-134.86868,973.27393
189,1.567,-72.63234,-265.18204,968.56189,6.71615,-218.35643,927.99371,-21.22276,-134.77919,973.3739
190,1.575,-72.63234,-265.18204,968.56189,6.71615,-218.35643,927.99371,-21.20115,-134.69435,973.56354
191,1.583,-72.52485,-265.26416,968.57886,6.76205,-218.4099,928.3194,-21.20115,-134.69435,973.56354
192,1.592,-72.35394,-265.16452,968.86774,6.76205,-218.4099,928.3194,-20.90081,-135.2664,973.08691
193,1.6,-72.17139,-265.01639,968.65002,7.09195,-218.2713,928.56085,-20.90081,-135.2664,973.08691
194,1.608,-72.17139,-265.01639,968.65002,6.91059,-218.05919,928.49072,-21.20115,-134.69435,973.56354
195,1.617,-72.18526,-265.17343,968.65167,6.91059,-218.05919,928.49072,-21.20115,-134.69435,973.56354
196,1.625,-72.15105,-265.26248,969.16388,7.30425,-218.20178,928.77356,-20.90081,-135.2664,973.08691
197,1.633,-71.6249,-265.23639,969.35583,7.70465,-218.35782,928.64435,-21.20115,-134.69435,973.56354
198,1.642,-71.80327,-265.08374,969.17548,7.30425,-218.20178,928.77356,-21.20115,-134.69435,973.56354
199,1.65,-71.90436,-265.09467,969.2901,7.4392,-217.96204,928.83221,-21.20115,-134.69435,973.56354
200,1.658,-71.85307,-265.05255,969.65094,7.4392,-217.96204,928.83221,-21.20115,-134.69435,973.56354
