Frame#,Time,L.Forearm.x,L.Forearm.y,L.Forearm.z,L.Ulna.x,L.Ulna.y,L.Ulna.z,L.Radius.x,L.Radius.y,L.Radius.z
1,0,247.55296,356.8688,1266.29492,301.25345,349.90726,1210.92517,316.85864,301.87305,1275.17017
2,0.008,247.55296,356.8688,1266.29492,301.38577,349.87451,1210.61694,316.76514,301.86002,1275.38367
3,0.017,247.55296,356.8688,1266.29492,301.32874,349.81134,1210.68896,316.76514,301.86002,1275.38367
4,0.025,247.55296,356.8688,1266.29492,302.83112,350.35269,1210.35669,316.88696,300.9953,1275.04504
5,0.033,247.55296,356.8688,1266.29492,301.41925,349.19751,1210.5929,316.7948,300.85895,1275.08142
6,0.042,247.74283,356.10089,1266.3241,301.6235,349.10474,1210.68188,316.7948,300.85895,1275.08142
7,0.05,247.86142,356.18066,1266.23352,301.41925,349.19751,1210.5929,317.22144,300.8176,1274.81323
8,0.058,247.76604,356.21375,1266.20325,301.6235,349.10474,1210.68188,317.22131,300.63635,1274.83716
9,0.067,247.8727,356.29773,1266.10889,301.41925,349.19751,1210.5929,316.7948,300.85895,1275.08142
10,0.075,247.8727,356.29773,1266.10889,301.41925,349.19751,1210.5929,317.22131,300.63635,1274.83716
11,0.083,247.8727,356.29773,1266.10889,301.67133,348.75745,1210.49976,316.59015,300.41669,1274.25317
12,0.092,247.8727,356.29773,1266.10889,301.67133,348.75745,1210.49976,316.62878,300.26123,1274.64063
13,0.1,247.78358,356.396,1266.00952,301.67133,348.75745,1210.49976,316.63385,299.98553,1274.27783
14,0.108,247.8727,356.29773,1266.10889,301.46701,348.85022,1210.41064,317.87308,300.90646,1275.08276
15,0.117,248.1015,356.22223,1265.81055,301.71933,348.41028,1210.31763,317.37228,299.84039,1274.55505
16,0.125,247.78358,356.396,1266.00952,301.71933,348.41028,1210.31763,316.79172,300.03241,1274.46533
17,0.133,248.01236,356.32047,1265.71118,301.71933,348.41028,1210.31763,316.81198,299.68045,1274.0575
18,0.142,248.01236,356.32047,1265.71118,301.4075,348.36938,1209.93311,317.48291,299.65845,1274.51331
19,0.15,248.1015,356.22223,1265.81055,301.4075,348.36938,1209.93311,317.0433,299.63339,1274.36572
20,0.158,248.01236,356.32047,1265.71118,301.4075,348.36938,1209.93311,317.59213,299.99667,1274.35352
21,0.167,248.01236,356.32047,1265.71118,301.4075,348.36938,1209.93311,317.39929,299.61557,1273.94446
22,0.175,248.01236,356.32047,1265.71118,302.54855,349.38681,1209.46521,317.60907,299.70633,1273.93384
23,0.183,248.01236,356.32047,1265.71118,301.4075,348.36938,1209.93311,317.60907,299.70633,1273.93384
24,0.192,248.01236,356.32047,1265.71118,301.67212,347.69641,1210.07935,317.8389,299.64066,1274.09204
25,0.2,248.01236,356.32047,1265.71118,301.67212,347.69641,1210.07935,317.8389,299.64066,1274.09204
26,0.208,248.02049,356.61395,1265.32373,302.31293,348.19293,1209.94519,317.39929,299.61557,1273.94446
27,0.217,248.02049,356.61395,1265.32373,302.89746,347.87408,1209.31592,317.8389,299.64066,1274.09204
28,0.225,248.43994,355.77182,1265.05432,302.44595,347.38791,1209.14758,317.16943,299.68121,1273.78625
29,0.233,248.43994,355.77182,1265.05432,302.63269,348.54715,1209.16992,317.60907,299.70633,1273.93384
30,0.242,248.43994,355.77182,1265.05432,302.89746,347.87408,1209.31592,317.45404,299.99261,1273.60327
31,0.25,248.43994,355.77182,1265.05432,302.89746,347.87408,1209.31592,317.59283,299.83026,1273.81287
32,0.258,248.43994,355.77182,1265.05432,302.44595,347.38791,1209.14758,316.99811,300.09134,1273.33459
33,0.267,248.22343,355.78796,1264.91101,302.24152,347.48077,1209.05835,317.22485,299.98953,1273.19275
34,0.275,248.23395,355.89746,1264.7948,303.3707,349.42221,1208.81213,317.43784,300.11646,1273.48218
35,0.283,248.23395,355.89746,1264.7948,302.18109,348.061,1209.00146,317.89462,299.85092,1273.21033
36,0.292,248.33965,355.92267,1264.54626,303.16641,349.51508,1208.72302,316.99811,300.09134,1273.33459
37,0.3,248.33965,355.92267,1264.54626,302.95035,349.84088,1208.39502,317.59552,299.96362,1272.81079
38,0.308,248.33965,355.92267,1264.54626,302.95035,349.84088,1208.39502,317.15576,299.93857,1272.66309
39,0.317,248.33965,355.92267,1264.54626,303.03568,349.45163,1207.89795,316.93112,299.72665,1272.51843
40,0.325,248.33965,355.92267,1264.54626,303.03568,349.45163,1207.89795,316.72031,299.42157,1271.80249
41,0.333,248.33965,355.92267,1264.54626,302.36691,349.57916,1208.13208,317.15302,299.56464,1272.08594
42,0.342,248.39195,355.37003,1263.83984,302.36691,349.57916,1208.13208,316.69968,299.77457,1272.21033
43,0.35,248.3748,356.14304,1264.30164,302.36691,349.57916,1208.13208,316.69968,299.77457,1272.21033
44,0.358,248.3748,356.14304,1264.30164,302.08475,349.58499,1208.11047,316.69968,299.77457,1272.21033
45,0.367,248.45169,355.56662,1263.5625,302.08475,349.58499,1208.11047,316.69968,299.77457,1272.21033
46,0.375,248.3748,356.14304,1264.30164,302.08475,349.58499,1208.11047,316.69968,299.77457,1272.21033
47,0.383,248.3748,356.14304,1264.30164,302.08475,349.58499,1208.11047,316.69968,299.77457,1272.21033
48,0.392,248.35855,355.80728,1263.87671,302.08475,349.58499,1208.11047,316.69968,299.77457,1272.21033
49,0.4,248.45169,355.56662,1263.5625,302.4671,349.56647,1207.60059,316.69968,299.77457,1272.21033
50,0.408,248.3748,356.14304,1264.30164,302.08475,349.58499,1208.11047,316.69968,299.77457,1272.21033
51,0.417,248.18407,356.91028,1264.27283,302.4671,349.56647,1207.60059,316.78116,301.16336,1272.25757
52,0.425,248.07494,356.95804,1263.93604,302.4671,349.56647,1207.60059,316.51038,300.55072,1272.17017
53,0.433,247.74992,356.35971,1263.02393,302.1604,349.57602,1207.40637,316.51038,300.55072,1272.17017
54,0.442,247.66856,357.74194,1263.76392,302.1604,349.57602,1207.40637,316.37595,300.64313,1271.82153
55,0.45,247.66856,357.74194,1263.76392,302.0065,349.69427,1207.28662,316.37595,300.64313,1271.82153
56,0.458,247.12004,357.90927,1263.84351,302.0065,349.69427,1207.28662,316.37595,300.64313,1271.82153
57,0.467,246.72765,357.35135,1263.17529,302.0065,349.69427,1207.28662,316.48874,300.86069,1271.52002
58,0.475,246.466,357.353,1263.18164,302.0065,349.69427,1207.28662,315.8042,301.1124,1271.49561
59,0.483,246.466,357.353,1263.18164,302.0065,349.69427,1207.28662,315.49979,301.5668,1271.52905
60,0.492,246.90346,357.2424,1262.99719,302.0065,349.69427,1207.28662,315.49979,301.5668,1271.52905
61,0.5,246.19693,356.95511,1263.03442,301.69333,349.46259,1206.92212,315.30988,301.60437,1271.29187
62,0.508,245.99741,357.00568,1262.97375,301.69333,349.46259,1206.92212,315.18735,301.71423,1271.20667
63,0.517,245.99741,357.00568,1262.97375,301.69333,349.46259,1206.92212,315.18735,301.71423,1271.20667
64,0.525,246.26654,357.40356,1263.12109,301.69333,349.46259,1206.92212,315.18735,301.71423,1271.20667
65,0.533,245.99741,357.00568,1262.97375,301.69333,349.46259,1206.92212,315.18735,301.71423,1271.20667
66,0.542,245.99741,357.00568,1262.97375,301.69333,349.46259,1206.92212,315.19611,301.5777,1271.05872
67,0.55,245.99741,357.00568,1262.97375,301.69333,349.46259,1206.92212,315.18735,301.71423,1271.20667
68,0.558,245.99741,357.00568,1262.97375,301.69333,349.46259,1206.92212,315.19611,301.5777,1271.05872
69,0.567,245.99741,357.00568,1262.97375,301.71417,349.70322,1206.63708,314.97653,302.03094,1271.03284
70,0.575,245.99741,357.00568,1262.97375,301.71417,349.70322,1206.63708,315.19611,301.5777,1271.05872
71,0.583,246.57825,356.95068,1262.84497,301.71417,349.70322,1206.63708,315.0202,301.59964,1271.05737
72,0.592,245.99741,357.00568,1262.97375,301.71222,349.83783,1206.4906,314.97653,302.03094,1271.03284
73,0.6,246.57825,356.95068,1262.84497,301.71222,349.83783,1206.4906,315.02527,301.32315,1270.69421
74,0.608,245.84402,356.97934,1262.48987,301.71222,349.83783,1206.4906,315.19611,301.5777,1271.05872
75,0.617,245.84402,356.97934,1262.48987,301.71222,349.83783,1206.4906,314.91519,301.38205,1270.39172
76,0.625,245.69194,356.95337,1262.0061,301.71024,349.9726,1206.34412,314.77396,301.44659,1270.33813
77,0.633,245.69194,356.95337,1262.0061,301.71024,349.9726,1206.34412,314.9101,301.65851,1270.75488
78,0.642,244.98024,356.9585,1262.08643,301.71024,349.9726,1206.34412,314.72128,301.57098,1270.60632
79,0.65,246.35394,357.0329,1262.03918,301.71024,349.9726,1206.34412,314.77396,301.44659,1270.33813
80,0.658,245.69194,356.95337,1262.0061,301.40359,349.98224,1206.1499,314.68271,301.72583,1270.21851
81,0.667,245.69194,356.95337,1262.0061,301.40359,349.98224,1206.1499,314.72632,301.29459,1270.24304
82,0.675,246.35394,357.0329,1262.03918,301.40359,349.98224,1206.1499,314.67764,302.00229,1270.58191
83,0.683,245.69194,356.95337,1262.0061,301.69464,349.82513,1205.7738,314.72632,301.29459,1270.24304
84,0.692,245.66109,356.67285,1261.70093,301.69464,349.82513,1205.7738,314.68991,301.68039,1269.82214
85,0.7,245.68228,356.53687,1261.15991,301.77167,350.02896,1205.57629,314.73352,301.24911,1269.84668
86,0.708,246.34668,356.75031,1261.36218,301.10059,349.35214,1205.63391,314.73352,301.24911,1269.84668
87,0.717,245.68228,356.53687,1261.15991,300.96155,349.88129,1205.10791,314.60883,301.46078,1269.70105
88,0.725,246.69339,357.22849,1261.32056,300.96155,349.88129,1205.10791,314.98511,301.31952,1269.52209
89,0.733,246.5965,357.45602,1261.00806,300.96155,349.88129,1205.10791,315.12582,301.30707,1269.51733
90,0.742,246.60843,357.3992,1260.56653,301.04175,350.14417,1204.72534,315.12582,301.30707,1269.51733
91,0.75,245.92131,357.36224,1260.58997,301.04175,350.14417,1204.72534,315.0687,301.39966,1269.42114
92,0.758,246.57695,357.49155,1260.47046,301.08975,349.79697,1204.54297,315.0687,301.39966,1269.42114
93,0.767,246.62418,357.56314,1260.39221,301.24112,349.85825,1204.46753,315.09872,301.46301,1269.34619
94,0.775,246.11378,357.25464,1260.05432,301.24112,349.85825,1204.46753,315.09872,301.46301,1269.34619
95,0.783,246.62418,357.56314,1260.39221,301.24112,349.85825,1204.46753,315.09872,301.46301,1269.34619
96,0.792,246.62418,357.56314,1260.39221,301.24112,349.85825,1204.46753,315.15176,301.52695,1269.2677
97,0.8,246.59125,357.64069,1260.31201,301.24112,349.85825,1204.46753,315.15176,301.52695,1269.2677
98,0.808,246.59125,357.64069,1260.31201,301.24112,349.85825,1204.46753,315.3374,301.58353,1269.04517
99,0.817,246.59125,357.64069,1260.31201,301.28937,349.5112,1204.28528,315.3374,301.58353,1269.04517
100,0.825,246.59125,357.64069,1260.31201,301.58029,349.35455,1203.9093,315.16196,301.71274,1269.05286
101,0.833,246.59125,357.64069,1260.31201,301.58029,349.35455,1203.9093,315.3476,301.76932,1268.83032
102,0.842,246.7196,357.20505,1259.51355,301.27335,349.36472,1203.71497,315.44128,301.78204,1268.61646
103,0.85,246.78453,357.62906,1259.84448,301.36499,349.68011,1203.58105,315.44128,301.78204,1268.61646
104,0.858,246.78453,357.62906,1259.84448,301.36499,349.68011,1203.58105,315.44128,301.78204,1268.61646
105,0.867,246.71021,357.89676,1259.2627,301.05804,349.69019,1203.38684,315.44128,301.78204,1268.61646
106,0.875,246.86179,357.93478,1259.21472,301.05804,349.69019,1203.38684,315.60101,301.74057,1268.64185
107,0.883,246.71021,357.89676,1259.2627,301.05804,349.69019,1203.38684,315.41223,301.87549,1268.51587
108,0.892,246.86179,357.93478,1259.21472,300.90417,349.78622,1203.2915,315.41223,301.87549,1268.51587
109,0.9,246.86179,357.93478,1259.21472,300.90417,349.78622,1203.2915,315.41223,301.87549,1268.51587
110,0.908,246.86179,357.93478,1259.21472,300.90417,349.78622,1203.2915,315.41223,301.87549,1268.51587
111,0.917,246.86179,357.93478,1259.21472,300.92627,350.22687,1203.20508,315.41223,301.87549,1268.51587
112,0.925,246.58592,357.35339,1258.65674,300.90417,349.78622,1203.2915,315.58826,301.84045,1268.53186
113,0.933,246.10405,357.17203,1258.47681,300.92627,350.22687,1203.20508,315.58826,301.84045,1268.53186
114,0.942,246.60217,357.6907,1259.08191,300.92627,350.22687,1203.20508,315.41223,301.87549,1268.51587
115,0.95,246.60217,357.6907,1259.08191,300.90417,349.78622,1203.2915,315.58826,301.84045,1268.53186
116,0.958,246.46107,357.76224,1259.01367,300.67133,349.98672,1203.02698,315.41223,301.87549,1268.51587
117,0.967,246.2827,357.75449,1258.79126,300.67133,349.98672,1203.02698,315.41223,301.87549,1268.51587
118,0.975,246.2827,357.75449,1258.79126,300.92627,350.22687,1203.20508,315.41223,301.87549,1268.51587
119,0.983,246.2827,357.75449,1258.79126,300.92627,350.22687,1203.20508,315.41223,301.87549,1268.51587
120,0.992,246.2827,357.75449,1258.79126,300.67133,349.98672,1203.02698,315.41223,301.87549,1268.51587
121,1,245.65598,357.18307,1258.13269,300.67133,349.98672,1203.02698,315.41223,301.87549,1268.51587
122,1.008,246.2664,357.41718,1258.36584,300.67133,349.98672,1203.02698,315.41223,301.87549,1268.51587
123,1.017,246.38853,357.77951,1258.54236,300.67133,349.98672,1203.02698,315.41223,301.87549,1268.51587
124,1.025,245.45853,357.24472,1258.0575,300.67133,349.98672,1203.02698,315.41223,301.87549,1268.51587
125,1.033,245.45853,357.24472,1258.0575,300.67133,349.98672,1203.02698,315.41223,301.87549,1268.51587
126,1.042,246.1416,357.82614,1258.72302,300.92627,350.22687,1203.20508,315.41223,301.87549,1268.51587
127,1.05,246.1416,357.82614,1258.72302,300.92627,350.22687,1203.20508,315.41223,301.87549,1268.51587
128,1.058,245.45853,357.24472,1258.0575,300.67133,349.98672,1203.02698,315.41223,301.87549,1268.51587
129,1.067,246.1416,357.82614,1258.72302,300.67133,349.98672,1203.02698,315.41223,301.87549,1268.51587
130,1.075,245.45853,357.24472,1258.0575,300.67133,349.98672,1203.02698,315.41223,301.87549,1268.51587
131,1.083,246.1416,357.82614,1258.72302,300.92627,350.22687,1203.20508,315.41223,301.87549,1268.51587
132,1.092,246.1416,357.82614,1258.72302,300.67133,349.98672,1203.02698,315.41223,301.87549,1268.51587
133,1.1,245.45853,357.24472,1258.0575,300.67133,349.98672,1203.02698,315.41223,301.87549,1268.51587
134,1.108,245.28085,357.19547,1258.12854,300.67133,349.98672,1203.02698,315.41223,301.87549,1268.51587
135,1.117,245.28085,357.19547,1258.12854,300.67133,349.98672,1203.02698,315.41223,301.87549,1268.51587
136,1.125,246.01825,357.77386,1258.78455,300.67133,349.98672,1203.02698,315.41223,301.87549,1268.51587
137,1.133,246.01825,357.77386,1258.78455,300.67133,349.98672,1203.02698,315.41223,301.87549,1268.51587
138,1.142,245.43663,357.13522,1258.20325,300.67133,349.98672,1203.02698,315.41223,301.87549,1268.51587
139,1.15,246.01825,357.77386,1258.78455,300.92627,350.22687,1203.20508,315.41223,301.87549,1268.51587
140,1.158,245.90793,357.64041,1258.81995,300.92627,350.22687,1203.20508,315.71695,302.39539,1268.6239
141,1.167,245.88147,357.24316,1258.3407,300.64923,349.54608,1203.1134,315.71695,302.39539,1268.6239
142,1.175,245.90793,357.64041,1258.81995,300.67133,349.98672,1203.02698,315.71695,302.39539,1268.6239
143,1.183,245.90793,357.64041,1258.81995,300.64923,349.54608,1203.1134,315.71695,302.39539,1268.6239
144,1.192,244.97102,356.82895,1258.07141,300.67133,349.98672,1203.02698,315.71695,302.39539,1268.6239
145,1.2,245.90793,357.64041,1258.81995,300.67133,349.98672,1203.02698,315.71695,302.39539,1268.6239
146,1.208,245.24762,356.93365,1258.3739,300.64923,349.54608,1203.1134,315.71695,302.39539,1268.6239
147,1.217,246.09433,357.67673,1259.06238,300.64923,349.54608,1203.1134,315.71695,302.39539,1268.6239
148,1.225,245.90793,357.64041,1258.81995,300.64923,349.54608,1203.1134,315.71695,302.39539,1268.6239
149,1.233,245.90793,357.64041,1258.81995,300.64923,349.54608,1203.1134,315.71695,302.39539,1268.6239
150,1.242,245.90793,357.64041,1258.81995,300.64923,349.54608,1203.1134,315.71695,302.39539,1268.6239
151,1.25,246.01825,357.77386,1258.78455,300.64923,349.54608,1203.1134,315.41223,301.87549,1268.51587
152,1.258,245.28085,357.19547,1258.12854,300.64923,349.54608,1203.1134,315.41223,301.87549,1268.51587
153,1.267,245.28085,357.19547,1258.12854,300.64923,349.54608,1203.1134,315.41223,301.87549,1268.51587
154,1.275,245.28085,357.19547,1258.12854,300.67133,349.98672,1203.02698,315.41223,301.87549,1268.51587
155,1.283,245.98575,357.09842,1257.93457,300.70444,349.30923,1203.00244,315.27087,301.95065,1268.45068
156,1.292,245.43526,357.18369,1257.82813,300.73752,349.52402,1202.90771,315.41223,301.87549,1268.51587
157,1.3,246.09151,357.12357,1257.68555,300.73752,349.52402,1202.90771,315.41223,301.87549,1268.51587
158,1.308,245.43526,357.18369,1257.82813,300.83722,349.27612,1202.69409,315.27087,301.95065,1268.45068
159,1.317,246.09151,357.12357,1257.68555,300.83722,349.27612,1202.69409,315.27087,301.95065,1268.45068
160,1.325,245.43526,357.18369,1257.82813,300.83722,349.27612,1202.69409,315.27087,301.95065,1268.45068
161,1.333,245.43526,357.18369,1257.82813,300.83722,349.27612,1202.69409,315.27087,301.95065,1268.45068
162,1.342,246.09151,357.12357,1257.68555,300.83722,349.27612,1202.69409,315.09906,301.96396,1268.24707
163,1.35,245.16733,356.81848,1257.71973,300.71143,349.30139,1202.28137,314.96481,301.99445,1267.78552
164,1.358,245.43526,357.18369,1257.82813,300.71143,349.30139,1202.28137,314.75546,302.33224,1267.4718
165,1.367,246.12808,356.03207,1257.5957,300.5903,349.06595,1202.50354,314.75546,302.33224,1267.4718
166,1.375,245.34904,355.90836,1257.64697,300.71143,349.30139,1202.28137,314.75546,302.33224,1267.4718
167,1.383,246.12808,356.03207,1257.5957,300.71143,349.30139,1202.28137,314.7056,302.03879,1267.18872
168,1.392,246.12808,356.03207,1257.5957,300.71143,349.30139,1202.28137,314.89423,301.26349,1267.22827
169,1.4,246.12808,356.03207,1257.5957,300.5903,349.06595,1202.50354,314.89423,301.26349,1267.22827
170,1.408,246.17474,355.51813,1257.72754,300.71143,349.30139,1202.28137,314.89423,301.26349,1267.22827
171,1.417,246.17474,355.51813,1257.72754,300.5903,349.06595,1202.50354,314.80197,300.70984,1267.3418
172,1.425,246.17474,355.51813,1257.72754,300.5903,349.06595,1202.50354,314.64288,300.82254,1267.26196
173,1.433,246.319,354.67261,1257.74292,300.5903,349.06595,1202.50354,314.80197,300.70984,1267.3418
174,1.442,246.37074,354.77325,1257.77173,300.92581,349.11465,1202.71973,315.15103,300.55972,1267.65906
175,1.45,246.37074,354.77325,1257.77173,300.92581,349.11465,1202.71973,315.01257,300.3186,1267.17053
176,1.458,246.37074,354.77325,1257.77173,300.92581,349.11465,1202.71973,315.15103,300.55972,1267.65906
177,1.467,246.37074,354.77325,1257.77173,300.92581,349.11465,1202.71973,314.96109,300.59723,1267.42163
178,1.475,246.73552,354.46014,1257.65381,301.1691,347.94788,1202.6261,315.15103,300.55972,1267.65906
179,1.483,246.87677,354.3884,1257.72217,301.1691,347.94788,1202.6261,315.06479,299.80597,1267.29297
180,1.492,246.87677,354.3884,1257.72217,301.1691,347.94788,1202.6261,315.15103,300.55972,1267.65906
181,1.5,246.87677,354.3884,1257.72217,301.1691,347.94788,1202.6261,315.17172,300.20596,1267.25049
182,1.508,246.73552,354.46014,1257.65381,301.1691,347.94788,1202.6261,315.17172,300.20596,1267.25049
183,1.517,246.84508,354.29327,1257.66455,301.1691,347.94788,1202.6261,315.02405,300.19751,1267.20129
184,1.525,246.84508,354.29327,1257.66455,301.1691,347.94788,1202.6261,315.02405,300.19751,1267.20129
185,1.533,246.87677,354.3884,1257.72217,301.1691,347.94788,1202.6261,315.23868,300.57013,1267.41895
186,1.542,247.01985,354.366,1257.59167,301.1691,347.94788,1202.6261,315.78333,300.52304,1266.94067
187,1.55,247.02966,354.43875,1257.66138,301.1691,347.94788,1202.6261,315.69934,300.59399,1267.0011
188,1.558,247.13382,354.30228,1257.66248,301.1691,347.94788,1202.6261,315.82285,300.284,1266.5271
189,1.567,247.01985,354.366,1257.59167,301.35641,348.44702,1202.0835,316.05841,299.94257,1266.85962
190,1.575,247.01985,354.366,1257.59167,301.582,347.64023,1202.16272,315.78098,300.99258,1267.34375
191,1.583,247.01985,354.366,1257.59167,301.70306,347.87573,1201.94067,315.68619,300.46609,1267.14209
192,1.592,246.99254,354.1243,1257.47144,301.70306,347.87573,1201.94067,316.76352,299.63037,1266.58813
193,1.6,247.0161,354.22968,1257.55566,301.88898,347.98822,1201.82434,315.79865,299.95514,1266.57434
194,1.608,246.99254,354.1243,1257.47144,301.88898,347.98822,1201.82434,315.72794,299.75772,1266.32532
195,1.617,246.99254,354.1243,1257.47144,301.88898,347.98822,1201.82434,315.47662,299.31711,1266.35901
196,1.625,247.0161,354.22968,1257.55566,302.22293,347.88699,1201.59631,316.76352,299.63037,1266.58813
