Frame#,Time,R.Forearm.x,R.Forearm.y,R.Forearm.z,R.Ulna.x,R.Ulna.y,R.Ulna.z,R.Radius.x,R.Radius.y,R.Radius.z
1,0,245.00113,-289.96127,1272.98853,305.05527,-287.33212,1215.06091,326.22067,-241.30309,1274.31006
2,0.008,245.00113,-289.96127,1272.98853,305.05527,-287.33212,1215.06091,326.04962,-241.31351,1274.28296
3,0.017,245.00113,-289.96127,1272.98853,305.05527,-287.33212,1215.06091,325.82321,-241.57994,1274.35962
4,0.025,244.75124,-289.94669,1272.43066,304.78195,-287.74661,1215.06519,326.04962,-241.31351,1274.28296
5,0.033,244.59431,-290.57327,1272.90271,304.78195,-287.74661,1215.06519,325.82321,-241.57994,1274.35962
6,0.042,244.66789,-290.49182,1272.86475,304.78195,-287.74661,1215.06519,325.48624,-241.62151,1274.45959
7,0.05,244.75705,-290.5575,1272.77283,304.78195,-287.74661,1215.06519,325.40399,-241.70714,1274.20935
8,0.058,244.25467,-290.46216,1272.82263,304.42126,-288.13345,1215.25256,325.62897,-241.63675,1274.15747
9,0.067,244.25467,-290.46216,1272.82263,304.42126,-288.13345,1215.25256,325.44003,-241.60909,1274.29944
10,0.075,244.22469,-290.31491,1272.90125,304.42126,-288.13345,1215.25256,325.38443,-241.83029,1274.24036
11,0.083,244.25467,-290.46216,1272.82263,304.42126,-288.13345,1215.25256,325.20972,-241.99583,1274.1084
12,0.092,244.25467,-290.46216,1272.82263,304.42126,-288.13345,1215.25256,325.34842,-241.92834,1274.15039
13,0.1,244.25467,-290.46216,1272.82263,304.42126,-288.13345,1215.25256,325.34842,-241.92834,1274.15039
14,0.108,244.25467,-290.46216,1272.82263,304.16809,-288.47122,1215.33484,323.93433,-240.90694,1274.84363
15,0.117,244.25467,-290.46216,1272.82263,304.16809,-288.47122,1215.33484,325.05237,-242.06686,1274.06628
16,0.125,244.53412,-290.71973,1272.99097,304.16809,-288.47122,1215.33484,325.05237,-242.06686,1274.06628
17,0.133,244.39497,-290.8194,1272.9104,304.16809,-288.47122,1215.33484,325.05237,-242.06686,1274.06628
18,0.142,243.90277,-290.60794,1272.73694,304.16809,-288.47122,1215.33484,324.97849,-242.23193,1274.19531
19,0.15,243.75992,-290.655,1272.52795,304.16809,-288.47122,1215.33484,324.97849,-242.23193,1274.19531
20,0.158,243.90277,-290.60794,1272.73694,304.16809,-288.47122,1215.33484,324.97849,-242.23193,1274.19531
21,0.167,243.90277,-290.60794,1272.73694,303.90747,-288.81625,1214.84363,324.97849,-242.23193,1274.19531
22,0.175,243.64455,-290.42084,1272.59485,304.18527,-288.728,1215.01758,324.97849,-242.23193,1274.19531
23,0.183,243.64455,-290.42084,1272.59485,304.18527,-288.728,1215.01758,324.97849,-242.23193,1274.19531
24,0.192,243.90277,-290.60794,1272.73694,303.90747,-288.81625,1214.84363,324.97849,-242.23193,1274.19531
25,0.2,243.46323,-290.56476,1272.72791,303.90747,-288.81625,1214.84363,324.97849,-242.23193,1274.19531
26,0.208,243.56851,-290.49136,1272.44446,303.90747,-288.81625,1214.84363,324.83701,-242.62341,1274.54626
27,0.217,243.64455,-290.42084,1272.59485,303.90747,-288.81625,1214.84363,324.71301,-242.60519,1274.58606
28,0.225,243.38719,-290.63528,1272.57751,303.90747,-288.81625,1214.84363,324.86588,-242.43954,1274.30029
29,0.233,243.46323,-290.56476,1272.72791,303.89035,-288.55954,1215.16101,324.74188,-242.42131,1274.34009
30,0.242,243.38719,-290.63528,1272.57751,303.90747,-288.81625,1214.84363,324.71301,-242.60519,1274.58606
31,0.25,243.38719,-290.63528,1272.57751,303.89035,-288.55954,1215.16101,324.74188,-242.42131,1274.34009
32,0.258,243.38719,-290.63528,1272.57751,303.89035,-288.55954,1215.16101,324.52686,-242.87222,1274.60144
33,0.267,243.46323,-290.56476,1272.72791,303.89035,-288.55954,1215.16101,324.37851,-242.9001,1274.60022
34,0.275,243.46323,-290.56476,1272.72791,303.89035,-288.55954,1215.16101,324.52686,-242.87222,1274.60144
35,0.283,243.46323,-290.56476,1272.72791,303.89035,-288.55954,1215.16101,324.55887,-242.37761,1274.41541
36,0.292,243.46323,-290.56476,1272.72791,303.89035,-288.55954,1215.16101,324.55887,-242.37761,1274.41541
37,0.3,243.29488,-290.58408,1272.6543,303.89035,-288.55954,1215.16101,324.3439,-242.82854,1274.67676
38,0.308,243.46323,-290.56476,1272.72791,303.89035,-288.55954,1215.16101,324.3891,-242.63428,1274.73828
39,0.317,243.38719,-290.63528,1272.57751,303.89035,-288.55954,1215.16101,324.23178,-242.71742,1274.50769
40,0.325,243.21997,-290.57736,1272.43152,304.16809,-288.47122,1215.33484,324.20291,-242.90134,1274.75366
41,0.333,243.01674,-290.42831,1272.68945,304.11646,-288.74826,1215.62085,324.20291,-242.90134,1274.75366
42,0.342,243.18095,-290.42328,1272.65955,303.89035,-288.55954,1215.16101,324.29581,-243.02893,1274.8606
43,0.35,243.28389,-290.56705,1272.76404,303.89035,-288.55954,1215.16101,324.48196,-242.76192,1274.84521
44,0.358,243.20668,-290.51855,1272.83447,303.89035,-288.55954,1215.16101,324.51083,-242.57803,1274.59924
45,0.367,242.96342,-290.53116,1272.53809,303.89035,-288.55954,1215.16101,324.2218,-242.95505,1274.94629
46,0.375,243.20668,-290.51855,1272.83447,303.89035,-288.55954,1215.16101,324.38788,-243.14024,1275.04846
47,0.383,243.01674,-290.42831,1272.68945,303.83875,-288.83658,1215.44702,324.41492,-243.02742,1275.18909
48,0.392,243.20668,-290.51855,1272.83447,304.11646,-288.74826,1215.62085,324.40323,-242.48779,1274.9082
49,0.4,243.20668,-290.51855,1272.83447,304.16809,-288.47122,1215.33484,324.35245,-242.56248,1274.91956
50,0.408,243.18095,-290.42328,1272.65955,304.16809,-288.47122,1215.33484,324.39886,-242.59026,1275.02881
51,0.417,243.20668,-290.51855,1272.83447,303.89035,-288.55954,1215.16101,322.67676,-240.94609,1275.67859
52,0.425,243.17665,-290.37128,1272.91321,304.16809,-288.47122,1215.33484,324.50629,-242.04903,1275.07642
53,0.433,243.17665,-290.37128,1272.91321,303.87878,-288.33838,1215.45532,324.50629,-242.04903,1275.07642
54,0.442,243.17665,-290.37128,1272.91321,304.16809,-288.47122,1215.33484,324.50629,-242.04903,1275.07642
55,0.45,243.17665,-290.37128,1272.91321,303.87878,-288.33838,1215.45532,324.50629,-242.04903,1275.07642
56,0.458,243.17665,-290.37128,1272.91321,304.16809,-288.47122,1215.33484,324.50629,-242.04903,1275.07642
57,0.467,243.17665,-290.37128,1272.91321,304.16809,-288.47122,1215.33484,324.50629,-242.04903,1275.07642
58,0.475,243.34088,-290.36627,1272.8833,304.16809,-288.47122,1215.33484,324.785,-242.02678,1275.07373
59,0.483,243.34088,-290.36627,1272.8833,304.16809,-288.47122,1215.33484,324.32187,-241.57552,1275.19897
60,0.492,243.17665,-290.37128,1272.91321,304.16809,-288.47122,1215.33484,324.27713,-241.89018,1275.13501
61,0.5,243.17665,-290.37128,1272.91321,304.16809,-288.47122,1215.33484,324.0484,-241.59569,1275.18835
62,0.508,243.34088,-290.36627,1272.8833,303.87878,-288.33838,1215.45532,324.44211,-241.87572,1275.12
63,0.517,243.30188,-290.28644,1272.98022,304.13196,-288.00061,1215.37305,324.30176,-241.2952,1275.1499
64,0.525,243.34088,-290.36627,1272.8833,304.42126,-288.13345,1215.25256,324.69131,-241.77716,1275.21204
65,0.533,243.30188,-290.28644,1272.98022,304.13196,-288.00061,1215.37305,324.83221,-241.70441,1275.13525
66,0.542,243.48152,-290.27795,1272.95081,304.13196,-288.00061,1215.37305,324.77017,-241.40073,1275.16809
67,0.55,243.65382,-290.14069,1273.06592,304.42126,-288.13345,1215.25256,324.83847,-241.37213,1274.99402
68,0.558,243.63441,-290.05371,1272.91309,304.42126,-288.13345,1215.25256,324.77017,-241.40073,1275.16809
69,0.567,243.83514,-289.99673,1272.93298,304.42126,-288.13345,1215.25256,324.83847,-241.37213,1274.99402
70,0.575,244.0354,-289.79657,1273.01953,304.65054,-287.70456,1215.33936,324.60928,-241.21324,1275.05261
71,0.583,244.0354,-289.79657,1273.01953,304.65054,-287.70456,1215.33936,324.83847,-241.37213,1274.99402
72,0.592,244.23549,-289.56567,1272.97363,305.05527,-287.33212,1215.06091,324.99222,-241.32115,1275.01709
73,0.6,244.23549,-289.56567,1272.97363,305.05527,-287.33212,1215.06091,325.15836,-241.50653,1275.11926
74,0.608,244.35483,-289.60526,1272.90393,305.05527,-287.33212,1215.06091,324.99222,-241.32115,1275.01709
75,0.617,244.35483,-289.60526,1272.90393,305.05527,-287.33212,1215.06091,324.89929,-241.19341,1274.91003
76,0.625,244.52184,-289.51068,1272.9729,305.05527,-287.33212,1215.06091,324.97321,-241.02829,1274.78101
77,0.633,244.45145,-289.4248,1272.7821,305.05527,-287.33212,1215.06091,324.97321,-241.02829,1274.78101
78,0.642,244.61847,-289.3302,1272.85107,305.05527,-287.33212,1215.06091,325.19965,-240.76186,1274.70435
79,0.65,244.61847,-289.3302,1272.85107,305.41565,-287.28171,1215.20032,325.314,-240.55077,1274.75781
80,0.658,244.61847,-289.3302,1272.85107,305.41565,-287.28171,1215.20032,325.314,-240.55077,1274.75781
81,0.667,244.66779,-289.21655,1272.96655,305.41565,-287.28171,1215.20032,325.314,-240.55077,1274.75781
82,0.675,244.61847,-289.3302,1272.85107,305.05527,-287.33212,1215.06091,325.42838,-240.33978,1274.81128
83,0.683,244.61847,-289.3302,1272.85107,305.41565,-287.28171,1215.20032,325.42838,-240.33978,1274.81128
84,0.692,244.66779,-289.21655,1272.96655,305.41565,-287.28171,1215.20032,325.41739,-240.05688,1274.71838
85,0.7,244.66779,-289.21655,1272.96655,305.41565,-287.28171,1215.20032,325.56271,-240.05174,1274.69775
86,0.708,244.61847,-289.3302,1272.85107,305.41565,-287.28171,1215.20032,325.58838,-240.04646,1274.74548
87,0.717,244.61847,-289.3302,1272.85107,305.41565,-287.28171,1215.20032,325.73785,-239.99678,1274.72107
88,0.725,244.66779,-289.21655,1272.96655,305.41565,-287.28171,1215.20032,325.56271,-240.05174,1274.69775
89,0.733,244.72583,-288.49677,1272.81812,305.41565,-287.28171,1215.20032,325.73785,-239.99678,1274.72107
90,0.742,244.77518,-288.38306,1272.93359,305.66879,-286.94388,1215.11804,325.7337,-240.04132,1274.72485
91,0.75,244.77518,-288.38306,1272.93359,305.66879,-286.94388,1215.11804,325.99301,-239.57021,1274.85779
92,0.758,244.77518,-288.38306,1272.93359,305.66879,-286.94388,1215.11804,325.73785,-239.99678,1274.72107
93,0.767,244.77518,-288.38306,1272.93359,305.66879,-286.94388,1215.11804,326.02966,-239.41187,1274.77905
94,0.775,244.77518,-288.38306,1272.93359,305.66879,-286.94388,1215.11804,325.99301,-239.57021,1274.85779
95,0.783,244.77518,-288.38306,1272.93359,305.66879,-286.94388,1215.11804,325.99301,-239.57021,1274.85779
96,0.792,244.77518,-288.38306,1272.93359,305.66879,-286.94388,1215.11804,326.17047,-239.31906,1274.84558
97,0.8,244.93837,-288.23044,1273.02454,305.66879,-286.94388,1215.11804,326.17047,-239.31906,1274.84558
98,0.808,244.93837,-288.23044,1273.02454,304.84341,-285.75189,1214.80029,326.02966,-239.41187,1274.77905
99,0.817,244.93837,-288.23044,1273.02454,305.66879,-286.94388,1215.11804,326.27008,-239.36685,1274.78113
100,0.825,244.93837,-288.23044,1273.02454,304.84341,-285.75189,1214.80029,326.17047,-239.31906,1274.84558
101,0.833,244.96646,-288.09985,1273.15527,305.66879,-286.94388,1215.11804,326.27008,-239.36685,1274.78113
102,0.842,244.96646,-288.09985,1273.15527,304.84341,-285.75189,1214.80029,326.17047,-239.31906,1274.84558
103,0.85,244.77518,-288.38306,1272.93359,304.84341,-285.75189,1214.80029,325.8587,-239.42227,1274.75195
104,0.858,244.93837,-288.23044,1273.02454,304.84341,-285.75189,1214.80029,325.77451,-239.83844,1274.64233
105,0.867,244.93837,-288.23044,1273.02454,304.84341,-285.75189,1214.80029,326.13382,-239.47742,1274.92432
106,0.875,244.93837,-288.23044,1273.02454,304.84341,-285.75189,1214.80029,325.94547,-239.82802,1274.66931
107,0.883,245.13074,-288.18045,1273.03857,304.84341,-285.75189,1214.80029,326.13382,-239.47742,1274.92432
108,0.892,244.77518,-288.38306,1272.93359,305.66879,-286.94388,1215.11804,325.77451,-239.83844,1274.64233
109,0.9,244.77518,-288.38306,1272.93359,304.84341,-285.75189,1214.80029,326.17047,-239.31906,1274.84558
110,0.908,244.72583,-288.49677,1272.81812,304.84341,-285.75189,1214.80029,326.18585,-239.78305,1274.67139
111,0.917,244.77518,-288.38306,1272.93359,304.84341,-285.75189,1214.80029,325.87091,-239.89703,1274.56775
112,0.925,244.77518,-288.38306,1272.93359,304.84341,-285.75189,1214.80029,325.77451,-239.83844,1274.64233
113,0.933,244.58914,-288.30365,1272.82446,304.84341,-285.75189,1214.80029,325.96655,-239.87244,1274.38623
114,0.942,244.8886,-288.44006,1272.59814,304.84341,-285.75189,1214.80029,325.98575,-239.85863,1274.39648
115,0.95,244.8886,-288.44006,1272.59814,304.38013,-285.67178,1214.56531,325.69504,-239.8688,1274.4375
116,0.958,244.8886,-288.44006,1272.59814,304.84341,-285.75189,1214.80029,325.69504,-239.8688,1274.4375
117,0.967,244.8886,-288.44006,1272.59814,304.84341,-285.75189,1214.80029,325.77203,-239.92711,1274.3667
118,0.975,244.98528,-288.25958,1272.4762,304.84341,-285.75189,1214.80029,325.70377,-239.82417,1274.14758
119,0.983,244.98528,-288.25958,1272.4762,304.38013,-285.67178,1214.56531,325.69504,-239.8688,1274.4375
120,0.992,244.75191,-288.24695,1272.60449,304.84341,-285.75189,1214.80029,325.77203,-239.92711,1274.3667
121,1,244.8886,-288.44006,1272.59814,304.84341,-285.75189,1214.80029,325.65756,-239.81169,1273.98743
122,1.008,244.75191,-288.24695,1272.60449,304.38013,-285.67178,1214.56531,325.68088,-239.74391,1274.02051
123,1.017,244.75191,-288.24695,1272.60449,304.38013,-285.67178,1214.56531,325.60388,-239.68562,1274.09131
124,1.025,244.75191,-288.24695,1272.60449,304.38013,-285.67178,1214.56531,325.52029,-239.94246,1273.80676
125,1.033,244.50214,-288.05035,1272.29883,304.38013,-285.67178,1214.56531,325.55765,-239.67311,1273.93115
126,1.042,244.50214,-288.05035,1272.29883,304.38013,-285.67178,1214.56531,325.55765,-239.92485,1274.20251
127,1.05,244.50214,-288.05035,1272.29883,304.38013,-285.67178,1214.56531,325.52029,-239.94246,1273.80676
128,1.058,244.51408,-288.14194,1272.1947,304.38013,-285.67178,1214.56531,325.4433,-239.88417,1273.87769
129,1.067,244.41742,-288.32248,1272.31665,304.38013,-285.67178,1214.56531,325.4433,-239.88417,1273.87769
130,1.075,244.41742,-288.32248,1272.31665,304.38013,-285.67178,1214.56531,325.21848,-239.95453,1273.92969
131,1.083,244.40547,-288.2309,1272.42078,304.38013,-285.67178,1214.56531,325.52029,-239.94246,1273.80676
132,1.092,244.51408,-288.14194,1272.1947,304.38013,-285.67178,1214.56531,325.29794,-239.88931,1273.89832
133,1.1,244.51408,-288.14194,1272.1947,304.38013,-285.67178,1214.56531,325.21848,-239.95453,1273.92969
134,1.108,244.51408,-288.14194,1272.1947,304.38013,-285.67178,1214.56531,325.4433,-239.88417,1273.87769
135,1.117,244.31479,-288.73203,1272.21179,304.23419,-286.16272,1214.69482,325.21848,-239.95453,1273.92969
136,1.125,244.41742,-288.32248,1272.31665,304.23419,-286.16272,1214.69482,325.22006,-240.32104,1273.703
137,1.133,244.31479,-288.73203,1272.21179,304.23419,-286.16272,1214.69482,325.02094,-240.22554,1273.83191
138,1.142,244.44086,-288.9455,1272.17517,304.23419,-286.16272,1214.69482,325.00845,-240.19031,1274.05774
139,1.15,244.41144,-288.55154,1272.08997,304.23419,-286.16272,1214.69482,325.02094,-240.22554,1273.83191
140,1.158,244.41144,-288.55154,1272.08997,304.23419,-286.16272,1214.69482,325.22006,-240.32104,1273.703
141,1.167,244.53752,-288.76505,1272.05322,304.23419,-286.16272,1214.69482,324.91052,-240.28416,1273.98267
142,1.175,244.44086,-288.9455,1272.17517,304.23419,-286.16272,1214.69482,325.23105,-240.18919,1273.74915
143,1.183,244.27054,-288.81436,1271.83203,304.23419,-286.16272,1214.69482,325.22006,-240.32104,1273.703
144,1.192,244.48384,-288.84332,1271.64294,304.5144,-285.97369,1214.15881,325.22006,-240.32104,1273.703
145,1.2,244.48384,-288.84332,1271.64294,304.33981,-285.46796,1213.67236,325.18402,-240.41916,1273.61292
146,1.208,244.48384,-288.84332,1271.64294,304.33981,-285.46796,1213.67236,325.4982,-240.39441,1273.50012
147,1.217,244.43051,-288.9462,1271.49158,304.33981,-285.46796,1213.67236,324.08258,-239.59372,1273.50244
148,1.225,244.43051,-288.9462,1271.49158,304.33981,-285.46796,1213.67236,324.40982,-240.06859,1273.32019
149,1.233,244.43051,-288.9462,1271.49158,304.33981,-285.46796,1213.67236,323.79324,-239.55051,1272.62561
150,1.242,244.29131,-289.04593,1271.41101,304.43317,-285.31332,1213.09448,323.62405,-239.42799,1272.46436
151,1.25,244.29131,-289.04593,1271.41101,304.43317,-285.31332,1213.09448,323.95123,-239.41144,1272.39795
152,1.258,244.39479,-289.10947,1271.31824,304.43317,-285.31332,1213.09448,323.95123,-239.41144,1272.39795
153,1.267,244.39479,-289.10947,1271.31824,304.0015,-285.12842,1212.51624,323.77768,-239.44832,1272.34888
154,1.275,244.59416,-289.23926,1271.1897,304.09283,-285.33734,1212.32031,323.42715,-239.4637,1272.41553
155,1.283,244.59416,-289.23926,1271.1897,303.78873,-285.76935,1211.59204,323.77768,-239.44832,1272.34888
156,1.292,244.59416,-289.23926,1271.1897,303.78873,-285.76935,1211.59204,323.77768,-239.44832,1272.34888
157,1.3,244.55817,-289.47284,1271.02966,304.2753,-286.21375,1211.3877,324.16357,-239.43185,1272.04163
158,1.308,244.42276,-289.27094,1270.79358,304.2753,-286.21375,1211.3877,325.38519,-240.36519,1271.91357
159,1.317,244.42276,-289.27094,1270.79358,304.2753,-286.21375,1211.3877,325.25125,-240.35709,1271.94507
160,1.325,244.42276,-289.27094,1270.79358,304.25748,-286.37335,1211.17517,325.44019,-240.41551,1271.75684
161,1.333,244.42276,-289.27094,1270.79358,304.25748,-286.37335,1211.17517,325.35587,-240.53105,1271.6582
162,1.342,244.70648,-289.3851,1270.66858,304.25748,-286.37335,1211.17517,325.29193,-240.76251,1271.51794
163,1.35,244.72522,-289.29364,1270.46118,304.25748,-286.37335,1211.17517,325.34183,-241.00528,1271.27966
164,1.358,244.72522,-289.29364,1270.46118,304.25748,-286.37335,1211.17517,325.32904,-240.9256,1271.15381
165,1.367,244.75546,-289.37067,1270.36938,304.25748,-286.37335,1211.17517,325.44992,-240.96158,1271.09717
166,1.375,244.47556,-289.14697,1270.26941,304.25748,-286.37335,1211.17517,325.44992,-240.96158,1271.09717
167,1.383,244.99269,-289.77203,1269.6311,304.25748,-286.37335,1211.17517,325.44992,-240.96158,1271.09717
168,1.392,244.99269,-289.77203,1269.6311,304.1535,-286.99725,1211.0929,325.49609,-240.8685,1270.9657
169,1.4,244.99269,-289.77203,1269.6311,304.1535,-286.99725,1211.0929,325.59518,-241.38884,1271.07007
170,1.408,245.06151,-289.8284,1269.46045,304.1535,-286.99725,1211.0929,325.64932,-241.30515,1270.95227
171,1.417,245.06151,-289.8284,1269.46045,304.67435,-287.36414,1211.01086,325.59518,-241.38884,1271.07007
172,1.425,245.06151,-289.8284,1269.46045,304.45471,-287.57681,1210.74805,325.59518,-241.38884,1271.07007
173,1.433,244.93936,-289.87488,1269.47974,304.82556,-287.72025,1210.63025,325.43939,-241.41534,1270.87354
174,1.442,244.94621,-289.86792,1269.66992,304.45471,-287.57681,1210.74805,325.43939,-241.41534,1270.87354
175,1.45,245.11838,-289.85236,1269.64294,304.82556,-287.72025,1210.63025,325.64932,-241.30515,1270.95227
176,1.458,245.11838,-289.85236,1269.64294,304.45471,-287.57681,1210.74805,325.59518,-241.38884,1271.07007
177,1.467,245.05679,-289.94888,1269.91443,304.45471,-287.57681,1210.74805,325.64932,-241.30515,1270.95227
178,1.475,244.94974,-289.99472,1269.70093,304.82556,-287.72025,1210.63025,325.57959,-241.40175,1270.85034
179,1.483,244.89474,-290.14758,1270.42432,304.82556,-287.72025,1210.63025,325.57266,-241.70088,1270.97827
180,1.492,244.72473,-290.14371,1270.43127,304.45471,-287.57681,1210.74805,325.57266,-241.70088,1270.97827
181,1.5,244.65588,-290.08728,1270.60193,304.82556,-287.72025,1210.63025,325.57266,-241.70088,1270.97827
182,1.508,244.65588,-290.08728,1270.60193,304.45471,-287.57681,1210.74805,325.41794,-241.60228,1271.08496
183,1.517,244.65588,-290.08728,1270.60193,304.45471,-287.57681,1210.74805,325.34305,-241.55573,1271.0813
184,1.525,244.65588,-290.08728,1270.60193,304.45471,-287.57681,1210.74805,325.07538,-241.62755,1271.12488
185,1.533,244.65588,-290.08728,1270.60193,304.45471,-287.57681,1210.74805,325.34305,-241.55573,1271.0813
186,1.542,244.65588,-290.08728,1270.60193,304.45471,-287.57681,1210.74805,325.34305,-241.55573,1271.0813
187,1.55,244.65588,-290.08728,1270.60193,304.1535,-286.99725,1211.0929,325.34305,-241.55573,1271.0813
188,1.558,244.65588,-290.08728,1270.60193,304.1535,-286.99725,1211.0929,325.34305,-241.55573,1271.0813
189,1.567,244.65588,-290.08728,1270.60193,304.1535,-286.99725,1211.0929,325.34305,-241.55573,1271.0813
190,1.575,244.65588,-290.08728,1270.60193,304.1535,-286.99725,1211.0929,325.14993,-241.45944,1271.20825
