Frame#,Time,R.Forearm.x,R.Forearm.y,R.Forearm.z,R.Ulna.x,R.Ulna.y,R.Ulna.z,R.Radius.x,R.Radius.y,R.Radius.z
1,0,98.32394,-133.15433,683.63226,137.91843,-153.11894,605.70532,191.60162,-85.10236,646.07733
2,0.008,96.99892,-132.09534,684.73596,137.30014,-153.48485,606.57556,187.63885,-81.66182,644.77789
3,0.017,96.26019,-131.06664,685.20374,136.73576,-155.21741,609.11432,184.49893,-78.72916,644.1897
4,0.025,94.17017,-130.1505,686.34619,136.05446,-154.61069,610.38641,181.44817,-77.38557,643.11975
5,0.033,92.25608,-128.31778,686.66815,137.50414,-154.67366,613.07318,178.63962,-75.14968,641.72571
6,0.042,91.1776,-128.3663,686.99896,137.18639,-155.79491,614.92163,176.4633,-74.30737,640.64545
7,0.05,88.97878,-128.80852,688.51019,137.19479,-157.37718,616.14081,175.87361,-74.07794,640.91522
8,0.058,87.36941,-127.39258,687.29156,138.00949,-157.99699,617.96179,176.15128,-75.02639,642.23303
9,0.067,87.61932,-128.44638,688.8894,139.4604,-159.69707,619.38019,175.61246,-77.02823,642.16211
10,0.075,88.64709,-129.65553,689.78894,139.87215,-161.2249,619.72675,177.4232,-79.13212,642.61292
11,0.083,88.10799,-130.47455,689.34869,140.23212,-162.99583,620.30688,178.51982,-81.58471,642.85272
12,0.092,88.96255,-132.18549,688.86938,141.6561,-164.37994,619.73456,181.10046,-83.98016,644.00452
13,0.1,92.25776,-134.43178,688.93134,140.73442,-167.34659,618.87982,183.09442,-87.50645,643.69659
14,0.108,93.7235,-136.36943,686.92767,141.53391,-169.07495,617.61481,185.3511,-92.51064,643.52704
15,0.117,96.5367,-139.78018,688.34943,141.7937,-170.94356,615.96344,189.33247,-97.21286,646.30524
16,0.125,98.95805,-141.75827,687.43225,142.4189,-172.30684,613.38745,192.34102,-102.14845,647.83862
17,0.133,101.47862,-144.3204,687.32135,142.06073,-173.10252,612.5163,197.01929,-107.30721,649.47906
18,0.142,103.1291,-146.77711,686.99164,142.88338,-174.76381,611.78229,199.6248,-112.77663,651.75494
19,0.15,105.19531,-149.01933,686.94647,142.90642,-174.95003,610.61731,201.89935,-116.80859,654.23535
20,0.158,106.41838,-150.89424,687.82135,143.12192,-175.26779,609.46088,205.69849,-121.83845,655.95636
21,0.167,106.74953,-153.68071,688.36334,143.75925,-175.15526,609.20782,207.92349,-126.56539,658.13397
22,0.175,107.54444,-154.94781,688.94641,144.62083,-175.09366,608.86517,209.74115,-129.42943,659.78748
23,0.183,108.28386,-155.79251,689.51569,145.77295,-175.32875,608.87604,210.92992,-129.50143,661.32886
24,0.192,108.14296,-156.13225,690.46503,146.67424,-174.96545,609.8493,212.12891,-131.0304,663.01801
25,0.2,108.44145,-156.44138,690.66638,147.37865,-175.19569,610.42047,212.57491,-131.60544,665.10077
26,0.208,108.75604,-155.80354,691.30609,148.03006,-174.32803,611.41669,212.69739,-131.40617,665.49915
27,0.217,109.24783,-155.79404,691.7605,148.8302,-174.89876,612.42383,212.59406,-130.74886,666.1676
28,0.225,109.34164,-156.00337,692.09045,148.89684,-174.59727,613.12183,212.30835,-129.58191,667.37769
29,0.233,109.10484,-154.62732,693.19989,147.92035,-173.20328,613.97791,211.36043,-126.14375,668.23761
30,0.242,108.16837,-154.58977,693.68329,147.28499,-173.48462,615.81403,209.52274,-122.24446,668.25604
31,0.25,107.45172,-153.37756,694.05267,146.54085,-170.0105,616.88159,207.91647,-118.84975,667.13232
32,0.258,106.67702,-151.21599,694.8623,145.85008,-169.01233,617.52789,206.18005,-113.54113,665.37665
33,0.267,105.88715,-150.02968,695.1474,145.24658,-167.31323,617.01843,203.14331,-108.42818,664.79663
34,0.275,103.85507,-147.86205,694.30298,145.09053,-165.97118,617.09943,201.19194,-101.92915,661.2478
35,0.283,101.95947,-145.54904,693.90924,142.51637,-163.55818,616.44183,197.60579,-95.99478,657.69812
36,0.292,101.11168,-143.13956,692.55951,142.6937,-162.99078,615.112,194.31279,-91.30367,654.25598
37,0.3,99.69178,-140.77098,691.28589,141.84837,-157.87872,612.78772,191.60117,-83.75042,649.16394
38,0.308,98.33442,-139.09242,690.22089,141.11699,-156.38988,610.28406,186.81032,-78.85081,643.88428
39,0.317,97.51099,-133.00291,687.27136,139.82094,-154.3571,607.85364,182.0995,-74.40736,637.33942
40,0.325,96.69726,-131.18391,685.80658,140.79967,-154.72856,608.77808,178.5777,-71.70831,636.67346
41,0.333,95.1554,-128.28621,684.99231,140.92549,-154.42613,613.35193,174.71838,-69.06686,634.28674
42,0.342,94.52014,-125.14502,684.39728,142.72035,-154.58582,616.89917,172.85373,-67.17912,632.84418
43,0.35,91.61891,-121.9041,684.34558,144.14751,-154.56317,621.06732,170.97293,-64.11982,631.92279
44,0.358,90.03511,-120.06657,685.12469,144.7061,-154.58713,624.09467,169.82558,-63.66059,632.66205
45,0.367,90.3121,-119.7145,685.90796,145.95013,-154.078,625.93152,170.41422,-63.985,633.02228
46,0.375,89.6563,-119.06618,685.87848,147.38385,-153.91278,626.99939,171.37373,-66.91722,634.34381
47,0.383,90.29714,-119.10278,686.00854,148.69817,-154.10747,626.85785,175.84938,-67.8134,635.75391
48,0.392,92.10699,-119.81815,685.8963,149.23853,-155.79216,626.27948,180.24333,-69.28653,639.54547
49,0.4,94.38375,-120.84258,686.12585,150.3405,-157.42728,624.68469,184.82651,-72.41563,643.24548
50,0.408,96.50721,-123.0562,688.04932,150.96196,-158.00499,623.88196,190.22606,-75.45804,647.62378
51,0.417,100.17703,-126.06687,688.70911,151.42938,-158.73288,621.45215,193.2608,-81.05621,653.53345
52,0.425,104.01794,-130.56366,691.07611,151.04967,-159.28792,620.23608,198.03645,-85.94048,658.87225
53,0.433,106.73066,-133.37291,691.45416,151.29651,-160.32562,619.41785,202.02817,-91.69489,663.89215
54,0.442,108.71483,-137.44872,693.67657,151.88951,-159.3589,617.87061,206.20058,-97.91321,667.50336
55,0.45,111.14989,-141.13795,694.41235,152.72285,-158.7829,616.99536,209.39845,-102.84846,671.39764
56,0.458,112.505,-141.94572,695.58392,153.77094,-158.23843,617.09015,212.55798,-106.71014,674.97534
57,0.467,113.50944,-144.18936,696.36017,155.09099,-157.56367,618.35437,213.46255,-108.19909,677.06128
58,0.475,113.23499,-145.81561,697.30707,155.71973,-157.25307,619.89374,214.50941,-109.98422,679.95886
59,0.483,112.88333,-147.32051,698.76874,157.17451,-157.15646,620.6936,215.98369,-109.00943,681.78052
60,0.492,112.50333,-147.73087,699.76105,158.66399,-157.88689,622.763,215.74792,-109.8374,683.93805
61,0.5,112.27985,-147.18245,700.54291,159.94476,-156.62125,624.57532,216.38103,-108.70457,685.34418
62,0.508,111.94663,-144.56036,701.34576,159.90489,-156.11182,625.74127,215.8017,-108.29752,686.23499
63,0.517,111.80234,-143.28883,702.0708,160.20335,-156.22449,626.79791,215.12422,-106.65603,687.28607
64,0.525,111.86968,-141.20169,702.45178,159.93507,-156.53242,627.36993,214.1657,-105.70637,686.88574
65,0.533,111.45494,-141.61819,703.17786,159.72128,-156.4966,627.52643,213.54521,-102.83589,685.86981
66,0.542,110.98737,-139.78217,703.17371,158.06783,-157.64996,628.79498,212.08554,-100.91476,684.20428
67,0.55,110.57341,-138.26695,702.50854,156.1638,-156.2028,629.06177,210.45674,-97.09669,681.97369
68,0.558,109.44521,-137.73848,701.89874,155.95383,-155.58836,628.41418,208.47517,-93.7486,679.17993
69,0.567,108.33454,-136.27882,701.48492,153.89072,-155.14046,627.19849,205.96992,-90.27679,675.56195
70,0.575,106.31334,-135.92734,700.64752,152.51889,-154.28377,626.38751,204.57916,-84.32011,668.87012
71,0.583,104.70209,-135.96295,698.98541,151.31671,-154.10197,623.82849,201.93422,-82.65614,666.72046
72,0.592,104.10754,-134.56679,696.6228,149.81615,-153.12764,620.85895,198.01451,-78.92691,660.00385
73,0.6,103.08228,-132.62047,694.49426,148.74084,-152.6593,617.25555,194.00938,-74.80793,653.66882
74,0.608,102.53946,-131.32266,691.41315,146.57124,-152.01196,614.26788,190.21637,-73.38436,648.67859
75,0.617,102.1506,-131.00105,688.7514,144.50075,-150.629,611.89441,187.92319,-71.18465,645.14697
76,0.625,101.00356,-128.00563,687.15894,143.4873,-150.68552,612.29547,185.97522,-70.45553,642.0849
77,0.633,100.06848,-126.54245,686.56287,143.69405,-151.79916,613.58392,182.44543,-67.92719,640.39484
78,0.642,96.09194,-122.80206,686.48584,144.12444,-150.57368,617.10773,180.1463,-67.73059,641.45538
79,0.65,95.20491,-122.61436,688.61206,145.22333,-151.78629,620.53448,177.76454,-66.06368,642.03607
80,0.658,93.12289,-121.36547,688.59528,146.43176,-150.65939,623.52039,176.65253,-64.68635,641.82416
81,0.667,91.50445,-120.26888,689.08502,146.21181,-152.61026,625.96454,177.12494,-66.63875,643.25848
82,0.675,91.18958,-119.87719,688.88379,147.25348,-151.97551,627.33801,178.06456,-66.71184,644.75195
83,0.683,91.9353,-120.3076,690.07544,147.89218,-152.03204,627.68982,181.0051,-69.17713,647.44391
84,0.692,92.25928,-121.19399,690.45172,147.75528,-153.46725,627.69781,184.49649,-70.66499,651.5556
85,0.7,92.95561,-121.4006,691.15442,148.06924,-154.36296,626.96118,187.87984,-74.3136,655.20508
86,0.708,94.51288,-123.40238,693.71338,148.25624,-154.19905,625.44855,190.38959,-78.46165,660.30133
87,0.717,97.23738,-127.1315,695.78778,148.2982,-154.26036,624.02618,193.13058,-81.45266,663.63623
88,0.725,98.99676,-129.61514,696.25244,148.77116,-154.31926,623.45282,196.52359,-85.21479,668.45941
89,0.733,102.25092,-132.22162,696.70898,149.38702,-153.4071,621.42371,200.28761,-88.31686,669.0575
90,0.742,103.67819,-133.54002,696.90973,149.65018,-152.91405,621.16724,201.651,-90.06102,671.26398
91,0.75,104.95103,-135.73033,697.27747,149.86378,-152.27092,621.42224,203.31073,-91.45084,672.90717
92,0.758,106.65298,-136.94588,696.92328,150.71741,-150.36436,621.27545,204.98454,-89.40585,674.04718
93,0.767,107.65888,-136.94383,697.16229,151.96596,-150.83701,622.0495,205.06195,-89.03069,674.41797
94,0.775,108.15408,-136.66382,697.42163,153.63387,-151.57523,622.9881,205.91389,-86.10545,672.92694
95,0.783,108.98518,-135.00217,697.81073,153.99039,-151.19655,623.32501,205.64107,-85.0864,671.81598
96,0.792,109.25063,-132.85242,697.92859,153.91623,-149.33556,624.20953,205.68451,-84.40971,670.67487
97,0.8,109.04651,-131.63792,697.76593,153.91623,-149.33556,624.20953,203.86353,-81.864,668.68469
98,0.808,108.03189,-130.47096,696.98816,153.94769,-149.77434,623.20062,203.20201,-81.64853,668.30103
99,0.817,107.81496,-129.99782,696.35907,153.16226,-149.42496,621.995,201.62689,-79.06028,665.38403
100,0.825,106.82949,-129.16502,695.94641,151.55173,-149.3878,621.93701,199.64537,-79,662.75476
101,0.833,106.72771,-128.17557,694.59851,150.41263,-150.23047,621.21771,198.34627,-75.52507,659.06195
102,0.842,104.84765,-128.35999,693.28265,149.32028,-150.69672,620.66461,195.82245,-73.42525,655.92389
103,0.85,103.69964,-128.5816,692.30267,147.30873,-150.40454,618.74121,193.21379,-72.39491,652.27454
104,0.858,102.67989,-128.24164,691.15094,146.43042,-150.32977,617.18475,191.04117,-70.08257,647.48645
105,0.867,100.93567,-127.74247,689.30151,144.74475,-150.78804,614.32275,187.53543,-68.98024,643.80768
106,0.875,100.57945,-127.05864,687.35602,142.85551,-150.38504,611.86139,184.50572,-70.22797,638.263
107,0.883,99.76721,-126.52857,685.43585,142.45192,-151.99661,609.35413,183.37444,-68.03088,636.65021
108,0.892,99.07795,-125.83131,685.16022,142.92117,-150.66469,610.86823,181.66913,-67.45778,638.01758
109,0.9,98.11615,-125.40642,685.51794,143.38145,-150.86484,613.38068,180.78625,-67.50295,638.20593
110,0.908,95.7864,-123.21125,686.51721,144.12444,-150.57368,617.10773,178.78836,-66.1399,639.83118
111,0.917,94.61733,-123.25276,689.03015,145.80988,-151.6407,621.01794,176.80757,-64.69055,641.67731
112,0.925,92.81911,-121.95634,690.21838,147.58521,-150.71999,624.06134,176.8213,-63.47762,642.46869
113,0.933,92.58225,-121.71638,690.84564,149.06194,-152.48882,627.64893,177.5804,-65.24468,644.76678
114,0.942,91.9561,-121.13953,691.39813,150.51012,-153.20203,630.18475,178.84044,-66.71445,645.73389
115,0.95,92.54086,-120.82111,691.83136,151.78273,-153.32196,631.92645,182.37648,-68.57839,650.12451
116,0.958,94.16312,-121.05536,694.43549,152.73007,-154.03423,632.22797,186.31464,-70.53345,653.04053
117,0.967,96.45793,-123.48193,694.78711,152.5652,-155.0593,631.78821,189.16997,-73.10858,657.77649
118,0.975,98.30684,-125.71017,696.88477,152.5087,-155.51123,630.18982,192.4704,-76.86821,660.85284
119,0.983,100.18693,-127.21498,697.24689,152.38394,-156.3941,627.948,194.94891,-80.27509,664.85968
120,0.992,102.98155,-130.77287,697.69897,152.75601,-155.56395,626.75409,198.31184,-84.07404,668.25909
121,1,104.50236,-133.10344,698.83069,152.81058,-154.41003,625.30524,201.00768,-88.72685,670.99622
122,1.008,107.58649,-136.20837,699.08167,152.54407,-153.88803,623.2951,203.59009,-90.21847,671.49634
123,1.017,108.95435,-137.79459,698.57251,153.06311,-153.9388,621.57245,205.30602,-91.99313,673.72009
124,1.025,109.84514,-138.47342,697.85388,153.59334,-153.41101,621.02081,206.85992,-93.9436,674.46838
125,1.033,110.64568,-139.13585,697.72473,153.93495,-152.81902,620.92267,207.43228,-93.9724,674.51862
126,1.042,110.66088,-138.96991,697.58624,154.28023,-151.58102,620.78076,208.36467,-93.24236,674.34967
127,1.05,110.61082,-138.4287,697.44513,154.40378,-151.40939,620.8551,208.84532,-90.63039,674.15613
128,1.058,110.15405,-137.02686,696.86646,154.73022,-151.15079,621.19678,208.71208,-88.20198,671.75745
129,1.067,110.30948,-135.19466,696.78076,155.01955,-150.87282,621.01642,208.34528,-86.80672,671.28101
130,1.075,110.05428,-134.44202,696.83783,154.89395,-150.82436,621.13794,208.46262,-86.37647,668.75751
131,1.083,109.41123,-131.60336,695.8847,154.82118,-149.92261,620.53607,206.83955,-85.03653,666.24078
132,1.092,108.84016,-130.58939,695.21893,153.71086,-149.49342,619.82062,206.58167,-84.09254,664.85303
133,1.1,108.1635,-129.61218,693.38544,152.39104,-149.6505,619.33472,203.5986,-83.07484,661.56354
134,1.108,107.1216,-128.5983,692.44031,150.51453,-149.2084,617.41406,201.22008,-80.86642,658.49261
135,1.117,106.52575,-128.2451,690.82672,149.40758,-150.61288,616.09839,199.0088,-79.24305,654.43884
136,1.125,105.62222,-127.79175,689.40436,147.31592,-150.87022,614.57513,196.34288,-77.99895,650.87341
137,1.133,103.63644,-128.03482,687.98724,145.2794,-151.71938,613.0387,194.00688,-74.13663,647.74835
138,1.142,102.35831,-129.17188,687.57855,141.8205,-150.33791,611.4068,190.66542,-73.07872,643.50366
139,1.15,100.52612,-127.69812,685.37537,142.15848,-152.52641,609.79858,186.64355,-72.14403,638.87714
140,1.158,99.32293,-127.36822,684.31531,138.96065,-152.64288,607.34045,183.95291,-71.21542,635.13257
141,1.167,97.50897,-126.87776,683.46362,138.70688,-152.04784,606.69574,181.26207,-70.67694,633.53369
142,1.175,96.44385,-126.35634,683.67041,139.02211,-153.74838,609.08606,179.40953,-69.29583,634.76801
143,1.183,93.65467,-126.73699,684.58405,139.1729,-152.75162,612.59314,178.05049,-69.78363,637.76874
144,1.192,91.32778,-126.77292,686.18939,139.89066,-153.98912,615.52747,175.75418,-69.3908,638.65179
145,1.2,90.73795,-125.47904,688.91937,142.15276,-153.48297,620.29669,175.14375,-68.76771,640.77216
146,1.208,90.2093,-125.20969,690.68317,144.35004,-154.88597,623.74438,174.44211,-68.99695,642.20282
147,1.217,90.77843,-126.12877,692.49048,145.77534,-154.72302,626.44794,175.90115,-68.68285,644.52686
148,1.225,90.53682,-124.49775,693.43262,147.69783,-155.16624,629.52051,178.53012,-69.98019,647.63379
149,1.233,90.55301,-124.7711,694.58594,149.37816,-155.82571,631.63208,181.46939,-71.78568,651.70703
150,1.242,93.37849,-127.3828,696.01404,150.43106,-157.34537,631.89563,186.39996,-73.81865,656.62476
151,1.25,94.30361,-128.20967,697.42163,151.44373,-158.13228,632.341,188.14102,-77.34717,659.88385
152,1.258,97.03043,-130.40089,697.77167,151.42197,-158.51184,632.04297,192.78616,-80.53867,663.82355
153,1.267,100.02834,-132.14731,699.17169,151.58189,-159.98489,629.75195,195.91934,-85.01646,666.17053
154,1.275,103.21238,-134.75185,700.61487,151.95856,-159.54848,628.40106,198.9615,-88.94835,669.64941
155,1.283,105.24997,-137.41754,700.06012,151.89822,-160.50479,626.35394,202.10179,-92.45889,671.828
156,1.292,108.16464,-139.9122,699.98804,152.30824,-159.73949,623.93817,204.28764,-96.23158,673.68329
157,1.3,110.49898,-141.8168,699.37659,152.0723,-158.18631,621.76825,206.42184,-98.93726,673.94312
158,1.308,111.83945,-142.85928,698.01178,152.73347,-156.83636,620.54578,208.59387,-101.78583,674.03436
159,1.317,113.2123,-143.03134,697.01428,153.23662,-155.38727,619.36108,210.34758,-101.13538,673.51825
160,1.325,114.11591,-143.72762,696.69177,153.42258,-155.40088,618.86255,211.64505,-102.0125,672.7652
161,1.333,114.25986,-143.71562,696.31335,153.92517,-155.10754,618.15216,212.85321,-99.70142,671.9035
162,1.342,114.10446,-142.72473,695.73401,154.69722,-154.50754,617.40314,212.83423,-97.42823,670.09967
163,1.35,113.93779,-141.67284,694.77722,155.26711,-154.00407,616.5368,212.41489,-96.04977,668.02203
164,1.358,113.44088,-141.12122,694.26514,155.39194,-153.90157,615.91254,211.90007,-94.36864,665.16516
165,1.367,113.80679,-137.16022,693.06073,154.9662,-153.07079,614.58783,211.4548,-92.94918,662.60974
166,1.375,112.58367,-135.40036,691.23083,153.98383,-153.48383,613.47491,211.1353,-90.3427,659.12323
167,1.383,112.69803,-134.384,690.21588,152.56644,-154.28593,612.7594,208.52525,-89.55125,656.55853
168,1.392,111.32006,-133.04774,688.64246,150.589,-153.9763,611.68103,206.6115,-88.30676,653.32922
169,1.4,110.71613,-132.05458,687.80835,148.66568,-155.07935,610.54071,203.11446,-87.74361,649.664
170,1.408,108.97454,-132.71736,686.99933,146.93761,-155.85373,609.35681,200.33505,-83.59454,646.48163
171,1.417,106.2626,-131.93283,686.37872,144.05014,-155.56085,608.84302,197.17307,-82.35813,642.8811
172,1.425,104.84593,-131.5135,684.48499,142.59949,-155.9915,607.71454,194.69812,-80.32704,640.96423
173,1.433,101.99462,-131.46788,684.24408,141.63409,-156.53474,606.05219,190.66238,-77.76912,636.95996
174,1.442,100.1107,-131.44174,684.11511,140.56735,-156.79623,605.59918,186.90521,-77.85179,635.06018
175,1.45,98.60571,-131.91875,684.27783,140.72365,-156.03632,607.41156,184.06161,-75.23074,635.56702
176,1.458,97.19609,-131.14574,685.57709,140.4697,-157.10228,611.33728,180.61996,-73.66939,636.26385
177,1.467,94.25748,-129.79295,686.45435,141.74246,-156.51605,615.45984,178.56511,-72.80412,638.12128
178,1.475,92.82017,-129.02795,690.34076,143.18141,-157.17561,620.14661,176.50737,-71.49631,639.33752
179,1.483,91.18834,-127.78047,691.2113,144.6104,-157.75574,623.64221,175.95343,-71.96763,640.28613
180,1.492,89.95731,-128.93968,692.80658,146.31987,-159.18463,627.35388,176.05225,-73.45105,644.66492
181,1.5,89.96859,-129.48407,694.74487,147.24507,-160.09705,630.41321,179.00053,-74.68166,648.20599
182,1.508,90.10685,-130.76434,696.19031,147.90038,-162.16167,633.06213,181.38396,-77.95012,652.73633
183,1.517,92.41744,-133.75415,697.8963,148.75247,-165.22948,634.54346,184.04643,-80.62917,657.28918
184,1.525,93.70724,-134.83319,699.0296,149.2719,-165.87251,634.86224,187.48584,-84.89204,661.02692
185,1.533,96.10863,-137.96523,701.91388,149.85063,-166.83118,634.69641,190.91425,-89.49956,664.91711
186,1.542,97.37743,-140.33955,702.78729,149.94214,-168.01711,633.19183,194.67294,-94.12106,668.67438
187,1.55,100.52106,-144.24026,703.65942,150.34538,-168.83784,630.91779,197.60782,-97.78864,671.61401
188,1.558,102.74512,-146.19771,703.45508,150.3345,-169.52591,630.02069,200.07814,-102.6097,674.0871
189,1.567,104.83122,-149.51711,703.55212,149.89586,-170.50687,627.64838,202.9471,-107.34782,674.99927
190,1.575,107.69167,-152.02913,703.52612,150.01633,-170.36304,626.04065,205.91911,-109.70363,675.73492
191,1.583,109.01251,-154.52003,703.43109,150.78305,-170.68179,624.00739,207.6987,-112.75842,675.73492
192,1.592,109.97578,-154.86317,702.85999,151.1192,-169.70253,623.86737,209.94354,-115.68116,676.39331
193,1.6,112.27499,-155.61655,701.28174,151.75604,-169.97897,622.9469,211.43799,-117.81724,676.24524
194,1.608,112.89988,-155.72058,701.16406,152.17719,-170.4823,621.86456,212.0789,-115.84447,674.98761
195,1.617,113.15312,-155.51227,700.20203,152.64392,-170.58763,621.35492,213.27003,-114.54631,674.01599
196,1.625,112.96075,-154.99033,699.07281,153.67184,-169.70857,620.64697,213.32864,-114.06077,671.49738
197,1.633,113.29907,-152.95354,698.05737,154.07855,-168.96233,620.08447,213.26529,-112.49251,669.99786
198,1.642,113.17721,-151.90112,697.58362,153.48892,-168.64429,619.24554,213.65292,-110.0631,668.64301
