Frame#,Time,R.Forearm.x,R.Forearm.y,R.Forearm.z,R.Ulna.x,R.Ulna.y,R.Ulna.z,R.Radius.x,R.Radius.y,R.Radius.z
1,0,94.12023,-38.73102,1074.74536,197.18303,-80.23447,1090.9563,240.27853,-8.37912,1084.23315
2,0.008,93.78898,-39.28009,1074.94604,196.84546,-80.30951,1091.24316,240.18306,-8.19942,1084.57251
3,0.017,94.00254,-39.27966,1075.34973,197.06799,-80.68938,1091.38196,240.36569,-8.35885,1084.92761
4,0.025,94.08651,-39.59536,1076.31226,196.81361,-81.04244,1091.3457,239.70657,-7.83181,1085.66333
5,0.033,94.08665,-39.81089,1076.36182,196.9335,-81.72247,1091.12756,239.35866,-8.22826,1086.48975
6,0.042,94.32364,-41.33052,1076.52319,197.15187,-81.97408,1091.09619,239.50377,-7.83518,1086.72791
7,0.05,94.14108,-41.56702,1077.19373,197.01076,-82.11841,1090.99512,238.77188,-7.3428,1086.93909
8,0.058,93.95667,-41.98605,1077.21179,197.01076,-82.11841,1090.99512,238.66591,-7.21858,1087.02771
9,0.067,93.92483,-41.91404,1077.46594,197.01076,-82.11841,1090.99512,238.38857,-7.19519,1087.10156
10,0.075,93.95422,-40.12003,1077.44666,197.01076,-82.11841,1090.99512,238.1642,-7.18113,1087.18213
11,0.083,93.83393,-40.22916,1077.49036,197.00655,-81.91264,1091.20276,238.37421,-7.2214,1086.8501
12,0.092,93.44534,-39.89777,1077.25537,196.94409,-81.87451,1091.34692,238.37421,-7.2214,1086.8501
13,0.1,93.40634,-40.15754,1077.45435,196.75227,-81.09821,1091.3606,238.44945,-7.94714,1086.50659
14,0.108,93.43252,-40.29346,1077.10193,196.63963,-80.99464,1091.4635,238.44945,-7.94714,1086.50659
15,0.117,93.70007,-39.66689,1076.67737,196.40256,-80.96114,1091.79956,238.69205,-7.59681,1085.94629
16,0.125,93.54959,-39.59349,1076.64917,196.36226,-80.83762,1091.88147,238.56262,-7.58582,1085.44348
17,0.133,93.42644,-39.5111,1076.46118,196.12344,-81.09514,1092.09497,238.56262,-7.58582,1085.44348
18,0.142,93.42644,-39.5111,1076.46118,195.71368,-81.33398,1092.15283,238.99411,-9.19015,1085.20703
19,0.15,93.0154,-40.27792,1076.74854,195.78676,-81.52421,1092.22803,238.44945,-7.94714,1086.50659
20,0.158,92.83354,-40.22002,1077.26099,195.5468,-82.50408,1092.36768,238.59816,-8.69328,1086.89929
21,0.167,92.95672,-40.33101,1077.60498,195.84724,-82.69016,1092.29285,238.56758,-9.07002,1087.25061
22,0.175,92.60799,-40.62408,1077.62122,195.60947,-82.75249,1092.43787,238.45625,-8.83348,1087.32349
23,0.183,92.4055,-41.06558,1078.24475,195.83553,-82.79172,1092.42969,237.88002,-11.0105,1087.75928
24,0.192,92.53984,-41.15343,1078.2937,196.33521,-83.51321,1092.6228,237.9845,-11.05395,1088.00049
25,0.2,92.65041,-41.30395,1078.30359,196.60262,-83.37004,1091.8136,237.89665,-10.28137,1088.94861
26,0.208,92.80967,-42.72458,1078.64294,196.80241,-83.39497,1092.07178,237.53972,-9.98499,1089.23071
27,0.217,92.6469,-42.73244,1078.77271,196.80241,-83.39497,1092.07178,237.46083,-10.06121,1089.36572
28,0.225,92.44225,-43.04772,1078.98779,195.86739,-83.3239,1092.99622,237.22942,-10.95664,1089.68652
29,0.233,92.21672,-42.53015,1078.75903,195.81007,-83.17761,1093.08203,237.2036,-10.93242,1089.09875
30,0.242,91.86563,-42.77656,1078.87891,195.3381,-83.18758,1093.11731,237.2825,-10.85614,1088.96375
31,0.25,91.46008,-41.00677,1078.60974,194.84293,-83.00311,1092.95459,237.24002,-9.11843,1089.16199
32,0.258,91.15218,-40.35174,1078.35498,195.08069,-82.94096,1092.80945,237.50793,-9.20584,1088.64648
33,0.267,91.25803,-40.35308,1078.32141,194.66832,-82.84859,1092.92871,237.00652,-9.61607,1087.91357
34,0.275,91.31264,-40.28698,1078.23328,194.42892,-82.62389,1092.8844,236.93779,-9.47466,1087.74792
35,0.283,91.31264,-40.28698,1078.23328,194.42892,-82.62389,1092.8844,237.33458,-9.74008,1087.5509
36,0.292,91.23779,-40.2694,1078.14697,194.23679,-82.60321,1092.81689,237.56744,-9.2166,1087.51245
37,0.3,91.23779,-40.2694,1078.14697,194.29904,-82.64109,1092.67261,236.98157,-10.01306,1087.44312
38,0.308,91.37461,-40.26537,1078.09766,194.29904,-82.64109,1092.67261,237.22159,-9.51857,1087.35413
39,0.317,91.37563,-40.18491,1078.01208,194.13786,-82.55193,1092.59265,236.98157,-10.01306,1087.44312
40,0.325,91.02081,-40.13068,1077.91516,194.38445,-82.45623,1092.51099,236.7599,-9.96518,1087.44434
41,0.333,91.00993,-40.21712,1078.01025,194.65283,-82.41621,1092.28809,236.2887,-9.17343,1086.5249
42,0.342,91.22195,-41.40842,1077.58167,194.70901,-82.75407,1092.16541,236.32541,-9.65492,1087.67224
43,0.35,91.46138,-41.49773,1077.74121,194.72531,-83.39355,1091.96545,236.20671,-9.71642,1087.81677
44,0.358,91.3747,-41.76142,1077.80798,194.72531,-83.39355,1091.96545,236.20671,-9.71642,1087.81677
45,0.367,91.57344,-42.23632,1077.8512,194.7382,-83.64479,1091.67798,236.20671,-9.71642,1087.81677
46,0.375,91.57344,-42.23632,1077.8512,195.00958,-83.34412,1091.18848,236.20671,-9.71642,1087.81677
47,0.383,91.70581,-42.60141,1077.62146,195.0146,-83.58433,1090.94641,236.20671,-9.71642,1087.81677
48,0.392,91.59303,-42.76811,1077.53015,194.97098,-83.50175,1090.68445,236.32541,-9.65492,1087.67224
49,0.4,91.23728,-42.28009,1076.78503,195.07814,-83.42423,1090.21191,235.86174,-9.69122,1087.30725
50,0.408,90.7339,-42.77246,1076.12756,194.5972,-83.39205,1089.91003,235.59094,-8.73228,1086.34253
51,0.417,90.99915,-42.27108,1075.23352,194.54324,-82.59308,1089.64417,235.84842,-8.68857,1086.12769
52,0.425,90.86937,-41.88267,1074.56799,194.52368,-82.47536,1089.48486,235.84644,-8.97462,1084.54626
53,0.433,90.35489,-40.82791,1074.09326,194.56873,-82.05745,1089.30237,236.48851,-8.62415,1083.59888
54,0.442,90.06387,-40.60414,1073.78491,194.4274,-81.97511,1089.22363,235.75047,-9.04746,1082.44287
55,0.45,89.91978,-40.46948,1073.67566,194.34395,-81.96333,1089.0553,235.56168,-9.24088,1081.78113
56,0.458,90.14735,-40.55131,1073.04541,194.25732,-82.20259,1088.78699,234.97035,-8.79167,1080.7771
57,0.467,90.19038,-40.79489,1072.69421,194.26053,-82.62683,1087.84033,234.67494,-8.53285,1081.74731
58,0.475,90.12616,-42.50476,1071.91858,194.26186,-83.02509,1087.2843,234.28026,-9.25966,1081.99097
59,0.483,90.30791,-43.75798,1071.93079,193.53911,-83.72057,1086.93066,234.42203,-10.74688,1082.69043
60,0.492,90.32754,-44.37345,1071.85303,193.58923,-84.0853,1086.47498,234.67168,-10.79803,1083.02124
61,0.5,89.89227,-45.27524,1071.86169,193.3732,-84.76542,1085.54895,234.29903,-11.41952,1083.66272
62,0.508,89.54428,-46.48238,1072.11548,193.95853,-85.00327,1084.40918,233.44318,-11.11968,1084.5459
63,0.517,89.34371,-48.38945,1071.87256,194.49239,-86.37743,1084.11951,233.51889,-11.25877,1085.02588
64,0.525,89.26176,-48.53361,1071.98206,194.67197,-86.35154,1083.78491,232.94998,-11.3162,1085.93762
65,0.533,88.93748,-49.66521,1071.6676,195.34613,-87.20103,1083.65125,232.54173,-11.52234,1085.72327
66,0.542,89.01202,-50.85102,1070.98975,195.17387,-87.94824,1083.16528,232.93224,-11.60142,1084.52148
67,0.55,89.11839,-49.65842,1070.40857,195.01231,-88.22646,1082.61035,232.46858,-11.85692,1084.28467
68,0.558,89.22314,-51.43422,1070.2666,195.01231,-88.22646,1082.61035,232.44409,-12.38833,1083.18567
69,0.567,89.32512,-51.57573,1069.52893,194.95135,-88.64531,1082.88269,232.118,-13.52715,1082.4325
70,0.575,88.96766,-51.46161,1068.92432,194.77415,-88.98803,1083.29504,230.89441,-12.50811,1081.69177
71,0.583,88.45461,-51.82692,1067.85742,194.23409,-89.89604,1083.50513,230.55293,-12.68833,1081.39685
72,0.592,88.19717,-52.52946,1067.59094,193.48608,-89.44922,1083.43616,230.73811,-12.75818,1080.97314
73,0.6,88.11087,-52.80485,1066.85901,192.8206,-88.97542,1084.16235,230.87196,-14.87091,1079.71826
74,0.608,87.74538,-53.54152,1066.61902,192.23695,-88.44129,1084.13049,230.99297,-14.9859,1079.39124
75,0.617,87.63782,-53.48099,1066.35352,193.37282,-89.77279,1083.1615,230.99271,-15.95985,1078.69263
76,0.625,87.34164,-53.47993,1065.19861,192.9382,-90.19958,1083.18896,230.99271,-15.95985,1078.69263
77,0.633,87.37054,-54.53596,1064.67407,192.4286,-90.77123,1083.15173,230.71962,-15.90752,1078.50269
78,0.642,87.52201,-55.02789,1064.31152,192.57121,-92.21416,1082.91663,231.10454,-17.74277,1078.42444
79,0.65,87.63828,-55.69737,1063.81763,192.13608,-92.92564,1082.53381,230.49484,-18.17344,1079.69775
80,0.658,87.51238,-55.76015,1063.71057,192.382,-93.06268,1081.73206,229.68814,-17.27284,1079.6377
81,0.667,87.12456,-56.7404,1063.82166,191.8979,-94.21192,1080.87329,229.15662,-19.17942,1080.49719
82,0.675,87.32882,-57.36756,1064.14978,191.72029,-95.80966,1080.32861,229.45024,-19.71247,1081.77124
83,0.683,87.33745,-58.31034,1064.33679,191.76364,-96.36697,1079.4613,228.72438,-20.74664,1082.39417
84,0.692,87.55679,-59.792,1064.5166,192.36507,-97.07432,1078.6571,228.70668,-20.87843,1082.54065
85,0.7,87.06699,-60.55197,1064.47522,192.49118,-97.17957,1078.7085,228.70668,-20.87843,1082.54065
86,0.708,87.48846,-61.19524,1064.54968,192.46001,-97.41675,1078.58569,228.70668,-20.87843,1082.54065
87,0.717,87.48846,-61.19524,1064.54968,192.54607,-97.35796,1078.43518,228.64778,-21.25575,1081.87048
88,0.725,87.33472,-61.5097,1064.50928,192.46001,-97.41675,1078.58569,228.48846,-21.23863,1081.50879
89,0.733,86.91324,-60.86656,1064.43494,192.56795,-97.03252,1078.51636,228.42758,-20.61781,1079.59668
90,0.742,86.91324,-60.86656,1064.43494,192.2146,-96.99388,1078.61426,228.47247,-21.16395,1078.69055
91,0.75,86.79915,-60.68236,1064.39783,191.8638,-96.72033,1079.0592,228.97734,-20.91769,1077.87891
92,0.758,86.79031,-59.17701,1064.05615,191.23541,-96.34332,1079.90527,229.74178,-21.65652,1077.06274
93,0.767,86.81802,-58.38021,1063.64319,191.02888,-96.09076,1080.0365,229.75467,-22.66395,1075.89343
94,0.775,87.0957,-57.65334,1063.09607,191.03256,-96.07107,1080.73401,229.82744,-22.29738,1075.75769
95,0.783,87.85605,-57.15852,1062.76257,190.95535,-96.12329,1080.19275,229.89497,-23.17179,1075.51501
96,0.792,88.00568,-57.24635,1062.49646,191.32942,-96.46813,1079.07397,230.09509,-23.33699,1075.56409
97,0.8,88.28518,-57.66192,1062.46094,191.64769,-96.99245,1078.90308,230.08742,-22.57108,1076.89905
98,0.808,88.42606,-57.85301,1062.51733,191.79999,-97.62648,1078.66077,230.12935,-22.31549,1077.49475
99,0.817,88.55018,-58.03754,1062.42896,191.93092,-97.90269,1078.55042,230.59807,-23.05652,1078.22961
100,0.825,88.31121,-57.93621,1062.80298,192.01022,-98.24632,1077.84045,231.2027,-25.31477,1079.74548
101,0.833,88.37637,-60.58585,1064.0155,192.97073,-99.22504,1077.35376,231.05699,-25.47986,1079.59619
102,0.842,88.45628,-60.61261,1064.10229,193.47023,-100.18472,1077.21802,230.9222,-25.90126,1080.12463
103,0.85,88.22367,-61.51756,1064.29504,193.47023,-100.18472,1077.21802,230.75621,-25.77133,1080.06262
104,0.858,88.20726,-61.73202,1064.47522,193.54173,-100.22549,1077.06714,231.05699,-25.47986,1079.59619
105,0.867,88.30905,-61.80902,1064.75012,193.41544,-100.16547,1076.97656,231.03485,-25.34102,1079.46033
106,0.875,87.98951,-61.71247,1064.33899,193.66302,-100.08042,1077.27625,231.81711,-24.96606,1077.28162
107,0.883,88.00593,-61.49803,1064.15894,193.66302,-100.08042,1077.27625,231.47725,-25.12273,1076.35754
108,0.892,88.19427,-61.48428,1063.91333,193.02716,-98.91177,1078.20435,231.86858,-26.20946,1075.05969
109,0.9,88.54572,-60.64185,1063.03113,192.90089,-98.68247,1078.18384,232.57315,-26.00937,1074.65955
110,0.908,88.25879,-59.92509,1062.41626,192.63754,-97.96635,1077.96704,232.60561,-26.45035,1073.9873
111,0.917,88.97599,-58.75964,1061.59814,191.85907,-97.66199,1077.96509,232.54376,-24.98224,1073.48132
112,0.925,88.87978,-58.85089,1061.29285,191.86092,-97.8646,1078.03137,233.75174,-25.4276,1071.96997
113,0.933,89.11316,-58.99974,1061.17603,191.18217,-98.40343,1077.87146,233.8755,-26.3218,1071.7688
114,0.942,89.12226,-59.18264,1061.03491,191.16061,-98.79966,1077.91089,233.6927,-27.1578,1072.54846
115,0.95,88.75357,-59.93671,1060.40173,191.16457,-98.98021,1077.73071,233.09286,-27.18345,1072.87866
116,0.958,88.46668,-60.69156,1060.47815,191.09308,-99.7999,1076.92175,231.46667,-25.64022,1073.93958
117,0.967,88.40777,-61.27588,1060.25952,191.54671,-99.62427,1076.64709,231.02682,-25.49506,1073.96899
118,0.975,88.30891,-62.12803,1059.84155,191.88396,-100.37962,1074.72217,230.66064,-25.8923,1074.57581
119,0.983,88.04734,-63.41824,1059.89429,191.84862,-100.69059,1073.61975,230.48512,-25.91387,1074.67749
120,0.992,87.46964,-64.31086,1059.6051,192.70673,-101.66931,1072.79248,230.47745,-25.72308,1074.87512
121,1,87.09866,-65.11758,1059.14929,192.73283,-102.2091,1072.59583,229.27963,-26.09112,1075.12708
122,1.008,87.15882,-65.6329,1058.83716,192.58411,-102.21941,1072.24146,229.05786,-26.26618,1074.76501
123,1.017,86.40213,-67.33123,1058.18823,193.60159,-101.96198,1071.33801,229.1165,-26.3503,1074.52539
124,1.025,86.81009,-68.12837,1057.60779,193.4803,-101.54218,1070.05042,228.59264,-25.70677,1072.495
125,1.033,86.19436,-68.40099,1057.21851,193.67334,-101.1484,1069.18677,228.77222,-26.88969,1070.56555
126,1.042,86.22354,-67.94473,1056.1355,192.72128,-100.88372,1068.85828,227.92427,-24.06976,1069.86609
127,1.05,86.06159,-68.04008,1055.23328,192.72461,-100.36525,1068.03796,228.48894,-24.30016,1068.90918
128,1.058,86.40142,-68.1839,1053.43787,192.68742,-100.5771,1067.92078,228.75618,-24.4597,1067.29395
129,1.067,86.37275,-68.16443,1052.05286,192.61475,-100.61238,1067.35571,227.67044,-25.19473,1065.46289
130,1.075,86.04414,-68.44673,1050.9873,191.88982,-100.61451,1066.96326,227.49867,-24.62792,1065.07043
131,1.083,86.15179,-68.76734,1049.72729,191.89455,-101.48173,1066.35229,226.10957,-23.42141,1064.18652
132,1.092,86.21762,-69.15497,1047.16589,191.10561,-101.28107,1065.6189,225.09969,-24.56627,1063.245
133,1.1,85.78238,-69.88338,1045.86755,190.78424,-102.3751,1064.69678,224.21861,-25.12362,1063.25635
134,1.108,84.56306,-72.92023,1044.58533,189.93422,-103.33821,1063.89355,224.11365,-25.82833,1062.17908
135,1.117,84.08625,-74.1556,1042.68652,189.91728,-103.35692,1063.45435,223.28979,-25.03366,1061.91577
136,1.125,83.82623,-75.28347,1041.2782,189.43631,-104.24037,1062.61987,220.40884,-25.23348,1063.06323
137,1.133,83.10084,-77.51478,1039.34021,188.3315,-105.33059,1061.38977,218.87923,-27.71231,1061.76807
138,1.142,81.9241,-80.99446,1038.59644,188.27359,-105.47508,1059.85352,218.12689,-27.30203,1061.51135
139,1.15,81.70166,-82.60686,1037.31226,187.78717,-105.81849,1058.97339,216.04108,-27.27771,1061.07654
140,1.158,80.49636,-84.06628,1036.02625,187.01831,-106.2262,1057.66052,215.28667,-26.49825,1059.94336
141,1.167,80.45232,-85.48891,1033.59985,186.24168,-106.87348,1057.63245,213.62454,-28.16299,1058.83972
142,1.175,78.78832,-87.0515,1031.74695,185.75058,-106.7168,1057.14917,211.59773,-28.37286,1057.4281
143,1.183,78.40435,-88.82845,1029.64014,185.67058,-107.10275,1056.77881,208.82388,-27.46128,1056.28503
144,1.192,77.55608,-90.40894,1027.08252,184.18767,-108.32608,1055.58545,207.86917,-27.68257,1055.31372
145,1.2,76.59308,-91.09925,1024.12952,182.32184,-109.86737,1054.40564,205.6638,-28.28537,1055.01013
146,1.208,75.39993,-92.27176,1021.90271,179.63708,-109.31118,1053.30908,203.19269,-29.89289,1053.17749
147,1.217,73.84588,-95.13656,1018.45331,178.85666,-109.70006,1052.59277,199.44551,-27.73831,1053.64929
148,1.225,72.25274,-95.39321,1015.02588,176.82091,-111.31721,1051.8562,196.31619,-30.00482,1052.46216
149,1.233,71.29204,-97.79373,1011.79956,175.00426,-112.2209,1050.3092,193.84636,-28.70563,1051.30249
150,1.242,70.01797,-98.91213,1008.82343,171.80705,-112.12626,1048.60083,189.30583,-30.82106,1051.75293
151,1.25,68.15949,-101.14095,1005.11432,170.37585,-112.47081,1046.70459,186.16624,-30.68114,1050.98401
152,1.258,66.5921,-104.88731,1002.50818,168.23535,-113.95945,1045.90149,182.47754,-31.99923,1051.1344
153,1.267,65.22376,-106.96136,999.58215,166.82591,-115.91278,1043.06946,178.31398,-31.69798,1051.04431
154,1.275,63.62418,-108.89634,996.88367,164.50717,-116.92253,1041.32849,174.40805,-34.66124,1050.01477
155,1.283,61.3629,-110.67153,995.17261,161.97397,-117.52129,1039.66077,169.49176,-36.15371,1050.69482
156,1.292,59.46194,-113.73171,991.83295,159.63136,-119.01306,1037.47888,166.82115,-36.3347,1049.98999
157,1.3,57.58976,-115.53024,989.07617,157.99416,-118.95722,1035.12671,161.83217,-34.5578,1047.68054
158,1.308,55.76095,-118.69824,986.00513,155.63562,-119.99463,1033.03223,157.64462,-35.53043,1046.82495
159,1.317,54.0086,-119.64475,983.28979,153.13087,-121.25931,1031.37378,154.244,-36.65567,1045.82849
160,1.325,51.40935,-121.03327,980.61981,150.7688,-121.58477,1028.19568,150.93016,-38.57119,1044.88281
161,1.333,49.96339,-123.38857,976.76758,149.28441,-123.24529,1026.22498,147.62807,-40.31177,1043.19873
162,1.342,47.98315,-124.06107,973.74274,146.05888,-123.54343,1023.74414,142.56798,-41.31709,1041.89709
163,1.35,46.13071,-125.53247,970.289,143.94034,-124.5827,1021.46417,140.36073,-41.66759,1038.79431
164,1.358,43.38321,-126.69105,966.59857,140.3887,-124.72265,1018.03687,136.05321,-44.16006,1038.20618
165,1.367,42.40453,-126.44879,963.65973,137.62859,-126.37684,1017.14899,132.79958,-45.44913,1037.19421
166,1.375,39.84381,-129.64288,959.62311,136.633,-129.21861,1013.9931,129.98723,-48.1232,1036.35425
167,1.383,38.67415,-130.73682,956.35956,134.51697,-130.29926,1011.33789,124.42933,-50.44888,1035.94482
168,1.392,37.19733,-132.25296,953.61371,131.26039,-131.47368,1009.96033,121.83221,-52.23657,1035.20117
169,1.4,34.96209,-133.59276,951.32813,129.75233,-133.9691,1006.98535,118.15593,-55.58456,1035.35608
170,1.408,34.33301,-133.72324,948.42969,128.50755,-136.39566,1004.30042,115.00633,-59.06712,1034.99255
171,1.417,33.41945,-136.29074,945.80646,127.71201,-138.46841,1001.81995,112.01012,-61.75287,1034.68909
172,1.425,30.11712,-139.03506,943.99072,125.43671,-138.745,997.83533,108.32136,-65.53152,1034.22498
173,1.433,28.32234,-141.11446,941.65131,124.43768,-139.80539,995.90106,103.97537,-68.71788,1034.0835
174,1.442,26.51164,-143.48494,939.42871,122.81161,-141.64088,992.29755,101.93021,-70.27043,1033.14929
175,1.45,25.19644,-144.95845,936.57849,121.15327,-142.44772,989.98401,98.5838,-75.41657,1032.2489
176,1.458,23.51889,-148.37576,934.67828,119.57072,-143.07201,987.25159,94.76208,-78.03916,1031.3595
177,1.467,21.65737,-149.59575,931.17145,118.13676,-144.53479,983.5813,90.99069,-81.35497,1029.85828
178,1.475,19.74148,-151.02422,928.00854,114.7572,-144.51901,981.71722,87.97935,-82.56213,1027.90125
179,1.483,18.07288,-152.84694,925.01294,113.75737,-145.41353,978.51147,84.54322,-84.58682,1027.17004
180,1.492,15.28631,-155.7767,921.72662,111.1589,-146.70634,975.59814,81.37436,-88.54269,1025.78052
181,1.5,14.53367,-157.41106,919.46002,110.13241,-147.59174,973.65259,78.68732,-91.28879,1024.8866
182,1.508,13.47799,-158.19786,915.23029,107.13226,-147.38263,970.539,75.07364,-92.99858,1023.52551
183,1.517,12.06532,-157.93311,911.91339,105.7644,-147.89642,968.9917,72.22012,-95.7253,1022.6402
184,1.525,9.84602,-157.64575,909.24231,104.60243,-148.76382,965.79254,69.86504,-99.14014,1021.6167
185,1.533,9.01316,-158.06709,906.1759,103.81892,-149.23734,963.04266,67.46339,-102.53427,1020.29242
186,1.542,8.14647,-159.763,904.79803,102.18307,-150.58975,960.87006,65.66526,-105.25954,1019.36774
187,1.55,7.12689,-159.8311,902.45551,100.67462,-150.66042,958.34717,63.10136,-109.2346,1018.341
188,1.558,6.09892,-158.92578,899.42914,99.56985,-150.5752,956.20673,61.53521,-111.61679,1016.56085
189,1.567,5.19786,-160.4924,896.91266,98.27679,-149.78169,953.86841,59.06657,-115.465,1015.98096
190,1.575,3.93006,-160.21466,894.79315,98.28002,-149.18356,951.06506,58.06066,-116.9464,1013.7088
191,1.583,1.82135,-160.15121,892.14667,96.77354,-148.51988,949.08508,55.22052,-119.99969,1012.12726
192,1.592,1.47402,-161.27824,888.88208,95.37213,-148.09123,946.24701,53.47879,-121.38464,1011.1972
193,1.6,2.17148,-161.62106,887.45636,93.56009,-147.61502,944.1225,51.52684,-123.20298,1008.23663
194,1.608,0.10976,-161.83974,883.26727,92.28126,-146.47014,941.42914,48.92254,-123.97728,1006.27466
195,1.617,-0.22331,-161.2489,881.53064,90.24871,-147.02341,939.67902,46.73161,-124.98798,1004.55743
196,1.625,-1.346,-162.13058,877.54095,88.95137,-145.164,937.0697,45.0072,-125.34801,1003.57275
197,1.633,-2.39481,-160.76318,875.7475,87.22184,-145.19092,935.97925,43.20617,-126.99554,999.45972
198,1.642,-4.96583,-160.37204,871.70435,85.7955,-143.8633,932.96057,41.1854,-126.30642,998.44995
