Frame#,Time,L.Forearm.x,L.Forearm.y,L.Forearm.z,L.Ulna.x,L.Ulna.y,L.Ulna.z,L.Radius.x,L.Radius.y,L.Radius.z
1,0,45.8665,299.78625,773.86407,83.75478,343.12958,701.81812,145.63249,267.10391,732.16919
2,0.008,46.09313,299.63696,773.69812,83.75478,343.12958,701.81812,145.64108,266.6535,732.07306
3,0.017,45.95606,299.6217,773.71899,83.53355,342.76828,701.64063,145.64108,266.6535,732.07306
4,0.025,46.09313,299.63696,773.69812,83.75478,343.12958,701.81812,145.64108,266.6535,732.07306
5,0.033,45.95606,299.6217,773.71899,83.53355,342.76828,701.64063,145.64108,266.6535,732.07306
6,0.042,46.09313,299.63696,773.69812,83.53355,342.76828,701.64063,145.5134,266.75021,731.98022
7,0.05,45.95606,299.6217,773.71899,83.53355,342.76828,701.64063,145.64108,266.6535,732.07306
8,0.058,45.95606,299.6217,773.71899,83.53355,342.76828,701.64063,145.64108,266.6535,732.07306
9,0.067,46.09313,299.63696,773.69812,83.53355,342.76828,701.64063,145.64108,266.6535,732.07306
10,0.075,45.95606,299.6217,773.71899,83.53355,342.76828,701.64063,145.29736,266.17542,731.7027
11,0.083,45.95606,299.6217,773.71899,83.53355,342.76828,701.64063,145.64108,266.6535,732.07306
12,0.092,45.95606,299.6217,773.71899,83.53355,342.76828,701.64063,145.29736,266.17542,731.7027
13,0.1,45.95606,299.6217,773.71899,83.53355,342.76828,701.64063,145.16965,266.27213,731.60986
14,0.108,45.95606,299.6217,773.71899,83.53355,342.76828,701.64063,145.64108,266.6535,732.07306
15,0.117,45.95606,299.6217,773.71899,83.33608,342.73178,701.69745,145.29736,266.17542,731.7027
16,0.125,45.72945,299.771,773.88489,83.33608,342.73178,701.69745,145.64108,266.6535,732.07306
17,0.133,45.95606,299.6217,773.71899,83.33608,342.73178,701.69745,145.5134,266.75021,731.98022
18,0.142,45.72945,299.771,773.88489,83.28711,342.39233,701.87854,145.29736,266.17542,731.7027
19,0.15,45.72945,299.771,773.88489,83.28711,342.39233,701.87854,145.29736,266.17542,731.7027
20,0.158,45.72945,299.771,773.88489,83.28711,342.39233,701.87854,145.64108,266.6535,732.07306
21,0.167,45.95606,299.6217,773.71899,83.28711,342.39233,701.87854,145.29736,266.17542,731.7027
22,0.175,45.72945,299.771,773.88489,83.28711,342.39233,701.87854,145.29736,266.17542,731.7027
23,0.183,45.95606,299.6217,773.71899,83.28711,342.39233,701.87854,145.64108,266.6535,732.07306
24,0.192,45.95606,299.6217,773.71899,83.28711,342.39233,701.87854,145.16965,266.27213,731.60986
25,0.2,45.95606,299.6217,773.71899,83.28711,342.39233,701.87854,145.16965,266.27213,731.60986
26,0.208,45.95606,299.6217,773.71899,83.28711,342.39233,701.87854,145.16965,266.27213,731.60986
27,0.217,45.72945,299.771,773.88489,83.33608,342.73178,701.69745,145.16965,266.27213,731.60986
28,0.225,45.6973,299.44339,773.60107,83.28711,342.39233,701.87854,145.16965,266.27213,731.60986
29,0.233,45.6973,299.44339,773.60107,83.28711,342.39233,701.87854,145.64108,266.6535,732.07306
30,0.242,45.95606,299.6217,773.71899,83.28711,342.39233,701.87854,145.16965,266.27213,731.60986
31,0.25,45.95606,299.6217,773.71899,83.35143,342.14432,701.72406,145.64108,266.6535,732.07306
32,0.258,45.95606,299.6217,773.71899,83.28711,342.39233,701.87854,145.16965,266.27213,731.60986
33,0.267,45.92389,299.29416,773.43518,83.35143,342.14432,701.72406,145.64108,266.6535,732.07306
34,0.275,45.95606,299.6217,773.71899,83.28711,342.39233,701.87854,145.29736,266.17542,731.7027
35,0.283,45.95606,299.6217,773.71899,83.28711,342.39233,701.87854,145.29736,266.17542,731.7027
36,0.292,45.92389,299.29416,773.43518,83.28711,342.39233,701.87854,145.64108,266.6535,732.07306
37,0.3,45.95606,299.6217,773.71899,83.35143,342.14432,701.72406,145.29736,266.17542,731.7027
38,0.308,45.95606,299.6217,773.71899,83.28711,342.39233,701.87854,145.29736,266.17542,731.7027
39,0.317,45.92389,299.29416,773.43518,83.28711,342.39233,701.87854,145.64108,266.6535,732.07306
40,0.325,45.92389,299.29416,773.43518,83.5423,342.0636,701.78369,145.29736,266.17542,731.7027
41,0.333,45.92389,299.29416,773.43518,83.35143,342.14432,701.72406,145.29736,266.17542,731.7027
42,0.342,45.95606,299.6217,773.71899,83.48457,342.42883,701.82178,145.29736,266.17542,731.7027
43,0.35,45.95606,299.6217,773.71899,83.77863,342.09573,701.72723,145.29736,266.17542,731.7027
44,0.358,45.95606,299.6217,773.71899,83.35143,342.14432,701.72406,145.29736,266.17542,731.7027
45,0.367,45.95606,299.6217,773.71899,83.77863,342.09573,701.72723,145.64108,266.6535,732.07306
46,0.375,45.95606,299.6217,773.71899,83.48457,342.42883,701.82178,145.29736,266.17542,731.7027
47,0.383,46.09313,299.63696,773.69812,83.5489,342.18082,701.66724,145.29736,266.17542,731.7027
48,0.392,46.06098,299.30945,773.41431,83.5489,342.18082,701.66724,145.29736,266.17542,731.7027
49,0.4,46.09313,299.63696,773.69812,83.53355,342.76828,701.64063,145.29736,266.17542,731.7027
50,0.408,46.09313,299.63696,773.69812,83.59788,342.52029,701.48615,145.44688,266.22086,731.68176
51,0.417,46.09313,299.63696,773.69812,83.59788,342.52029,701.48615,145.64108,266.6535,732.07306
52,0.425,46.09313,299.63696,773.69812,83.53355,342.76828,701.64063,145.64108,266.6535,732.07306
53,0.433,46.06098,299.30945,773.41431,83.59788,342.52029,701.48615,145.29736,266.17542,731.7027
54,0.442,46.09313,299.63696,773.69812,83.53355,342.76828,701.64063,145.29736,266.17542,731.7027
55,0.45,45.92389,299.29416,773.43518,83.59788,342.52029,701.48615,145.29736,266.17542,731.7027
56,0.458,45.70498,299.71432,773.52979,83.59788,342.52029,701.48615,145.29736,266.17542,731.7027
57,0.467,45.80986,299.40207,773.2251,83.59788,342.52029,701.48615,145.64108,266.6535,732.07306
58,0.475,45.80986,299.40207,773.2251,83.59788,342.52029,701.48615,145.29736,266.17542,731.7027
59,0.483,45.84205,299.72961,773.50897,83.59788,342.52029,701.48615,145.48813,265.80679,731.36011
60,0.492,45.80986,299.40207,773.2251,83.59788,342.52029,701.48615,145.44688,266.22086,731.68176
61,0.5,45.80986,299.40207,773.2251,83.59788,342.52029,701.48615,145.44688,266.22086,731.68176
62,0.508,45.80986,299.40207,773.2251,83.59788,342.52029,701.48615,145.29736,266.17542,731.7027
63,0.517,45.80986,299.40207,773.2251,83.59788,342.52029,701.48615,145.44688,266.22086,731.68176
64,0.525,45.67276,299.38678,773.24591,83.59788,342.52029,701.48615,145.16965,266.27213,731.60986
65,0.533,45.67276,299.38678,773.24591,83.40041,342.48383,701.54291,145.29736,266.17542,731.7027
66,0.542,45.80986,299.40207,773.2251,83.59788,342.52029,701.48615,145.6982,266.25775,731.72333
67,0.55,45.80986,299.40207,773.2251,83.59788,342.52029,701.48615,145.29736,266.17542,731.7027
68,0.558,45.67276,299.38678,773.24591,83.40041,342.48383,701.54291,145.29736,266.17542,731.7027
69,0.567,45.67276,299.38678,773.24591,83.59788,342.52029,701.48615,145.29736,266.17542,731.7027
70,0.575,45.80986,299.40207,773.2251,83.59788,342.52029,701.48615,145.29736,266.17542,731.7027
71,0.583,45.65006,299.36932,773.15588,83.59788,342.52029,701.48615,145.44688,266.22086,731.68176
72,0.592,45.80986,299.40207,773.2251,83.59788,342.52029,701.48615,145.16965,266.27213,731.60986
73,0.6,45.67276,299.38678,773.24591,83.59788,342.52029,701.48615,145.29736,266.17542,731.7027
74,0.608,45.80986,299.40207,773.2251,83.59788,342.52029,701.48615,145.29736,266.17542,731.7027
75,0.617,45.80986,299.40207,773.2251,83.59788,342.52029,701.48615,145.29736,266.17542,731.7027
76,0.625,45.80986,299.40207,773.2251,83.59788,342.52029,701.48615,145.29736,266.17542,731.7027
77,0.633,46.09313,299.63696,773.69812,83.59788,342.52029,701.48615,145.29736,266.17542,731.7027
78,0.642,46.09313,299.63696,773.69812,83.59788,342.52029,701.48615,145.29736,266.17542,731.7027
79,0.65,46.09313,299.63696,773.69812,83.59788,342.52029,701.48615,145.64108,266.6535,732.07306
80,0.658,46.09313,299.63696,773.69812,83.59788,342.52029,701.48615,145.29736,266.17542,731.7027
81,0.667,46.09313,299.63696,773.69812,83.53355,342.76828,701.64063,145.79056,266.69894,732.05212
82,0.675,46.09313,299.63696,773.69812,83.59788,342.52029,701.48615,145.44688,266.22086,731.68176
83,0.683,46.09313,299.63696,773.69812,83.59788,342.52029,701.48615,145.79056,266.69894,732.05212
84,0.692,46.09313,299.63696,773.69812,83.59788,342.52029,701.48615,145.44688,266.22086,731.68176
85,0.7,46.09313,299.63696,773.69812,83.59788,342.52029,701.48615,145.79056,266.69894,732.05212
86,0.708,46.09313,299.63696,773.69812,83.53355,342.76828,701.64063,145.44688,266.22086,731.68176
87,0.717,46.09313,299.63696,773.69812,83.53355,342.76828,701.64063,145.64108,266.6535,732.07306
88,0.725,46.09313,299.63696,773.69812,83.53355,342.76828,701.64063,145.64108,266.6535,732.07306
89,0.733,46.09313,299.63696,773.69812,83.76324,342.68323,701.70062,145.29736,266.17542,731.7027
90,0.742,46.09313,299.63696,773.69812,83.59788,342.52029,701.48615,145.64108,266.6535,732.07306
91,0.75,46.09313,299.63696,773.69812,83.59788,342.52029,701.48615,145.64108,266.6535,732.07306
92,0.758,46.09313,299.63696,773.69812,83.59788,342.52029,701.48615,145.29736,266.17542,731.7027
93,0.767,45.8665,299.78625,773.86407,83.59788,342.52029,701.48615,145.64108,266.6535,732.07306
94,0.775,46.09313,299.63696,773.69812,83.53355,342.76828,701.64063,145.29736,266.17542,731.7027
95,0.783,46.09313,299.63696,773.69812,83.53355,342.76828,701.64063,145.64108,266.6535,732.07306
96,0.792,46.09313,299.63696,773.69812,83.53355,342.76828,701.64063,145.64108,266.6535,732.07306
97,0.8,46.09313,299.63696,773.69812,83.53355,342.76828,701.64063,145.29736,266.17542,731.7027
98,0.808,46.09313,299.63696,773.69812,83.53355,342.76828,701.64063,145.64108,266.6535,732.07306
99,0.817,45.95606,299.6217,773.71899,83.53355,342.76828,701.64063,145.64108,266.6535,732.07306
100,0.825,45.95606,299.6217,773.71899,83.59788,342.52029,701.48615,145.29736,266.17542,731.7027
101,0.833,45.95606,299.6217,773.71899,83.53355,342.76828,701.64063,145.64108,266.6535,732.07306
102,0.842,45.95606,299.6217,773.71899,83.77863,342.09573,701.72723,145.29736,266.17542,731.7027
103,0.85,45.95606,299.6217,773.71899,83.8276,342.43524,701.54608,145.64108,266.6535,732.07306
104,0.858,45.95606,299.6217,773.71899,83.59788,342.52029,701.48615,145.29736,266.17542,731.7027
105,0.867,46.09313,299.63696,773.69812,83.59788,342.52029,701.48615,145.64108,266.6535,732.07306
106,0.875,46.09313,299.63696,773.69812,83.59788,342.52029,701.48615,145.64108,266.6535,732.07306
107,0.883,46.09313,299.63696,773.69812,83.59788,342.52029,701.48615,145.64108,266.6535,732.07306
108,0.892,46.09313,299.63696,773.69812,83.59788,342.52029,701.48615,145.29736,266.17542,731.7027
109,0.9,45.92389,299.29416,773.43518,83.59788,342.52029,701.48615,145.29736,266.17542,731.7027
110,0.908,46.09313,299.63696,773.69812,83.59788,342.52029,701.48615,145.29736,266.17542,731.7027
111,0.917,45.92389,299.29416,773.43518,83.5489,342.18082,701.66724,145.29736,266.17542,731.7027
112,0.925,45.92389,299.29416,773.43518,83.40041,342.48383,701.54291,145.29736,266.17542,731.7027
113,0.933,45.92389,299.29416,773.43518,83.5489,342.18082,701.66724,145.29736,266.17542,731.7027
114,0.942,45.92389,299.29416,773.43518,83.5489,342.18082,701.66724,145.29736,266.17542,731.7027
115,0.95,45.92389,299.29416,773.43518,83.35143,342.14432,701.72406,145.29736,266.17542,731.7027
116,0.958,45.92389,299.29416,773.43518,83.35143,342.14432,701.72406,145.29736,266.17542,731.7027
117,0.967,45.92389,299.29416,773.43518,83.5489,342.18082,701.66724,145.29736,266.17542,731.7027
118,0.975,45.92389,299.29416,773.43518,83.35143,342.14432,701.72406,145.29736,266.17542,731.7027
119,0.983,45.92389,299.29416,773.43518,83.35143,342.14432,701.72406,145.29736,266.17542,731.7027
120,0.992,45.67276,299.38678,773.24591,83.35143,342.14432,701.72406,145.29736,266.17542,731.7027
121,1,45.67276,299.38678,773.24591,83.35143,342.14432,701.72406,145.29736,266.17542,731.7027
122,1.008,45.67276,299.38678,773.24591,83.40041,342.48383,701.54291,145.29736,266.17542,731.7027
123,1.017,45.67276,299.38678,773.24591,83.40041,342.48383,701.54291,145.29736,266.17542,731.7027
124,1.025,45.67276,299.38678,773.24591,83.40041,342.48383,701.54291,145.48813,265.80679,731.36011
125,1.033,45.67276,299.38678,773.24591,83.40041,342.48383,701.54291,145.29736,266.17542,731.7027
126,1.042,45.67276,299.38678,773.24591,83.40041,342.48383,701.54291,145.29736,266.17542,731.7027
127,1.05,45.67276,299.38678,773.24591,83.40041,342.48383,701.54291,145.64108,266.6535,732.07306
128,1.058,45.67276,299.38678,773.24591,83.40041,342.48383,701.54291,145.29736,266.17542,731.7027
129,1.067,45.65006,299.36932,773.15588,83.40041,342.48383,701.54291,145.5134,266.75021,731.98022
130,1.075,45.67276,299.38678,773.24591,83.40041,342.48383,701.54291,145.64108,266.6535,732.07306
131,1.083,45.70498,299.71432,773.52979,83.40041,342.48383,701.54291,145.64108,266.6535,732.07306
132,1.092,45.67276,299.38678,773.24591,83.40041,342.48383,701.54291,145.64108,266.6535,732.07306
133,1.1,45.67276,299.38678,773.24591,83.40041,342.48383,701.54291,145.5134,266.75021,731.98022
134,1.108,45.95606,299.6217,773.71899,83.35143,342.14432,701.72406,145.29736,266.17542,731.7027
135,1.117,45.70498,299.71432,773.52979,83.35143,342.14432,701.72406,145.29736,266.17542,731.7027
136,1.125,45.6973,299.44339,773.60107,83.35143,342.14432,701.72406,145.29736,266.17542,731.7027
137,1.133,45.92389,299.29416,773.43518,83.35143,342.14432,701.72406,145.29736,266.17542,731.7027
138,1.142,45.95606,299.6217,773.71899,83.35143,342.14432,701.72406,145.29736,266.17542,731.7027
139,1.15,45.95606,299.6217,773.71899,83.35143,342.14432,701.72406,145.29736,266.17542,731.7027
140,1.158,45.95606,299.6217,773.71899,83.35143,342.14432,701.72406,145.29736,266.17542,731.7027
141,1.167,45.95606,299.6217,773.71899,83.40041,342.48383,701.54291,145.29736,266.17542,731.7027
142,1.175,45.95606,299.6217,773.71899,83.35143,342.14432,701.72406,145.29736,266.17542,731.7027
143,1.183,45.95606,299.6217,773.71899,83.35143,342.14432,701.72406,145.64108,266.6535,732.07306
144,1.192,45.95606,299.6217,773.71899,83.35143,342.14432,701.72406,145.29736,266.17542,731.7027
145,1.2,45.95606,299.6217,773.71899,83.35143,342.14432,701.72406,145.29736,266.17542,731.7027
146,1.208,45.95606,299.6217,773.71899,83.35143,342.14432,701.72406,145.29736,266.17542,731.7027
147,1.217,45.95606,299.6217,773.71899,83.33608,342.73178,701.69745,145.64108,266.6535,732.07306
148,1.225,45.95606,299.6217,773.71899,83.40041,342.48383,701.54291,145.64108,266.6535,732.07306
149,1.233,45.95606,299.6217,773.71899,83.40041,342.48383,701.54291,145.64108,266.6535,732.07306
150,1.242,45.95606,299.6217,773.71899,83.59788,342.52029,701.48615,145.29736,266.17542,731.7027
151,1.25,45.95606,299.6217,773.71899,83.59788,342.52029,701.48615,145.6982,266.25775,731.72333
152,1.258,45.95606,299.6217,773.71899,83.33608,342.73178,701.69745,145.29736,266.17542,731.7027
153,1.267,45.70498,299.71432,773.52979,83.59788,342.52029,701.48615,145.29736,266.17542,731.7027
154,1.275,45.70498,299.71432,773.52979,83.59788,342.52029,701.48615,145.29736,266.17542,731.7027
155,1.283,45.70498,299.71432,773.52979,83.40041,342.48383,701.54291,145.29736,266.17542,731.7027
156,1.292,45.80986,299.40207,773.2251,83.59788,342.52029,701.48615,145.29736,266.17542,731.7027
157,1.3,45.92389,299.29416,773.43518,83.40041,342.48383,701.54291,145.48813,265.80679,731.36011
158,1.308,45.92389,299.29416,773.43518,83.59788,342.52029,701.48615,145.29736,266.17542,731.7027
159,1.317,46.06098,299.30945,773.41431,83.59788,342.52029,701.48615,145.44688,266.22086,731.68176
160,1.325,45.80986,299.40207,773.2251,83.59788,342.52029,701.48615,145.29736,266.17542,731.7027
161,1.333,46.06098,299.30945,773.41431,83.59788,342.52029,701.48615,145.63766,265.85226,731.33911
162,1.342,45.80986,299.40207,773.2251,83.59788,342.52029,701.48615,145.44688,266.22086,731.68176
163,1.35,46.06098,299.30945,773.41431,83.59788,342.52029,701.48615,145.44688,266.22086,731.68176
164,1.358,46.06098,299.30945,773.41431,83.59788,342.52029,701.48615,145.63766,265.85226,731.33911
165,1.367,46.06098,299.30945,773.41431,83.59788,342.52029,701.48615,145.44688,266.22086,731.68176
166,1.375,45.80986,299.40207,773.2251,83.59788,342.52029,701.48615,145.63766,265.85226,731.33911
167,1.383,45.80986,299.40207,773.2251,83.59788,342.52029,701.48615,145.63766,265.85226,731.33911
168,1.392,45.80986,299.40207,773.2251,83.59788,342.52029,701.48615,145.63766,265.85226,731.33911
169,1.4,45.80986,299.40207,773.2251,83.59788,342.52029,701.48615,145.44688,266.22086,731.68176
170,1.408,45.80986,299.40207,773.2251,83.59788,342.52029,701.48615,145.44688,266.22086,731.68176
171,1.417,45.80986,299.40207,773.2251,83.59788,342.52029,701.48615,145.29736,266.17542,731.7027
172,1.425,45.80986,299.40207,773.2251,83.59788,342.52029,701.48615,145.63766,265.85226,731.33911
173,1.433,45.80986,299.40207,773.2251,83.59788,342.52029,701.48615,145.44688,266.22086,731.68176
174,1.442,45.80986,299.40207,773.2251,83.59788,342.52029,701.48615,145.44688,266.22086,731.68176
175,1.45,45.80986,299.40207,773.2251,83.59788,342.52029,701.48615,145.44688,266.22086,731.68176
176,1.458,45.80986,299.40207,773.2251,83.59788,342.52029,701.48615,145.44688,266.22086,731.68176
177,1.467,45.80986,299.40207,773.2251,83.77531,342.46341,701.12134,145.16965,266.27213,731.60986
178,1.475,45.80986,299.40207,773.2251,83.59221,342.45847,701.23022,145.29785,266.32147,731.58337
179,1.483,45.80986,299.40207,773.2251,83.77531,342.46341,701.12134,145.29785,266.32147,731.58337
180,1.492,45.80986,299.40207,773.2251,83.77531,342.46341,701.12134,145.29736,266.17542,731.7027
181,1.5,45.67276,299.38678,773.24591,83.57782,342.42697,701.17816,145.29736,266.17542,731.7027
182,1.508,45.52693,299.6749,772.89459,83.59788,342.52029,701.48615,145.16965,266.27213,731.60986
183,1.517,45.52693,299.6749,772.89459,83.40041,342.48383,701.54291,145.16965,266.27213,731.60986
184,1.525,45.52693,299.6749,772.89459,83.38123,342.44589,700.86261,145.5705,266.35446,731.63049
185,1.533,45.65006,299.36932,773.15588,83.2095,342.56464,701.48328,145.3604,265.9035,731.26721
186,1.542,45.52693,299.6749,772.89459,83.2095,342.56464,701.48328,145.3604,265.9035,731.26721
187,1.55,45.52693,299.6749,772.89459,83.38689,342.50781,701.11853,145.16965,266.27213,731.60986
188,1.558,45.52693,299.6749,772.89459,83.2095,342.56464,701.48328,145.16965,266.27213,731.60986
189,1.567,45.4101,299.77747,772.81012,83.38123,342.44589,700.86261,145.3604,265.9035,731.26721
190,1.575,45.52693,299.6749,772.89459,83.17439,342.47482,700.62756,145.16965,266.27213,731.60986
191,1.583,45.30031,299.82413,773.06061,83.18005,342.5368,700.88354,145.16965,266.27213,731.60986
192,1.592,45.52693,299.6749,772.89459,82.99678,342.58777,701.12823,145.16965,266.27213,731.60986
193,1.6,45.4101,299.77747,772.81012,83.17439,342.47482,700.62756,145.16965,266.27213,731.60986
194,1.608,45.52693,299.6749,772.89459,83.18005,342.5368,700.88354,145.16965,266.27213,731.60986
195,1.617,45.18348,299.9267,772.97614,82.99678,342.58777,701.12823,145.16965,266.27213,731.60986
196,1.625,45.52693,299.6749,772.89459,82.99678,342.58777,701.12823,145.16965,266.27213,731.60986
197,1.633,45.4101,299.77747,772.81012,82.99678,342.58777,701.12823,145.1611,266.72244,731.70599
198,1.642,45.4101,299.77747,772.81012,82.99678,342.58777,701.12823,145.16965,266.27213,731.60986
199,1.65,45.52693,299.6749,772.89459,82.99678,342.58777,701.12823,145.16965,266.27213,731.60986
200,1.658,45.52693,299.6749,772.89459,83.18005,342.5368,700.88354,145.3604,265.9035,731.26721
201,1.667,45.30031,299.82413,773.06061,83.18005,342.5368,700.88354,145.16965,266.27213,731.60986
202,1.675,45.52693,299.6749,772.89459,83.18005,342.5368,700.88354,145.16965,266.27213,731.60986
203,1.683,45.52693,299.6749,772.89459,82.99678,342.58777,701.12823,145.16965,266.27213,731.60986
204,1.692,45.52693,299.6749,772.89459,82.99678,342.58777,701.12823,145.16965,266.27213,731.60986
205,1.7,45.52693,299.6749,772.89459,83.2095,342.56464,701.48328,145.16965,266.27213,731.60986
206,1.708,45.52693,299.6749,772.89459,83.2095,342.56464,701.48328,145.16965,266.27213,731.60986
207,1.717,45.52693,299.6749,772.89459,83.2095,342.56464,701.48328,145.16965,266.27213,731.60986
