Frame#,Time,L.Forearm.x,L.Forearm.y,L.Forearm.z,L.Ulna.x,L.Ulna.y,L.Ulna.z,L.Radius.x,L.Radius.y,L.Radius.z
1,0,-1066.55505,329.04483,1005.13855,-1099.68042,395.07281,950.31232,-1077.73206,317.04282,875.67395
2,0.008,-1068.94617,329.50253,1005.14838,-1105.37244,395.60648,952.35852,-1082.0249,315.89728,875.88226
3,0.017,-1070.18408,328.50983,1005.27045,-1106.72241,395.20999,952.87354,-1085.56714,314.51318,876.96228
4,0.025,-1070.51587,328.1463,1005.54205,-1108.62573,394.31409,953.62488,-1087.26624,315.08832,877.53888
5,0.033,-1071.52966,327.35101,1005.2738,-1110.48572,393.3718,953.98663,-1089.10413,314.97476,877.84253
6,0.042,-1071.72754,326.8299,1006.1239,-1112.61707,392.90793,954.91229,-1090.43896,314.95474,878.50043
7,0.05,-1071.72754,326.8299,1006.1239,-1114.68237,392.73718,956.72369,-1094.68665,314.63065,878.89465
8,0.058,-1071.89807,326.1665,1006.11334,-1115.20898,392.04865,957.25677,-1095.75208,314.79871,878.56024
9,0.067,-1071.89807,326.1665,1006.11334,-1115.55225,391.39758,957.62537,-1097.40051,314.94656,879.12384
10,0.075,-1071.89807,326.1665,1006.11334,-1116.28784,390.32242,958.85016,-1098.1698,316.09006,879.95551
11,0.083,-1069.77551,325.51993,1006.19806,-1116.00952,389.99768,959.78827,-1098.1698,316.09006,879.95551
12,0.092,-1068.76282,326.315,1006.46594,-1116.45703,389.96887,961.0979,-1099.7417,316.30389,880.52686
13,0.1,-1066.64404,325.67032,1006.55054,-1116.45703,389.96887,961.0979,-1099.7417,316.30389,880.52686
14,0.108,-1065.15991,327.39816,1006.45026,-1116.14612,390.21155,961.53241,-1097.93274,317.69244,880.44769
15,0.117,-1064.26587,328.04523,1007.07074,-1115.68091,389.12613,961.92841,-1100.78186,316.21158,880.90186
16,0.125,-1063.68921,328.78986,1006.54633,-1115.30151,389.20432,962.00507,-1099.51978,316.32288,880.17407
17,0.133,-1061.19995,328.34747,1005.99536,-1111.86548,388.5737,961.93304,-1098.63306,316.21713,880.73468
18,0.142,-1058.16528,328.32764,1005.71973,-1111.24365,388.75659,962.177,-1097.08411,316.84357,881.29376
19,0.15,-1056.96277,329.19125,1005.4834,-1109.97058,388.87836,962.16119,-1097.07544,316.29037,882.01727
20,0.158,-1054.42603,330.89648,1004.95709,-1109.12036,389.90134,962.84454,-1095.70898,316.07574,882.31586
21,0.167,-1050.06567,330.00766,1003.96216,-1106.15234,391.85971,962.1554,-1094.13745,315.28204,881.87158
22,0.175,-1048.39099,330.71222,1003.16339,-1101.26941,391.89011,961.45898,-1089.48376,317.42807,881.41907
23,0.183,-1044.57275,330.68307,1003.50708,-1099.44543,391.92838,960.84631,-1089.48376,317.42807,881.41907
24,0.192,-1040.49329,332.54874,1002.59827,-1094.40479,391.9808,960.2312,-1086.29626,315.67642,880.72821
25,0.2,-1038.7533,333.04483,1001.63177,-1090.54675,394.17529,959.03979,-1082.35413,317.3862,880.06982
26,0.208,-1031.95361,335.96985,1000.08331,-1088.24585,395.37045,957.89532,-1078.55408,318.36014,878.76141
27,0.217,-1028.62402,338.24738,998.78442,-1082.57385,397.28989,956.45886,-1075.13464,319.79166,877.12439
28,0.225,-1023.65497,336.87531,996.96069,-1077.526,397.03302,954.35193,-1073.04456,319.95291,876.66455
29,0.233,-1018.24066,337.28903,994.94165,-1071.54419,399.40216,952.65662,-1067.85193,320.59534,875.55682
30,0.242,-1013.61902,340.44922,992.75775,-1067.72168,399.38922,950.5,-1062.44824,320.50327,873.50775
31,0.25,-1008.06555,340.00644,991.17767,-1063.36987,403.07089,948.31403,-1056.85791,323.84729,870.81335
32,0.258,-1001.48065,340.70273,989.16089,-1057.8031,403.31815,947.53998,-1050.67761,324.9953,870.14777
33,0.267,-997.5127,342.71381,987.87939,-1049.6145,404.93097,945.12103,-1044.51062,325.60562,868.77502
34,0.275,-989.26227,345.77679,985.88306,-1041.00867,407.07684,944.44873,-1037.78772,327.48654,866.98962
35,0.283,-981.82507,347.78943,985.65759,-1034.92188,407.52026,942.85474,-1032.19165,327.50131,866.13281
36,0.292,-973.61359,348.34,983.02399,-1026.7699,410.14282,942.04492,-1024.32324,330.82904,864.0304
37,0.3,-965.43701,350.12622,982.4906,-1017.41797,412.66193,940.20599,-1014.54767,330.71844,862.38873
38,0.308,-957.29028,352.36169,981.93225,-1009.45203,413.72894,939.01514,-1006.05139,333.04349,860.78973
39,0.317,-947.55762,354.04971,981.22522,-1001.83569,415.10608,939.02155,-996.54279,336.12695,860.09131
40,0.325,-938.11084,355.93289,980.1662,-990.68256,416.37817,938.19128,-987.45184,337.77628,860.11316
41,0.333,-929.35449,358.16501,980.22662,-981.35687,419.5737,937.0932,-976.94946,338.79239,859.38593
42,0.342,-920.19824,357.51709,980.96753,-970.65564,421.55814,937.50793,-965.91479,340.08847,859.77704
43,0.35,-909.0014,360.00534,982.41418,-960.41278,423.37918,937.26715,-954.54236,342.98465,859.71277
44,0.358,-898.6153,363.25827,982.81213,-948.67371,424.52905,937.33063,-942.65497,344.92633,859.82874
45,0.367,-888.44928,362.72003,982.9621,-938.06458,426.97861,936.5484,-930.79639,347.83383,860.37366
46,0.375,-879.39905,364.27185,982.3819,-925.29584,428.74039,936.01489,-918.79456,347.978,860.95026
47,0.383,-867.53699,365.64261,982.71118,-914.66248,430.70859,936.07642,-905.4989,350.69757,860.18121
48,0.392,-854.94196,370.50107,985.22064,-903.27502,432.08026,935.89392,-892.23389,353.09702,860.38867
49,0.4,-844.43207,371.11484,985.37402,-891.12915,435.25772,936.17963,-878.74255,353.81567,860.04865
50,0.408,-833.9281,372.31247,985.17902,-877.77026,435.83447,935.68182,-865.61163,355.4982,860.02411
51,0.417,-822.67023,375.04208,985.06622,-864.86981,438.3063,935.12128,-852.75214,357.60849,860.26898
52,0.425,-809.7713,376.25647,986.24176,-852.61902,439.75778,934.46643,-839.44373,358.87439,858.69617
53,0.433,-798.87195,379.13416,985.31152,-837.69672,442.34927,933.8327,-826.90643,360.52515,858.15033
54,0.442,-786.02203,378.62506,985.95978,-824.69409,444.24203,933.18134,-811.63354,362.32037,858.49249
55,0.45,-775.22791,379.52206,987.23511,-810.71259,445.78876,932.3725,-797.1684,362.74158,859.54303
56,0.458,-762.80383,380.69547,987.49268,-796.77911,446.17603,931.80676,-782.58307,365.72592,859.42828
57,0.467,-750.12665,381.96719,988.0249,-782.6579,447.64798,932.73816,-767.20233,366.44324,860.43713
58,0.475,-738.36896,383.36401,988.36835,-768.21271,449.55826,931.92218,-753.58765,367.51602,859.91382
59,0.483,-725.60913,382.76941,988.10126,-754.27722,451.86826,931.55725,-737.95575,367.78387,860.24005
60,0.492,-712.75946,385.08417,989.89044,-738.68427,452.24136,932.6391,-722.50946,370.24374,861.4613
61,0.5,-701.28113,385.47488,990.77063,-725.2345,452.02701,933.14032,-707.39374,370.29257,861.84723
62,0.508,-689.80408,386.8233,992.4165,-712.11371,454.6832,934.505,-691.71783,371.0571,863.47607
63,0.517,-675.76636,386.43985,994.12787,-698.07092,455.22659,934.05481,-677.49567,372.89261,864.47864
64,0.525,-664.08759,387.49231,995.81537,-683.62872,455.85422,934.70837,-660.61664,373.4942,865.50238
65,0.533,-651.98151,389.62003,997.6983,-670.89337,456.31094,936.45087,-645.57355,373.56686,868.65765
66,0.542,-639.11377,392.05737,999.17883,-656.90918,457.43637,937.72711,-631.03717,373.45413,869.25098
67,0.55,-627.53278,393.23611,1000.08191,-643.77014,458.6218,938.56097,-614.97211,374.26315,872.17004
68,0.558,-615.40326,391.84625,1002.82611,-630.44562,459.05115,939.5141,-600.65491,376.02777,874.86499
69,0.567,-603.7049,393.7467,1003.66406,-617.99792,459.67245,941.4718,-584.58344,376.11435,876.43219
70,0.575,-591.69312,393.87378,1006.57947,-606.22998,460.0329,942.06854,-570.37909,376.19333,879.24091
71,0.583,-580.33118,395.05286,1008.15149,-593.64557,460.53247,944.18005,-555.2995,377.30267,881.68134
72,0.592,-568.04175,394.04907,1008.93713,-580.3656,459.4884,945.54645,-540.27588,377.50879,884.39813
73,0.6,-557.10919,394.66397,1011.31293,-568.20923,459.7764,946.40326,-527.12012,376.86832,886.11273
74,0.608,-545.98444,394.26617,1013.85266,-556.66583,458.83511,949.04749,-512.36554,377.05054,889.1803
75,0.617,-534.20264,394.2215,1014.86987,-545.1875,459.33289,950.4433,-498.32248,376.88089,892.13635
76,0.625,-523.55933,395.02011,1017.32642,-532.84033,458.33408,951.40247,-484.6377,376.21445,894.44489
77,0.633,-512.30859,392.77182,1019.18134,-520.79218,457.03207,952.89563,-470.38974,376.07703,897.07727
78,0.642,-500.67014,393.51749,1021.51801,-509.91449,456.1239,953.64264,-458.40396,375.81094,899.3913
79,0.65,-490.19312,394.32471,1022.92944,-498.05466,455.51212,956.59436,-445.02478,375.88138,902.14734
80,0.658,-479.93961,391.98862,1025.19385,-487.55801,456.02963,958.13776,-433.85767,374.87561,905.46185
81,0.667,-469.71832,389.11542,1026.2312,-476.06516,454.32751,959.50751,-420.69772,372.82953,906.8493
82,0.675,-459.60422,390.34354,1028.3042,-465.38449,452.34277,961.61133,-409.56406,372.15213,909.64807
83,0.683,-450.09531,389.30334,1029.87158,-455.90817,452.06912,962.91949,-397.5239,371.73721,912.25043
84,0.692,-440.37387,386.52792,1030.30066,-443.54535,450.78339,963.73657,-385.15884,370.92935,914.40051
85,0.7,-430.55798,384.54565,1032.59094,-432.52359,449.03207,964.77722,-374.82916,368.84164,916.65314
86,0.708,-421.89459,384.22681,1033.98413,-423.07367,446.85107,967.23425,-364.88745,366.29501,918.70221
87,0.717,-413.34753,382.77124,1034.93982,-413.17392,446.39847,968.41998,-355.55515,364.87012,920.22992
88,0.725,-405.23419,380.3735,1036.62158,-404.12207,445.12762,969.67688,-345.43323,363.7554,922.20422
89,0.733,-396.5784,377.69208,1038.01721,-395.16,441.87128,971.54547,-336.74265,361.521,924.6189
90,0.742,-390.00211,374.50528,1038.19629,-385.61969,441.22351,972.14203,-328.24567,358.7449,926.24536
91,0.75,-381.65649,374.36502,1039.6217,-378.19064,438.27753,974.02441,-320.04929,355.49026,927.22742
92,0.758,-374.98969,372.16711,1040.49768,-369.6174,437.48373,974.35736,-312.34531,354.61151,929.01514
93,0.767,-368.45322,369.07642,1040.70239,-361.72333,435.11203,974.99365,-304.379,351.94952,929.42065
94,0.775,-359.97382,366.31979,1041.02869,-354.51868,432.827,976.13232,-298.49493,349.53979,930.0401
95,0.783,-355.80771,364.29514,1040.99841,-347.4364,430.45996,976.31091,-291.36362,347.37506,930.43756
96,0.792,-350.74365,360.46167,1041.15002,-340.51221,428.86679,977.38293,-285.68176,345.16141,930.93982
97,0.8,-342.23141,360.82056,1040.72412,-333.71725,425.65192,977.37622,-279.23273,342.52057,931.91705
98,0.808,-337.59799,356.29495,1040.46252,-327.37683,423.90665,977.76495,-273.56299,339.09842,931.31287
99,0.817,-332.53717,353.65506,1040.39209,-320.81631,420.96649,977.09052,-269.45041,336.8364,930.50073
100,0.825,-328.21271,350.74252,1039.3634,-316.13489,419.05511,977.06366,-264.15436,334.0834,930.21692
101,0.833,-323.38693,347.94162,1039.21484,-310.83737,415.92056,977.26813,-259.58871,331.23825,928.64105
102,0.842,-319.4761,344.99615,1037.40247,-305.71353,413.8699,977.08795,-256.13315,328.37338,927.87427
103,0.85,-315.90778,342.13406,1036.65588,-300.81937,410.79904,975.97571,-252.03618,327.3613,927.30341
104,0.858,-311.85434,341.4407,1035.38806,-296.80777,408.49118,975.1142,-250.25691,323.0853,925.97522
105,0.867,-308.45386,336.34592,1034.6897,-293.67725,406.43457,974.77411,-246.2892,321.86661,924.45941
106,0.875,-305.40378,334.77823,1033.97864,-290.90042,403.95621,973.72015,-245.00766,318.96686,923.10724
107,0.883,-302.75598,331.68317,1032.84351,-287.67035,401.04141,973.38293,-243.25107,316.34946,922.57263
108,0.892,-300.7067,329.86542,1031.40369,-286.42618,398.4429,971.79156,-241.25771,313.75391,920.13123
109,0.9,-299.15726,327.21796,1030.42456,-285.33966,397.186,970.2132,-239.46638,311.422,919.1087
110,0.908,-297.60049,324.70044,1028.78796,-284.52481,394.43317,968.20862,-239.14819,309.06979,916.72394
111,0.917,-295.63339,323.63245,1027.90564,-283.81073,391.58423,967.66217,-238.84995,307.80066,915.18933
112,0.925,-293.16074,320.9343,1026.26233,-282.39938,389.03253,966.32654,-238.4664,304.55676,913.93127
113,0.933,-291.75723,319.936,1025.604,-282.60037,388.28104,965.43536,-237.77342,303.28879,912.87018
114,0.942,-290.25772,317.38904,1025.27991,-282.9064,386.05865,964.62238,-237.58894,301.10092,911.05042
115,0.95,-289.17877,314.49619,1025.10388,-283.71469,384.43161,963.17133,-237.74945,300.33038,909.61548
116,0.958,-287.59253,313.34375,1023.46454,-284.48611,382.40021,962.17603,-239.74057,298.84805,909.39349
117,0.967,-286.71146,312.93521,1023.56519,-285.64572,380.87048,961.91089,-241.99216,296.52997,907.57861
118,0.975,-285.82748,310.01434,1023.56525,-287.21149,378.76422,960.20001,-242.48816,295.93341,906.01318
119,0.983,-285.88596,309.29767,1023.53229,-288.25159,377.91266,960.0979,-243.30238,294.64789,904.05829
120,0.992,-286.17609,308.07092,1023.11505,-290.78195,375.21503,960.26135,-245.62369,293.32532,902.95868
121,1,-286.31653,306.24435,1022.49512,-291.92529,373.64255,959.32465,-249.30644,292.06232,901.63434
122,1.008,-287.00314,304.48602,1021.55414,-293.37677,373.4978,959.17621,-250.40491,290.84802,899.93988
123,1.017,-288.26996,302.85077,1020.88318,-297.4863,370.56601,957.758,-254.73357,288.83432,898.13251
124,1.025,-288.06628,302.07779,1019.44385,-299.09769,370.05481,958.13,-255.79022,288.53894,897.09277
125,1.033,-289.47855,300.24246,1018.66296,-302.53351,368.34473,956.96112,-259.04944,287.7807,895.0567
126,1.042,-289.74969,300.00162,1018.30786,-304.73322,367.01474,956.28687,-262.85818,286.58383,892.89166
127,1.05,-290.30222,298.21024,1017.31433,-306.53659,366.05914,955.75275,-264.4772,285.11511,891.74146
128,1.058,-291.66174,295.43887,1016.3374,-309.75491,363.90909,955.18628,-269.00833,284.92966,890.39301
129,1.067,-291.60788,294.27444,1015.38184,-311.77982,362.77136,954.95728,-272.00281,283.68701,889.32367
130,1.075,-293.93378,293.88321,1014.80353,-314.3688,362.06442,955.33954,-276.3038,282.20047,887.82422
131,1.083,-295.97665,292.30615,1013.78912,-317.52881,360.30527,954.87933,-280.65857,280.60748,886.77118
132,1.092,-297.83365,290.91721,1013.23877,-319.39075,359.23407,955.36438,-283.56296,280.31824,886.5011
133,1.1,-298.17545,290.63919,1013.0556,-322.06482,357.78952,955.19397,-287.62375,279.10233,885.63806
134,1.108,-299.24796,288.32257,1013.00629,-323.97409,356.91119,955.3634,-292.09311,278.62531,884.74805
135,1.117,-301.83801,286.83823,1012.49182,-328.01056,355.57803,956.06232,-297.95157,277.11316,884.35516
136,1.125,-303.6951,286.27509,1012.13416,-329.47748,354.74878,956.73541,-302.30698,275.93222,884.63098
137,1.133,-304.27637,284.86856,1012.07007,-332.66711,353.65433,957.42493,-305.68927,274.59552,882.8645
138,1.142,-304.88681,284.18036,1011.75092,-335.5816,352.4097,957.51367,-309.01379,274.66217,883.09637
139,1.15,-306.47195,281.46118,1011.65851,-337.76303,351.80899,957.76221,-314.1196,273.76703,883.43561
140,1.158,-308.20563,281.5827,1011.58673,-340.56265,351.0733,958.62378,-315.59732,271.99258,882.97809
141,1.167,-309.55621,281.22052,1011.67566,-341.72409,349.96298,958.8385,-320.78839,271.54398,883.28046
142,1.175,-309.3338,281.16794,1011.70807,-345.73383,350.02826,958.84814,-325.79794,270.93918,883.80377
143,1.183,-310.25601,280.49353,1012.17206,-347.23486,348.66281,960.49487,-326.32373,270.77274,883.98615
144,1.192,-311.45599,279.6463,1012.33923,-349.40109,348.08212,961.33112,-330.60678,270.59311,884.25189
145,1.2,-311.62506,279.06174,1012.36426,-350.97168,347.91052,962.11597,-333.08078,268.19879,884.73187
146,1.208,-312.06802,278.52661,1012.71027,-352.58148,347.25217,962.9303,-336.49774,268.57724,885.43439
147,1.217,-313.22662,277.88754,1012.49237,-352.97775,345.64926,963.84631,-337.91141,267.69363,885.46704
148,1.225,-313.54028,278.04056,1012.88635,-354.88629,345.5433,964.61133,-341.75357,268.0556,885.68835
149,1.233,-313.38657,277.91882,1013.00824,-356.67169,345.57779,965.41821,-342.75742,268.07043,886.91992
150,1.242,-313.35876,276.99139,1013.62482,-357.07639,345.08246,966.5957,-344.0816,268.1171,888.0437
151,1.25,-313.3537,277.00156,1013.65375,-357.43469,344.52039,966.85913,-346.4256,267.27167,888.36176
152,1.258,-311.66104,277.83801,1013.9267,-358.00201,344.72443,967.47723,-348.08447,267.11008,888.83826
153,1.267,-311.10544,278.13718,1014.47357,-357.36197,344.72543,969.03857,-348.17334,267.30298,889.14575
154,1.275,-310.06464,278.01294,1014.31714,-357.44012,344.63785,969.7417,-348.1517,268.40842,891.27197
155,1.283,-307.7709,277.7323,1014.34546,-356.802,344.41864,970.01764,-348.76627,267.90479,891.42847
156,1.292,-306.2998,278.8931,1014.17267,-354.91876,344.88159,971.23163,-347.07581,268.98981,891.18018
157,1.3,-305.45816,279.44043,1014.44116,-353.71161,345.15567,971.62408,-346.89713,268.20001,891.6405
158,1.308,-301.17032,280.5589,1013.87793,-352.09448,345.0531,971.51929,-345.6973,268.3988,891.83295
159,1.317,-300.46722,280.79987,1013.33923,-350.0997,345.4155,971.33337,-344.38849,268.46866,892.23956
160,1.325,-296.0415,281.61826,1013.21649,-347.89917,346.26587,971.81549,-342.36957,268.66873,893.29565
161,1.333,-294.3107,282.82181,1012.53448,-344.95737,346.77191,971.00482,-340.40576,269.51273,891.89502
162,1.342,-290.21997,283.04559,1012.02551,-342.57007,347.15988,970.29626,-337.17038,269.84103,892.34528
163,1.35,-287.19824,284.14975,1011.39917,-339.07227,348.25735,969.30103,-335.41507,271.05591,890.88251
164,1.358,-283.34988,285.25397,1010.29443,-335.27231,349.31125,968.85974,-330.8237,272.36783,890.48285
165,1.367,-279.15631,286.12781,1009.01306,-330.71381,350.37952,967.82684,-326.77295,272.27209,889.02087
166,1.375,-273.21335,288.25458,1007.82214,-326.45004,351.4158,964.85809,-324.6604,271.78049,888.42682
167,1.383,-270.39722,288.19235,1004.75464,-323.44128,352.64746,963.35284,-319.8158,273.76602,886.117
168,1.392,-265.94043,290.48862,1003.83716,-317.8869,353.79303,961.98096,-313.62662,275.06958,885.31757
169,1.4,-259.77255,291.5603,1001.74213,-311.62421,356.15344,959.72308,-308.6106,276.27289,882.70905
170,1.408,-254.00523,293.81741,999.82324,-306.61746,356.3107,958.12451,-303.67282,276.4501,880.78619
171,1.417,-247.59569,294.75906,996.26428,-299.94171,357.9903,955.20551,-298.08832,278.60321,878.69006
172,1.425,-240.01823,297.5564,995.15253,-292.75076,359.74255,953.70502,-291.2749,280.59808,876.52637
173,1.433,-233.37071,299.70865,993.3576,-285.77203,362.26758,950.91827,-284.34061,282.37625,873.6283
174,1.442,-226.04601,300.62042,991.43457,-278.27496,364.06677,948.52496,-276.40808,283.82416,872.23193
175,1.45,-218.84814,301.07864,988.62427,-269.67194,365.37402,946.2854,-269.07443,285.54053,870.36102
176,1.458,-208.92822,302.54303,987.57074,-261.03125,367.22537,944.89221,-259.19922,287.7706,869.29675
177,1.467,-201.53297,305.35803,987.11029,-251.86055,369.54059,943.37079,-249.991,289.93073,867.44794
178,1.475,-190.77435,308.12057,985.69305,-242.46292,371.31949,942.43036,-239.68036,290.67136,866.40955
179,1.483,-181.50209,310.17551,985.17725,-232.19623,373.15155,941.06403,-228.73476,292.57343,865.79169
180,1.492,-170.59947,311.27899,985.43341,-221.49327,375.06403,940.40875,-218.18945,294.62183,863.7063
181,1.5,-159.93723,313.10947,985.03265,-210.14958,377.05713,939.33264,-206.6217,298.37891,863.13281
182,1.508,-149.2377,314.26151,984.00128,-198.79607,378.70505,938.87048,-196.68678,298.11597,862.47302
183,1.517,-139.461,315.81229,984.46967,-187.23689,380.71225,937.66498,-187.14487,299.74066,862.68433
184,1.525,-128.69948,316.94168,984.17847,-176.06708,383.31107,937.02423,-169.00536,303.72382,861.74567
185,1.533,-118.74013,320.65506,984.14917,-162.75786,385.04651,937.13239,-158.4919,304.29721,861.24176
186,1.542,-104.96187,321.42166,983.75146,-150.72176,387.51486,936.17554,-143.6796,307.43146,861.23792
187,1.55,-94.13665,323.57135,984.53485,-138.1189,389.64536,935.69281,-134.94414,307.27704,861.3139
188,1.558,-83.27973,324.52936,984.49506,-124.91862,391.66949,934.22266,-121.79865,308.39697,860.69556
189,1.567,-70.91295,326.67685,984.58167,-112.2065,393.90106,933.83716,-105.58639,312.04199,860.38562
190,1.575,-59.59728,328.76587,984.98651,-97.35596,395.19788,933.54523,-92.29661,311.43713,859.60181
191,1.583,-47.93242,329.52591,985.64972,-84.30659,398.02261,933.10638,-76.59717,314.57645,860.09003
192,1.592,-35.83442,331.24753,986.64404,-69.5648,398.48441,932.78967,-63.97146,316.39728,858.77087
193,1.6,-22.67536,331.55426,986.12439,-56.1744,400.35278,932.83643,-47.35938,318.63797,859.69415
194,1.608,-10.46806,332.78091,987.71948,-41.1832,402.95541,932.63623,-34.03836,319.70865,859.63574
