Frame#,Time,L.Forearm.x,L.Forearm.y,L.Forearm.z,L.Ulna.x,L.Ulna.y,L.Ulna.z,L.Radius.x,L.Radius.y,L.Radius.z
1,0,139.87025,213.99271,911.75189,107.98707,235.71574,833.07275,175.09308,219.07718,764.1745
2,0.008,139.36125,214.57973,911.91333,107.65459,236.34425,833.34399,175.00261,220.4973,764.48187
3,0.017,138.95787,214.91386,912.47766,107.26134,236.36664,833.24115,174.63414,221.18712,764.72693
4,0.025,138.7791,215.5276,912.46472,106.68476,236.50563,833.26483,174.32532,221.84251,764.52698
5,0.033,138.73018,215.92833,912.61469,105.9793,236.13187,833.51715,174.8302,222.61835,764.61261
6,0.042,138.23758,216.90584,912.99652,106.12676,236.37846,833.44812,174.31351,223.00436,764.56171
7,0.05,138.10042,217.02945,913.11206,105.99151,236.46898,833.38672,174.67117,223.92372,764.77502
8,0.058,138.11694,217.36049,913.08649,105.87032,236.51501,833.53809,174.6032,224.06148,764.96179
9,0.067,138.25597,217.55592,913.08313,105.82099,236.86792,833.4223,174.62523,224.66864,765.23523
10,0.075,138.53644,217.75356,913.19928,106.12253,236.83208,833.51489,175.09912,225.25087,765.32007
11,0.083,138.29401,218.13251,913.21063,106.12475,236.94139,833.96344,175.51555,225.47163,765.58832
12,0.092,138.29401,218.13251,913.21063,106.25778,236.74159,833.57629,175.49043,224.64474,765.38055
13,0.1,138.56032,217.60088,913.33704,106.3812,236.80487,833.87347,175.84384,224.67183,765.45172
14,0.108,138.56032,217.60088,913.33704,107.12538,236.75117,833.89819,176.30621,223.78116,765.16504
15,0.117,139.52843,217.89279,913.35565,107.65459,236.34425,833.34399,176.30008,222.09056,765.16797
16,0.125,139.47784,217.71388,913.17523,107.82169,236.30824,833.55035,176.93631,221.53925,764.87708
17,0.133,139.42294,216.22379,912.94342,108.2258,236.14679,833.12152,175.56787,219.22098,764.12799
18,0.142,139.63818,215.68222,912.46472,108.0587,236.18274,832.9151,175.70932,218.82545,764.0426
19,0.15,139.90343,214.6144,911.45209,108.0587,236.18274,832.9151,175.666,218.55418,763.99414
20,0.158,140.1627,213.97516,910.83636,108.14561,236.09967,832.35687,175.16304,218.42351,763.24286
21,0.167,139.868,213.95876,910.42346,108.14561,236.09967,832.35687,174.77167,218.65025,763.33582
22,0.175,139.65152,213.916,910.04736,107.48138,235.73271,832.18042,174.46236,218.88126,762.86414
23,0.183,139.08443,214.0114,910.11682,106.92741,235.79199,832.02252,174.46236,218.88126,762.86414
24,0.192,138.39825,213.45586,910.30975,105.73713,235.03203,832.12805,173.75829,218.83134,762.45544
25,0.2,137.77936,214.23164,910.67432,104.36089,235.30539,831.82294,173.22574,220.57677,763.3692
26,0.208,137.24445,214.92943,911.45288,104.13538,235.53746,832.0343,173.28984,221.87578,764.33862
27,0.217,136.96509,214.9286,911.51727,103.36223,235.61018,832.31775,173.086,222.323,764.66235
28,0.225,136.35365,215.77217,911.77759,103.25211,235.63489,832.45618,172.78458,222.44691,764.78473
29,0.233,135.39015,217.13487,911.95007,103.25211,235.63489,832.45618,172.74286,223.14217,765.19098
30,0.242,135.54173,217.40831,912.32172,103.13146,235.75853,832.26294,172.45758,223.87059,765.4621
31,0.25,135.37701,217.78407,911.99548,103.25211,235.63489,832.45618,172.9059,223.73714,765.44263
32,0.258,135.61757,217.60268,912.09473,103.25211,235.63489,832.45618,173.3412,223.46072,765.16925
33,0.267,136.29466,217.78326,912.61859,103.25211,235.63489,832.45618,174.10301,222.95915,764.91541
34,0.275,136.50151,217.69679,912.53607,103.78944,235.74434,832.32794,174.16687,223.14709,764.68939
35,0.283,136.82561,217.59642,912.54987,105.23613,236.07361,833.09961,174.8306,222.61789,764.84241
36,0.292,137.27077,216.39542,913.06531,105.82047,236.19388,833.18451,174.72916,220.94812,764.79681
37,0.3,137.8428,215.48291,912.25073,106.1357,236.10797,832.88196,174.72916,220.94812,764.79681
38,0.308,137.8428,215.48291,912.25073,106.90078,235.89662,832.40997,175.51962,219.66611,764.24359
39,0.317,137.87465,215.41443,911.72546,106.90078,235.89662,832.40997,175.37071,219.78352,764.17194
40,0.325,138.42233,215.25574,911.75079,107.1199,235.80177,832.20911,175.42923,219.42499,763.86426
41,0.333,137.90771,214.6769,911.55127,106.67522,235.47472,832.04559,175.20207,220.28557,763.89484
42,0.342,137.24759,215.03616,911.31885,105.88459,235.27878,832.05908,174.34477,220.69598,762.50317
43,0.35,137.24759,215.03616,911.31885,105.24272,235.22635,832.19501,173.57378,221.12535,762.88092
44,0.358,137.11302,215.11769,911.26636,104.13538,235.53746,832.0343,173.57378,221.12535,762.88092
45,0.367,137.11302,215.11769,911.26636,103.64805,235.60477,832.05682,173.0675,222.15825,763.21991
46,0.375,136.64392,215.13585,911.36945,103.19691,235.60027,832.15112,172.66571,222.53731,763.39752
47,0.383,135.7735,215.45563,911.76587,103.0868,235.62498,832.28955,171.98155,222.2952,764.52081
48,0.392,135.53128,215.8347,911.7774,102.79699,235.26735,832.28613,171.72002,222.59439,764.92822
49,0.4,135.48079,216.11984,911.91803,102.47472,235.2097,832.61877,171.48235,222.92438,765.28577
50,0.408,135.04865,216.42438,912.61627,102.47472,235.2097,832.61877,171.61452,223.13937,765.45465
51,0.417,134.91016,216.77859,913.19751,102.64006,235.2196,832.7854,171.61452,223.13937,765.45465
52,0.425,134.91016,216.77859,913.19751,102.47472,235.2097,832.61877,172.01422,222.55159,765.2746
53,0.433,134.91016,216.77859,913.19751,102.47472,235.2097,832.61877,171.9882,222.83481,765.29095
54,0.442,134.91016,216.77859,913.19751,102.805,235.18149,832.78955,171.74698,221.69524,764.94965
55,0.45,135.03676,216.14699,912.94629,102.805,235.18149,832.78955,172.5105,220.92145,764.88916
56,0.458,135.28798,214.77507,912.29358,103.2467,235.07962,833.01532,173.07597,220.38812,764.89374
57,0.467,135.42508,214.65143,912.17792,103.88242,235.03279,832.92682,173.1839,220.33051,764.75024
58,0.475,136.40334,214.5726,911.8772,104.55949,235.27141,832.30573,173.43982,219.42372,764.21783
59,0.483,136.70435,213.70895,911.54993,104.96516,234.59975,832.26874,172.94054,219.32602,763.91211
60,0.492,136.60915,213.79507,911.47961,104.70894,234.66631,832.33038,172.72546,219.9012,763.22137
61,0.5,136.07195,214.44833,911.46252,103.70354,235.01546,832.3006,172.02034,220.12396,762.50122
62,0.508,135.59946,214.36292,911.02649,102.79179,235.10155,831.93799,171.55798,221.3732,762.93811
63,0.517,135.60252,214.46957,910.89233,102.34707,234.91414,831.85168,171.54912,222.83269,763.59283
64,0.525,135.07184,215.35031,911.30157,102.15554,235.06534,831.86407,171.54912,222.83269,763.59283
65,0.533,134.81953,215.76384,911.18652,101.99025,235.0555,831.69745,171.02524,223.35194,763.70874
66,0.542,134.03076,216.804,911.98236,101.91496,235.2887,831.64545,171.02492,223.02565,763.75739
67,0.55,133.55627,217.61748,911.99231,101.52296,235.31898,831.89001,170.64635,223.16365,764.08221
68,0.558,133.53796,217.6776,912.17688,101.49237,235.82634,832.33459,170.4462,223.60345,764.66479
69,0.567,133.53796,217.6776,912.17688,101.9128,235.39319,832.69562,170.60457,223.13968,764.72113
70,0.575,133.93002,217.43532,912.8515,102.01855,235.50819,832.36755,170.14188,222.7588,764.97162
71,0.583,133.67194,216.72789,912.97144,102.49194,235.35181,832.81451,170.32019,221.99721,764.71552
72,0.592,134.00423,216.18498,912.91583,102.71098,235.25676,832.61359,170.58257,220.89851,765.0379
73,0.6,134.31044,215.1926,912.5376,103.05701,235.13457,833.00958,171.26701,220.28491,764.93701
74,0.608,135.00037,214.56981,912.18158,103.2147,235.20306,832.64594,171.7601,219.34537,764.64349
75,0.617,135.25552,213.99971,911.67139,103.40441,235.14812,832.65161,171.68115,219.04057,764.20105
76,0.625,135.39261,213.87601,911.55566,103.08427,234.9771,832.22614,171.47276,219.12254,764.17987
77,0.633,135.55713,213.72664,911.17078,102.51791,234.57039,831.94379,170.96904,220.49805,764.19073
78,0.642,135.43488,213.32457,910.63934,102.51791,234.57039,831.94379,171.06081,220.12473,763.4057
79,0.65,135.19673,213.47116,910.64258,102.06642,234.51521,831.39215,171.03307,220.80646,762.85168
80,0.658,134.79106,214.33347,910.25555,101.71136,234.48463,830.82684,170.53824,221.47916,763.07019
81,0.667,134.38998,214.48799,910.46136,101.55817,234.48412,830.86072,170.13689,222.26508,763.5979
82,0.675,134.10371,214.89816,910.45093,101.55817,234.48412,830.86072,170.13689,222.26508,763.5979
83,0.683,133.76144,215.35522,910.23627,101.43704,234.60756,830.66766,169.7914,222.68076,763.58771
84,0.692,133.60123,216.49719,911.11908,100.88077,234.92061,830.61078,170.03514,222.7468,763.63837
85,0.7,132.49307,217.52336,911.99585,100.60189,234.9769,830.71667,170.02896,223.03575,763.93018
86,0.708,132.58267,217.89766,911.71027,100.35235,235.21227,830.70068,169.9523,223.24406,763.83533
87,0.717,132.58267,217.89766,911.71027,100.35957,235.46922,831.12653,169.90622,223.56001,764.12341
88,0.725,132.58267,217.89766,911.71027,100.61039,235.62831,831.37921,169.90622,223.56001,764.12341
89,0.733,132.83327,217.8392,911.77173,100.64015,235.80826,831.73529,170.29002,223.59074,764.33862
90,0.742,132.58267,217.89766,911.71027,100.78371,236.09703,832.01666,170.13025,223.25627,764.27924
91,0.75,132.83327,217.8392,911.77173,101.35799,235.96991,831.85101,170.27081,223.22275,764.61292
92,0.758,133.06914,217.66768,912.15643,101.68029,235.41461,831.55328,170.58026,222.00723,764.62219
93,0.767,133.07809,217.04451,912.23126,102.18794,235.18636,831.74573,171.18538,220.58763,764.39801
94,0.775,134.25356,215.62531,911.99847,102.56657,235.09329,832.14484,171.47276,219.12254,764.17987
95,0.783,134.30621,215.32306,911.12628,102.48571,234.93683,831.98071,171.80002,218.97385,764.03735
96,0.792,134.90181,213.91791,910.42969,102.90903,235.12265,831.93427,170.65047,216.67831,763.21625
97,0.8,134.85841,213.02399,909.98608,102.56574,234.57762,831.08344,170.15802,216.65709,763.24115
98,0.808,135.0414,212.77693,909.78821,102.10995,234.21133,830.65466,169.42165,217.27281,762.96466
99,0.817,134.63397,212.26274,909.63281,101.956,234.34303,830.44556,169.42165,217.27281,762.96466
100,0.825,134.44078,212.23383,909.47675,101.55762,234.6627,830.5835,170.31136,220.39914,763.59741
101,0.833,134.03719,212.74585,909.41895,101.00715,234.78885,830.57324,169.78224,221.36858,763.48322
102,0.842,132.96886,214.64001,909.68561,100.39027,235.15901,830.67572,169.17461,222.68188,764.08612
103,0.85,132.46484,215.32735,909.73889,99.83746,235.36369,830.46924,168.88258,222.65424,763.81451
104,0.858,132.1407,216.01151,909.98743,99.2216,235.22867,830.6684,168.88258,222.65424,763.81451
105,0.867,131.58038,218.3035,911.3382,98.90872,235.13438,831.1062,168.83662,222.97034,764.10266
106,0.875,131.28006,218.31885,911.63086,97.86225,235.79662,831.4657,168.28517,223.54037,764.78534
107,0.883,131.17146,218.35303,911.88812,97.94244,236.51569,831.81183,168.13541,224.01457,764.75006
108,0.892,131.17146,218.35303,911.88812,98.91949,236.33452,832.23395,167.8165,224.11066,764.9505
109,0.9,131.3588,218.29425,912.10046,99.3151,236.73453,832.83051,168.45972,223.76711,764.9679
110,0.908,132.1918,217.79207,912.09668,99.66871,236.65781,832.80627,169.24297,223.27222,764.84827
111,0.917,132.07567,217.33398,912.68781,100.06917,236.50635,832.83539,169.64192,222.56337,765.30566
112,0.925,132.20354,216.99393,912.77991,100.43351,236.64374,832.71753,169.81372,222.13264,764.99762
113,0.933,132.33022,216.82608,912.71045,100.82204,236.0098,832.34363,169.99031,221.89619,764.93982
114,0.942,132.47809,216.91798,912.58478,101.07092,235.97159,832.38776,170.67809,222.25507,765.09558
115,0.95,132.51523,216.98555,912.49719,101.87864,235.82616,831.76898,171.78128,220.98119,764.51788
116,0.958,132.52573,217.22346,912.21429,101.80412,235.59645,831.59747,171.6176,220.50572,764.2738
117,0.967,133.40752,216.31454,911.44708,102.08109,235.32306,831.61115,171.83472,219.65848,763.58295
118,0.975,133.86737,215.7222,910.51331,101.95286,235.16168,831.37244,171.4196,220.18576,763.44391
119,0.983,133.71539,215.44868,910.14142,101.94375,235.10179,831.1311,171.21817,220.25844,763.42993
120,0.992,133.76572,214.83032,909.29352,101.79812,234.84619,830.89331,170.80441,220.28706,763.29968
121,1,133.5528,214.60135,909.43549,101.28687,234.97244,830.52771,170.60327,220.31377,763.33063
122,1.008,132.71925,214.20045,909.25415,100.44723,235.21815,830.59302,170.07082,220.69437,763.091
123,1.017,132.25623,214.53572,909.38745,100.13904,235.32736,830.56189,169.25381,221.46025,763.54761
124,1.025,132.13062,214.63116,909.31586,99.6086,235.14392,830.63879,169.00198,222.81209,764.28821
125,1.033,131.56088,215.34581,910.08759,99.06412,235.16014,831.03186,168.70711,222.9933,764.43976
126,1.042,130.88081,216.10739,911.12714,98.90872,235.13438,831.1062,168.73912,222.69594,764.4115
127,1.05,131.08791,217.22415,911.7182,98.86649,235.20496,831.34943,168.73912,222.69594,764.4115
128,1.058,130.92331,217.44084,912.1601,98.86649,235.20496,831.34943,168.69315,223.01196,764.69965
129,1.067,131.15437,217.78523,912.18628,98.86649,235.20496,831.34943,169.2896,222.33865,764.89435
130,1.075,131.15437,217.78523,912.18628,99.07944,235.14981,831.29987,169.2896,222.33865,764.89435
131,1.083,131.2115,217.45476,912.32446,100.10893,234.61134,831.25708,169.70667,222.1192,765.11389
132,1.092,131.67513,217.26115,912.19769,100.3258,234.9006,831.68219,169.88908,221.8522,765.04755
133,1.1,132.01065,215.85294,912.40332,100.67654,234.99696,831.43237,170.14349,221.07503,765.24597
134,1.108,132.61154,214.7381,911.59705,101.88615,234.91669,831.45532,170.33549,220.81325,764.92371
135,1.117,133.51778,214.56306,911.1723,102.2121,234.77078,831.62988,171.29048,219.14777,764.20679
136,1.125,133.3826,213.63144,910.87274,102.2121,234.77078,831.62988,171.59161,219.05585,764.01624
137,1.133,133.75912,213.30199,910.84198,102.54295,234.66698,831.41577,172.35526,218.44153,763.87067
138,1.142,133.93787,213.77005,910.5296,102.42011,234.3219,830.84564,172.22362,218.56752,763.78491
139,1.15,133.672,214.30203,910.40332,102.54134,234.06917,830.50684,172.22362,218.56752,763.78491
140,1.158,133.68361,214.47662,910.28961,102.35155,234.1241,830.5011,172.60336,218.38811,762.63635
141,1.167,133.39594,214.44044,909.81348,102.19758,234.25581,830.29199,172.66646,218.44099,762.56238
142,1.175,133.43556,214.57338,909.50598,102.13011,234.46417,830.22656,172.14944,218.92245,762.88208
143,1.183,132.96886,214.64001,909.68561,101.88855,234.55138,830.38007,171.35548,219.94351,763.0246
144,1.192,132.89221,214.89919,909.52258,101.7166,234.56557,830.41467,171.06697,219.9601,762.70258
145,1.2,132.76657,214.99463,909.45099,101.00715,234.78885,830.57324,170.59492,220.41191,762.82892
146,1.208,132.46596,215.11005,909.53467,100.69136,234.88091,830.68744,170.29095,221.65724,763.78125
147,1.217,132.35394,215.81363,909.69537,100.49529,234.89975,830.724,170.13545,222.28506,764.38354
148,1.225,132.13905,215.72414,909.89178,100.90209,235.04814,830.52502,170.11024,222.0338,764.74567
149,1.233,132.30341,216.08916,910.59351,101.00715,234.78885,830.57324,169.88908,221.8522,765.04755
150,1.242,132.10649,215.7998,911.05573,101.00715,234.78885,830.57324,169.88908,221.8522,765.04755
151,1.25,132.40323,215.28072,911.31781,101.66282,234.40347,830.63177,170.14349,221.07503,765.24597
152,1.258,132.99835,214.94981,911.42487,101.66282,234.40347,830.63177,170.9577,220.27383,764.75525
153,1.267,133.28889,214.54857,910.63733,102.10995,234.21133,830.65466,171.7601,219.34537,764.64349
154,1.275,133.71202,214.19949,910.85315,102.35155,234.1241,830.5011,171.81274,218.91466,764.28674
155,1.283,134.12543,213.71349,910.53564,102.46475,233.91408,830.62823,172.35526,218.44153,763.87067
156,1.292,134.37007,213.20129,910.41986,102.8245,233.63,830.55646,172.75493,218.34573,763.88757
157,1.3,134.69325,213.04335,910.0163,103.53152,232.98143,830.48792,172.75493,218.34573,763.88757
158,1.308,134.96619,212.63567,909.98596,103.66755,233.02014,830.40491,171.70309,216.56377,763.36029
159,1.317,134.96619,212.63567,909.98596,103.42931,233.0365,830.28418,171.70309,216.56377,763.36029
160,1.325,135.03828,212.67027,909.92242,103.66755,233.02014,830.40491,172.75493,218.34573,763.88757
161,1.333,135.0414,212.77693,909.78821,103.66755,233.02014,830.40491,172.82552,218.42181,763.79352
162,1.342,134.93677,213.27193,909.65417,103.42931,233.0365,830.28418,172.90703,218.34172,762.58484
163,1.35,134.93677,213.27193,909.65417,103.05862,233.11348,830.29712,172.77859,218.4528,762.51288
164,1.358,134.84074,213.83496,909.54053,102.80936,233.28481,830.25299,172.59601,218.71977,762.57916
165,1.367,134.55435,214.01451,909.63599,102.80936,233.28481,830.25299,172.41672,219.74271,762.30212
166,1.375,134.31633,214.75772,909.80121,102.19758,234.25581,830.29199,172.41672,219.74271,762.30212
167,1.383,134.13004,215.27243,909.96002,102.19758,234.25581,830.29199,172.39986,220.00975,762.52747
168,1.392,134.09985,215.40236,909.9375,101.87054,234.7193,830.28821,172.42522,220.11751,762.974
169,1.4,133.96765,215.49213,910.00958,101.87054,234.7193,830.28821,172.30617,220.12665,763.12219
170,1.408,134.37733,215.9184,910.51483,102.35155,234.1241,830.5011,172.70645,219.82332,763.33038
171,1.417,134.26854,216.00999,910.93921,102.67734,234.10791,830.42383,173.30518,218.06219,763.01074
172,1.425,134.38669,215.1763,910.77551,103.54253,234.37669,830.7912,173.284,218.41545,764.19324
173,1.433,134.88077,214.48364,910.61359,104.42887,234.59058,831.01434,173.87804,217.89632,764.59583
174,1.442,135.22644,213.34285,910.48315,104.88579,234.58023,831.03271,173.88011,215.97656,763.9585
175,1.45,135.83926,212.46915,910.28607,104.88579,234.58023,831.03271,173.78931,214.35989,763.14648
176,1.458,136.27811,212.27385,910.37439,105.90428,234.71838,831.39435,173.5153,213.62349,763.16833
177,1.467,136.72232,212.13203,910.53741,106.25635,234.92107,831.32654,173.57555,213.88852,762.92773
178,1.475,136.76204,211.8674,910.36871,106.07327,235.00377,831.59875,173.20703,214.02057,762.6972
179,1.483,136.72232,212.13203,910.53741,106.0642,234.94383,831.35742,173.24727,215.005,763.01801
180,1.492,136.1669,212.47539,910.16565,105.39194,234.63219,831.15253,172.0358,216.01228,763.06885
181,1.5,136.16913,213.04193,910.0152,104.88579,234.58023,831.03271,173.07286,218.30864,764.03241
182,1.508,135.12093,213.76288,909.60437,104.88579,234.58023,831.03271,173.14345,218.38474,763.93835
183,1.517,135.02145,214.21216,909.82465,104.04299,234.08215,830.88873,173.14345,218.38474,763.93835
184,1.525,134.99173,214.34048,909.98407,103.54253,234.37669,830.7912,172.95416,218.46758,763.87079
185,1.533,134.47064,214.92201,910.16675,103.37257,234.6057,830.86865,173.05553,220.4416,764.67834
186,1.542,134.53688,215.15611,910.75122,103.41514,234.78441,831.24872,172.5105,220.92145,764.88916
187,1.55,134.42619,215.37036,911.07745,103.55057,235.55188,831.69794,172.20789,222.50023,764.64478
188,1.558,134.88438,215.3497,911.91095,103.2227,235.85823,832.05731,172.45442,222.62903,764.86072
189,1.567,134.97874,216.04091,911.51984,103.2991,236.01337,831.93585,172.19421,222.59038,765.16589
190,1.575,135.10388,217.4021,911.59454,103.54832,235.84209,831.9801,172.09406,222.64476,765.28284
191,1.583,134.82004,217.62837,911.60504,103.80835,235.6436,832.23224,173.65724,221.85004,764.96552
192,1.592,134.86508,217.43747,912.29291,104.6954,235.31007,832.22278,174.57649,219.59315,764.66504
193,1.6,135.16115,217.3026,912.61206,105.02059,235.10703,832.07129,174.78848,218.08115,764.81317
194,1.608,135.33752,215.65196,912.10559,105.73713,235.03203,832.12805,175.50554,216.10373,764.80389
195,1.617,136.35365,214.36526,911.98987,107.13672,234.9245,832.14008,175.0293,211.81804,764.00952
196,1.625,137.18504,213.07866,911.66339,107.75318,235.23756,832.26917,175.3452,211.01933,763.85248
197,1.633,137.24089,212.24968,910.60059,108.62193,234.65961,831.50079,175.54636,209.25955,763.16705
198,1.642,137.71318,211.459,910.27393,109.59611,234.71046,831.31732,174.02182,207.39679,761.78333
199,1.65,138.21458,210.33186,910.2168,109.98222,234.71481,830.99884,174.4888,208.06219,761.49872
200,1.658,138.56754,210.04688,910.16479,109.83778,235.07037,831.32306,174.27921,208.55867,761.54688
201,1.667,138.33142,209.5188,909.81183,109.70685,234.95015,831.04834,173.72121,208.4733,762.091
202,1.675,137.96339,209.84138,909.8476,108.65015,235.15668,831.3056,174.17125,211.07626,762.11926
