Frame#,Time,L.Forearm.x,L.Forearm.y,L.Forearm.z,L.Ulna.x,L.Ulna.y,L.Ulna.z,L.Radius.x,L.Radius.y,L.Radius.z
1,0,1799.05103,-466.45129,1072.09949,1801.73035,-507.7157,995.60809,1775.05457,-429.75272,960.94598
2,0.008,1794.59485,-468.33594,1072.37891,1797.78906,-508.64966,994.68384,1771.3446,-430.64984,959.12903
3,0.017,1789.55725,-469.82336,1071.99207,1793.95361,-508.95776,995.07581,1764.67847,-429.74292,958.54315
4,0.025,1784.2113,-471.40646,1071.59863,1790.66895,-511.80823,993.38477,1759.42297,-429.0957,954.50592
5,0.033,1779.78223,-472.81592,1071.14319,1786.40295,-511.22034,993.12866,1753.56458,-430.08151,955.14209
6,0.042,1773.98401,-472.13022,1070.56677,1780.52429,-508.85812,991.71234,1747.32471,-428.51544,955.29254
7,0.05,1770.25403,-471.42014,1068.52393,1777.78406,-509.97214,990.81091,1746.40686,-431.0278,952.75
8,0.058,1766.28723,-470.73938,1065.68579,1772.92493,-510.49527,989.15894,1740.7251,-432.71869,952.82788
9,0.067,1760.41089,-470.80603,1065.21558,1770.40955,-512.77216,989.77771,1739.05969,-434.54114,952.20911
10,0.075,1755.84363,-472.26498,1064.60571,1763.21765,-511.11859,988.65784,1733.91309,-435.38269,952.16583
11,0.083,1749.29028,-472.66519,1064.08325,1758.81018,-512.47607,987.88348,1731.21448,-436.07428,952.28259
12,0.092,1744.32324,-473.15906,1063.49084,1754.01257,-512.93866,986.25714,1726.6748,-433.98294,951.21332
13,0.1,1738.37317,-474.25336,1064.11499,1747.85876,-513.54248,985.13721,1715.73999,-435.12714,948.17493
14,0.108,1731.77905,-477.74515,1062.57849,1743.94373,-516.07776,984.0827,1713.31067,-435.2749,948.0188
15,0.117,1725.66394,-476.99133,1060.61694,1737.271,-515.35162,982.35864,1707.73193,-438.4953,943.24091
16,0.125,1721.56042,-472.85571,1057.02405,1731.25232,-515.81976,981.03021,1706.33337,-437.7305,943.7948
17,0.133,1714.43115,-476.51843,1056.55725,1725.11597,-517.13275,979.73425,1695.40454,-439.87387,943.41748
18,0.142,1708.72119,-478.39084,1054.79187,1718.88721,-517.95294,978.81219,1691.42712,-438.17914,941.84003
19,0.15,1700.83105,-478.51175,1054.24866,1713.2179,-518.64612,976.81903,1682.19678,-441.15826,939.03754
20,0.158,1694.91211,-477.48679,1051.98743,1707.04907,-520.61188,975.07977,1678.90906,-442.3074,937.50439
21,0.167,1687.58398,-477.52924,1050.19104,1699.52429,-520.39398,973.23193,1673.50513,-443.51819,934.52411
22,0.175,1679.62378,-480.79199,1049.08203,1690.78979,-520.79565,970.9801,1659.4812,-443.01199,931.45679
23,0.183,1671.77246,-481.38675,1047.65759,1683.78735,-522.75055,970.60455,1657.66992,-442.17062,932.17462
24,0.192,1663.80933,-484.5871,1046.59412,1677.95837,-525.01953,968.88092,1646.65527,-444.16147,931.11365
25,0.2,1656.22937,-486.63211,1046.24585,1669.64319,-525.82159,967.01978,1638.85791,-448.74451,929.97058
26,0.208,1647.83728,-485.90961,1043.75354,1660.85815,-525.6037,965.41687,1637.25415,-447.02792,930.21179
27,0.217,1639.29663,-489.11444,1043.74048,1652.43286,-526.37598,963.22614,1624.08276,-448.43597,928.97388
28,0.225,1630.01062,-490.26529,1043.85376,1643.60779,-527.38013,962.94269,1611.58215,-448.47244,926.96484
29,0.233,1624.43054,-488.41397,1039.16248,1636.93518,-530.3374,961.91736,1603.96851,-449.93484,927.06842
30,0.242,1616.18152,-491.75641,1038.14844,1628.62756,-530.07062,960.76288,1598.15063,-449.45468,925.44531
31,0.25,1607.49878,-493.06934,1039.02832,1619.91858,-532.55182,960.1709,1589.21741,-451.72314,926.25262
32,0.258,1597.94678,-494.68015,1039.23901,1611.26196,-531.3891,959.39374,1583.57922,-455.57712,925.64984
33,0.267,1588.84143,-496.39682,1039.10474,1601.64966,-532.14636,957.08142,1571.31494,-455.10077,924.83313
34,0.275,1581.1084,-495.51654,1037.44348,1592.57654,-532.72784,958.15094,1565.59277,-456.30328,923.40472
35,0.283,1571.96008,-496.74561,1037.81104,1582.13586,-532.99597,958.15045,1553.37915,-455.24716,924.61395
36,0.292,1562.01672,-499.29321,1039.39502,1572.99573,-534.06995,959.56091,1541.66663,-456.25497,922.44177
37,0.3,1553.08496,-500.41574,1039.87915,1564.12488,-536.94647,959.69348,1539.60608,-460.69733,926.10181
38,0.308,1545.41248,-499.34668,1039.0741,1554.35046,-537.16443,960.69659,1527.21167,-461.57782,923.70673
39,0.317,1535.05823,-500.88327,1042.38538,1543.84692,-537.46863,962.68726,1517.28882,-462.59787,927.14905
40,0.325,1525.86682,-499.83194,1043.47559,1532.96851,-537.21588,964.89374,1510.23792,-461.53961,929.86444
41,0.333,1516.05518,-501.54852,1044.39734,1525.40405,-540.55634,966.03033,1500.54004,-461.81549,930.87659
42,0.342,1507.01697,-501.63281,1046.37708,1512.87866,-539.08783,966.74762,1489.6001,-462.61832,930.73474
43,0.35,1497.7406,-502.2276,1046.56677,1502.99817,-541.46136,968.67126,1475.15356,-461.85568,935.58282
44,0.358,1487.78625,-504.49628,1048.03979,1491.73376,-542.03906,969.40649,1463.07727,-463.05359,935.27051
45,0.367,1478.14587,-504.58456,1048.7926,1480.96753,-541.95544,970.66119,1452.62439,-465.78775,935.24097
46,0.375,1468.25757,-505.98257,1051.46545,1471.37134,-543.73657,973.77997,1441.98218,-465.64618,939.11792
47,0.383,1457.46289,-508.62628,1052.9502,1460.83826,-546.00916,973.65057,1430.15161,-465.98874,940.03296
48,0.392,1448.4502,-509.05255,1053.08069,1449.82666,-547.08789,973.85687,1417.45898,-465.37,942.11987
49,0.4,1439.30908,-506.98322,1052.03735,1439.53967,-547.72595,973.60852,1405.97119,-465.36102,941.03906
50,0.408,1427.82813,-510.31882,1053.74011,1426.94604,-547.22412,975.40436,1395.90393,-468.89197,943.85046
51,0.417,1416.5647,-510.90228,1054.27454,1417.26624,-550.58759,975.1181,1385.03308,-469.8801,944.81195
52,0.425,1405.33179,-511.47864,1054.80945,1405.69128,-549.71826,975.88336,1375.41199,-470.46518,945.99854
53,0.433,1401.21704,-516.67236,1053.89917,1396.45776,-552.86188,976.07471,1364.25525,-471.33511,946.71954
54,0.442,1393.56799,-518.87451,1052.83386,1385.02295,-553.21149,977.34808,1352.86865,-469.93033,947.17615
55,0.45,1376.85498,-516.30542,1057.60815,1373.64417,-553.48755,977.5434,1344.0564,-470.04819,947.59521
56,0.458,1365.7594,-516.87299,1058.13635,1362.49146,-553.70197,977.36487,1332.53186,-470.87204,948.88257
57,0.467,1354.69336,-517.43353,1058.66504,1351.6825,-556.82489,979.26514,1322.46558,-472.27377,950.77405
58,0.475,1341.77002,-516.37439,1057.89868,1341.34583,-557.40668,980.60773,1311.0697,-471.84741,949.67029
59,0.483,1332.51599,-515.13489,1059.59058,1329.85791,-556.1275,980.32745,1301.76355,-474.23624,952.69611
60,0.492,1323.776,-514.4361,1060.80676,1319.01453,-556.19824,981.06445,1293.32495,-474.85834,953.76984
61,0.5,1313.10974,-514.7146,1061.92102,1308.32947,-556.52802,982.98352,1282.08875,-475.77271,953.99854
62,0.508,1303.49304,-516.87341,1061.97351,1297.11121,-556.17255,984.04303,1270.8866,-475.73578,954.82098
63,0.517,1293.27344,-518.77777,1061.83081,1285.8739,-556.64227,985.18683,1261.40063,-475.76099,955.78241
64,0.525,1283.63855,-518.87891,1065.63452,1275.79321,-557.41876,986.93024,1250.27112,-474.15048,957.81348
65,0.533,1274.36316,-519.64093,1066.38953,1265.17554,-559.11987,987.20172,1237.69373,-473.65948,958.28406
66,0.542,1265.16553,-517.42719,1066.50574,1254.57092,-559.19354,988.59906,1230.51587,-474.99548,958.93213
67,0.55,1255.29089,-518.30353,1066.81702,1245.20703,-558.63708,990.07996,1220.24695,-476.43607,959.56586
68,0.558,1245.82397,-516.93787,1066.89441,1234.11096,-557.74048,989.06677,1210.95056,-476.6618,961.29651
69,0.567,1235.85461,-517.73676,1068.40491,1223.82581,-558.1441,990.13153,1199.54443,-476.66397,962.51483
70,0.575,1227.14038,-518.5473,1067.59875,1214.4375,-558.52264,991.53058,1190.68921,-478.19009,962.89758
71,0.583,1217.59106,-516.27673,1067.75134,1204.4248,-558.33203,991.85413,1178.99304,-477.23566,962.80005
72,0.592,1208.40186,-517.35114,1067.73218,1194.901,-558.9447,992.04877,1168.45874,-477.3335,963.1192
73,0.6,1201.46143,-520.46387,1067.47803,1185.06091,-559.68652,992.38037,1160.07825,-475.65216,965.87787
74,0.608,1190.10901,-519.79407,1068.59985,1175.797,-560.94025,993.03149,1148.49963,-475.45294,965.5578
75,0.617,1180.69189,-521.03845,1068.8114,1166.04675,-558.60156,991.95782,1139.98975,-475.51974,965.88806
76,0.625,1171.96216,-519.51196,1068.2782,1156.65222,-559.71234,991.69592,1128.95313,-474.84769,965.89545
77,0.633,1162.36682,-519.25238,1069.41125,1147.51929,-559.06506,992.14014,1121.04077,-475.50092,966.09979
78,0.642,1153.86597,-519.35461,1069.66028,1138.10034,-555.73969,990.04108,1110.43298,-475.25613,966.05841
79,0.65,1145.38416,-519.66034,1068.53955,1129.87329,-558.07422,990.4043,1103.23694,-472.69339,966.50598
80,0.658,1135.5658,-519.15552,1067.54993,1120.97888,-557.25116,989.9798,1093.97668,-472.7178,966.61786
81,0.667,1128.4259,-517.25787,1067.58105,1112.1228,-558.1449,991.80811,1085.19458,-472.65042,966.77008
82,0.675,1120.0658,-518.04065,1067.40393,1102.72083,-555.97284,988.7757,1077.91626,-470.92639,966.3642
83,0.683,1112.61206,-516.3916,1066.65088,1095.58521,-556.35254,990.49304,1069.41296,-471.33154,964.98969
84,0.692,1105.45325,-516.75092,1066.04883,1087.14368,-556.10535,990.35004,1060.22754,-470.95706,965.36023
85,0.7,1096.88403,-516.11682,1065.1322,1078.44189,-554.62885,989.16742,1054.19739,-469.65701,964.32227
86,0.708,1090.61609,-514.40192,1064.33594,1070.60095,-553.73401,988.9455,1046.30627,-469.41684,962.96503
87,0.717,1081.94067,-513.62067,1064.03369,1063.22021,-553.65271,989.47778,1038.10339,-468.21082,963.5423
88,0.725,1074.42896,-513.29999,1063.61548,1055.86438,-552.47296,988.18982,1032.05762,-468.26511,962.73346
89,0.733,1067.72339,-513.00238,1063.84937,1047.78967,-551.58826,987.90033,1024.16528,-468.28162,962.64191
90,0.742,1060.42615,-512.09143,1063.52893,1040.84033,-551.69434,987.99805,1016.9928,-466.15939,961.9472
91,0.75,1052.91309,-509.88947,1063.51221,1035.18591,-550.80383,987.57092,1009.97314,-466.60886,962.16254
92,0.758,1045.82837,-510.81097,1063.39258,1027.72595,-549.63605,986.66077,1003.07733,-466.4628,961.10773
93,0.767,1039.38672,-508.90854,1062.90833,1020.79089,-548.79083,987.51428,996.87628,-464.23242,961.32477
94,0.775,1031.52417,-508.3924,1063.48157,1015.26038,-548.03851,987.49207,991.1618,-463.95337,960.96057
95,0.783,1026.43286,-507.50299,1064.44556,1009.89929,-548.03497,988.80334,983.698,-463.90494,961.66968
96,0.792,1019.11597,-506.0329,1064.84827,1004.33502,-545.37762,987.92682,978.71069,-463.04901,961.83051
97,0.8,1014.0141,-503.83344,1065.88989,998.67432,-544.9411,989.55994,972.52496,-463.20264,961.75299
98,0.808,1008.10468,-503.20178,1066.46533,994.15753,-544.06458,990.32611,967.26764,-461.78381,962.94568
99,0.817,1002.56024,-502.2963,1067.49036,989.08936,-542.54486,990.62836,960.97852,-461.84122,962.84015
100,0.825,996.60712,-500.18781,1068.45239,983.92078,-541.04437,991.77765,956.42938,-460.03687,964.79919
101,0.833,990.23102,-500.58597,1069.70374,980.18469,-540.36688,992.73376,950.90778,-458.9726,965.40222
102,0.842,986.31531,-498.53745,1070.59924,974.45416,-539.45642,993.92487,946.64502,-458.89536,965.93842
103,0.85,980.38397,-495.57852,1070.59399,970.67847,-539.04926,994.84491,941.64532,-457.09119,966.8006
104,0.858,973.88666,-497.341,1073.07996,965.30865,-538.56195,996.18652,935.99127,-457.44565,967.19135
105,0.867,969.48969,-494.89053,1073.6355,961.05304,-537.89258,997.37982,931.9928,-455.73383,967.50409
106,0.875,964.48303,-494.02512,1073.63953,956.56909,-536.02429,997.27155,928.50348,-455.72842,969.15784
107,0.883,958.50684,-493.62143,1073.88953,952.32471,-536.80383,997.41919,923.12842,-454.58423,968.50031
108,0.892,955.98395,-492.31961,1073.93884,948.34039,-535.73883,998.24945,919.30048,-454.39862,969.30743
109,0.9,950.0332,-493.17175,1074.1936,943.27997,-535.2793,997.5672,916.13556,-452.49918,967.75342
110,0.908,946.45966,-493.87561,1074.03076,938.89661,-535.05566,997.32379,911.20398,-452.21948,967.67651
111,0.917,941.11829,-492.62723,1073.34802,935.37738,-534.45575,996.31909,904.31232,-452.38318,966.62689
112,0.925,935.3183,-492.45102,1073.10962,931.2879,-535.21393,996.8938,904.1626,-452.87204,965.59601
113,0.933,931.02057,-492.26935,1073.01575,927.95532,-534.17932,996.34991,899.57227,-453.88068,965.8042
114,0.942,925.69543,-492.76074,1072.46533,922.81274,-534.62952,995.30756,895.57538,-452.27457,964.15698
115,0.95,921.27063,-490.6658,1070.72266,918.36102,-532.85297,994.34412,891.71375,-452.29813,962.75366
116,0.958,915.72858,-491.1217,1070.92188,914.36572,-533.96503,994.01935,887.59058,-453.28433,960.97766
117,0.967,911.8941,-491.8942,1070.66882,911.93903,-533.87427,993.19843,885.03821,-451.77289,960.7262
118,0.975,905.49176,-492.13312,1069.26343,906.33124,-532.58221,992.22083,879.08124,-451.4592,960.28394
119,0.983,900.88953,-490.88629,1068.52051,903.12561,-532.77661,991.38257,874.93237,-452.0531,959.04205
120,0.992,895.58185,-489.83963,1068.51831,898.27637,-532.25171,990.17902,870.9054,-450.25488,958.59137
121,1,890.10077,-489.54712,1067.75769,893.97345,-532.08752,990.61072,865.3313,-450.94473,955.83636
122,1.008,885.29016,-489.68744,1067.19568,889.14252,-531.10406,989.65393,862.84869,-450.75226,955.62842
123,1.017,879.21344,-488.20096,1066.46924,885.11078,-530.66406,988.34332,857.72217,-450.00104,954.78882
124,1.025,875.47229,-486.93884,1065.65332,880.48267,-530.69263,987.5174,853.11298,-450.2168,953.19067
125,1.033,868.62274,-488.09283,1066.01062,876.07953,-530.19153,987.95447,850.00348,-448.81732,952.59253
126,1.042,863.99304,-485.18481,1063.62036,869.79688,-529.34937,987.0636,845.56293,-448.82492,952.23346
127,1.05,858.32251,-487.01181,1063.24792,865.67621,-528.94763,986.20203,840.97949,-448.26056,951.16571
128,1.058,853.52466,-485.44305,1062.83191,860.73486,-527.95306,986.05573,835.4436,-448.24548,950.23999
129,1.067,849.29913,-484.9545,1063.92798,856.5531,-528.93878,984.62329,829.35486,-447.44739,949.90466
130,1.075,843.34009,-484.00385,1062.06592,850.3078,-527.828,984.57068,824.55591,-447.53317,949.38824
131,1.083,835.15576,-485.9093,1061.74915,846.53009,-528.09698,983.1825,818.86456,-447.74771,948.24884
132,1.092,832.37445,-484.36108,1060.29053,840.36847,-527.34222,983.08905,813.69739,-448.16241,948.16882
133,1.1,824.69373,-484.47827,1060.71497,835.6969,-528.68164,983.00818,809.76709,-448.63086,947.28015
134,1.108,822.36084,-486.2843,1057.80139,830.03198,-528.64581,981.1369,803.60669,-449.67792,946.63983
135,1.117,814.23682,-486.16278,1058.53564,825.49457,-528.68231,980.25433,798.34534,-449.56891,944.19067
136,1.125,807.16174,-487.48624,1057.16223,819.0578,-528.63257,980.26563,790.55103,-449.8074,943.6004
137,1.133,803.71277,-486.09717,1056.48169,813.38013,-529.68408,978.9812,785.06598,-451.12943,943.74744
138,1.142,794.82983,-488.38498,1055.46033,806.21576,-530.75171,977.69989,779.41211,-451.59622,942.0097
139,1.15,787.8302,-489.02423,1055.51038,800.11646,-531.37183,976.07813,771.28845,-451.5369,941.85474
140,1.158,782.29742,-489.73193,1052.20117,793.5769,-531.81769,975.1369,763.13239,-452.89767,940.26624
141,1.167,776.20148,-492.21335,1052.30627,786.31335,-533.12317,974.39178,754.31787,-454.07309,940.19617
142,1.175,765.66724,-491.71606,1051.05481,779.53784,-534.06525,972.02551,747.54297,-455.3847,938.81305
143,1.183,760.60901,-494.41302,1049.90369,770.94,-534.8587,971.27722,742.7168,-456.61899,936.89758
144,1.192,752.69623,-494.53625,1048.17151,762.45941,-535.1795,969.39539,731.87427,-456.62662,936.32178
145,1.2,743.15747,-495.64902,1046.98108,755.62378,-537.75128,968.38409,723.26801,-457.73691,935.46564
146,1.208,734.56146,-496.80786,1046.34851,747.60974,-538.41241,967.09998,714.47455,-458.73984,934.69305
147,1.217,727.99109,-499.83405,1042.96277,738.68982,-538.33948,965.21899,704.78967,-459.42282,933.38501
148,1.225,717.82135,-499.72739,1042.16833,730.43768,-539.3551,963.01532,695.04382,-460.39178,931.68457
149,1.233,709.0567,-501.5748,1040.19543,721.57935,-541.60565,961.83344,687.29504,-462.32294,930.19934
150,1.242,700.40009,-502.03458,1038.41638,712.18842,-542.74701,961.02234,677.21844,-463.29471,928.79492
151,1.25,693.01611,-505.26721,1037.08899,703.34979,-543.42792,958.26239,667.41626,-464.24875,927.95966
152,1.258,683.55536,-505.65906,1036.27588,694.23438,-543.80872,955.33032,659.68854,-466.30875,925.17358
153,1.267,675.0415,-506.21439,1034.79688,684.43524,-545.95404,954.96509,652.10706,-467.99512,924.45544
154,1.275,662.91272,-507.45425,1033.89868,675.15765,-547.04791,954.02875,640.80658,-467.62186,922.38953
155,1.283,653.35455,-509.09818,1032.60864,665.14166,-547.67505,952.96997,632.3728,-469.26633,922.71106
156,1.292,645.61804,-508.9939,1032.28723,655.83057,-548.85059,952.44104,622.89429,-470.03033,920.91589
157,1.3,637.21704,-510.16742,1032.44336,647.32721,-551.24683,953.07782,613.19482,-472.16574,921.15375
158,1.308,627.95032,-510.11749,1032.09363,636.70758,-552.3064,953.40674,604.78381,-473.00247,920.21075
159,1.317,620.92578,-511.09348,1032.10938,628.12347,-552.57471,953.93292,596.4389,-474.63995,920.547
160,1.325,607.30444,-510.51801,1035.58899,617.65424,-553.72815,955.54761,585.60565,-475.38788,922.24103
161,1.333,601.49237,-512.70129,1036.79956,608.23541,-555.23566,957.95428,576.60254,-476.08142,924.35242
162,1.342,593.28705,-513.83154,1036.60645,597.76233,-556.01221,959.61871,565.39307,-478.01004,924.80499
163,1.35,582.73383,-513.69849,1040.41589,588.30927,-556.8974,960.92169,556.03821,-478.57227,928.0694
164,1.358,573.63464,-515.14008,1042.76111,578.11353,-557.61505,963.39471,546.18958,-480.47601,930.11353
165,1.367,562.97357,-518.16034,1045.29834,569.11768,-560.26849,965.96765,535.41467,-481.58716,933.25122
166,1.375,554.88733,-519.43207,1046.78601,559.80737,-561.08282,968.28436,523.89319,-483.38467,936.13428
167,1.383,546.67981,-520.90863,1048.08472,548.56738,-562.05579,970.03894,513.7522,-483.7132,938.12555
168,1.392,537.75488,-521.78076,1050.96021,539.85077,-563.68665,972.14526,503.45963,-485.36542,941.89923
169,1.4,528.70764,-523.27313,1052.86096,529.31146,-565.63434,973.71167,492.82755,-486.03494,945.33936
170,1.408,518.08167,-526.12952,1055.40076,520.17511,-565.65161,975.13959,484.61942,-487.58633,945.02899
171,1.417,509.22247,-527.33783,1055.25037,510.92825,-568.38892,976.44708,473.16687,-489.76303,947.51917
172,1.425,501.40869,-529.28613,1056.84216,500.52884,-570.58722,978.32422,464.62024,-489.72906,949.6853
173,1.433,492.23926,-531.7392,1057.30737,491.09137,-570.64136,978.79346,455.97308,-491.47363,950.86835
174,1.442,482.77335,-532.88989,1059.43665,481.39496,-572.18652,979.73938,446.30463,-491.79327,951.43622
175,1.45,473.87357,-533.98657,1059.21155,471.60416,-572.71436,979.89679,435.62671,-492.9371,952.31897
176,1.458,464.90399,-534.29181,1060.23364,461.63705,-574.74646,980.91406,427.79092,-494.87634,954.47369
177,1.467,456.28867,-535.7301,1061.42212,452.36905,-575.42383,982.44611,420.01926,-496.17261,953.84515
178,1.475,447.24521,-536.05939,1062.20264,443.0748,-576.91168,983.29083,411.15881,-496.89163,954.96783
179,1.483,437.95413,-536.81488,1062.82288,433.60901,-577.51996,984.42365,401.04755,-497.11917,955.69177
180,1.492,429.29697,-536.55481,1063.29663,424.3884,-578.62872,985.43323,392.44025,-497.24045,957.52448
181,1.5,420.63229,-536.75488,1064.10828,414.31339,-579.22882,986.93201,383.6853,-496.89273,958.00531
182,1.508,410.9838,-538.54773,1066.28613,405.5672,-580.11206,987.9314,372.92813,-498.22464,958.90735
183,1.517,403.59213,-537.896,1066.75598,396.34537,-580.8111,989.4823,363.7865,-497.93378,960.32239
184,1.525,394.52802,-538.54071,1067.56738,387.01334,-581.36115,990.24847,355.84106,-500.23569,961.55035
185,1.533,386.02408,-538.47284,1068.17822,377.28003,-581.16895,991.07257,347.28928,-500.07654,962.28918
186,1.542,377.81427,-539.09692,1069.44958,367.40945,-580.65967,993.33856,338.67764,-499.88135,963.56171
187,1.55,369.52158,-539.44757,1070.19543,358.15497,-580.48981,993.19226,330.45602,-500.16275,964.23993
188,1.558,360.87857,-539.61914,1071.80457,349.93729,-580.65686,994.53894,322.68039,-499.87543,966.60974
189,1.567,353.03549,-538.55347,1071.01196,340.97717,-581.29926,995.88782,312.98376,-500.45456,967.64813
190,1.575,344.25723,-539.01996,1073.18579,332.4202,-581.3761,996.81793,303.67853,-499.08728,967.99927
191,1.583,337.0332,-538.61194,1072.91223,323.70514,-581.6452,997.21948,295.1759,-499.07788,968.80444
