Frame#,Time,R.Forearm.x,R.Forearm.y,R.Forearm.z,R.Ulna.x,R.Ulna.y,R.Ulna.z,R.Radius.x,R.Radius.y,R.Radius.z
1,0,-87.34947,-192.68839,697.25061,-34.20362,-182.8356,613.38385,4.21982,-100.08002,667.14532
2,0.008,-87.34947,-192.68839,697.25061,-34.57868,-183.3335,614.31396,4.21982,-100.08002,667.14532
3,0.017,-87.34947,-192.68839,697.25061,-34.20362,-182.8356,613.38385,4.41414,-100.14997,667.04095
4,0.025,-87.34947,-192.68839,697.25061,-34.20362,-182.8356,613.38385,4.21982,-100.08002,667.14532
5,0.033,-87.24553,-192.83679,697.51227,-34.05439,-182.59624,613.20282,4.21982,-100.08002,667.14532
6,0.042,-87.67182,-192.51483,697.54498,-34.05439,-182.59624,613.20282,4.21982,-100.08002,667.14532
7,0.05,-87.40181,-192.79951,697.40417,-34.05439,-182.59624,613.20282,4.21982,-100.08002,667.14532
8,0.058,-87.40181,-192.79951,697.40417,-34.57868,-183.3335,614.31396,4.21982,-100.08002,667.14532
9,0.067,-87.40181,-192.79951,697.40417,-34.57868,-183.3335,614.31396,4.21982,-100.08002,667.14532
10,0.075,-87.67182,-192.51483,697.54498,-34.42957,-183.05055,614.08966,4.21982,-100.08002,667.14532
11,0.083,-87.67182,-192.51483,697.54498,-34.57868,-183.3335,614.31396,4.21982,-100.08002,667.14532
12,0.092,-87.72915,-192.61998,697.67035,-34.05439,-182.59624,613.20282,3.86346,-99.96608,667.09839
13,0.1,-87.67182,-192.51483,697.54498,-34.42957,-183.05055,614.08966,3.86346,-99.96608,667.09839
14,0.108,-87.67182,-192.51483,697.54498,-34.42957,-183.05055,614.08966,3.86346,-99.96608,667.09839
15,0.117,-87.67182,-192.51483,697.54498,-34.05439,-182.59624,613.20282,3.86346,-99.96608,667.09839
16,0.125,-87.34947,-192.68839,697.25061,-34.05439,-182.59624,613.20282,3.86346,-99.96608,667.09839
17,0.133,-87.40181,-192.79951,697.40417,-34.05439,-182.59624,613.20282,3.86346,-99.96608,667.09839
18,0.142,-87.67182,-192.51483,697.54498,-34.20767,-182.47273,613.17493,3.59043,-100.04926,667.10876
19,0.15,-87.67182,-192.51483,697.54498,-34.42957,-183.05055,614.08966,3.86346,-99.96608,667.09839
20,0.158,-87.67182,-192.51483,697.54498,-34.05439,-182.59624,613.20282,3.86346,-99.96608,667.09839
21,0.167,-87.67182,-192.51483,697.54498,-34.46597,-182.45467,613.29315,3.86346,-99.96608,667.09839
22,0.175,-87.72915,-192.61998,697.67035,-34.31269,-182.5782,613.32104,3.86346,-99.96608,667.09839
23,0.183,-87.67182,-192.51483,697.54498,-34.31269,-182.5782,613.32104,3.86346,-99.96608,667.09839
24,0.192,-87.72915,-192.61998,697.67035,-34.20767,-182.47273,613.17493,3.86346,-99.96608,667.09839
25,0.2,-87.67182,-192.51483,697.54498,-34.20767,-182.47273,613.17493,3.86346,-99.96608,667.09839
26,0.208,-87.67182,-192.51483,697.54498,-34.46597,-182.45467,613.29315,3.59043,-100.04926,667.10876
27,0.217,-87.86459,-191.88887,697.5885,-34.20767,-182.47273,613.17493,3.59043,-100.04926,667.10876
28,0.225,-87.72915,-192.61998,697.67035,-34.46597,-182.45467,613.29315,3.86346,-99.96608,667.09839
29,0.233,-87.80729,-191.78378,697.46313,-34.6076,-182.8895,614.05298,3.86346,-99.96608,667.09839
30,0.242,-87.80729,-191.78378,697.46313,-34.46597,-182.45467,613.29315,3.86346,-99.96608,667.09839
31,0.25,-87.67182,-192.51483,697.54498,-34.46597,-182.45467,613.29315,3.86346,-99.96608,667.09839
32,0.258,-87.67182,-192.51483,697.54498,-34.46597,-182.45467,613.29315,3.86346,-99.96608,667.09839
33,0.267,-87.72915,-192.61998,697.67035,-34.46597,-182.45467,613.29315,3.59043,-100.04926,667.10876
34,0.275,-87.67182,-192.51483,697.54498,-34.61519,-182.69405,613.47418,3.86346,-99.96608,667.09839
35,0.283,-88.00438,-191.98602,697.36029,-34.61519,-182.69405,613.47418,3.86346,-99.96608,667.09839
36,0.292,-87.66829,-192.46783,697.0556,-34.61519,-182.69405,613.47418,3.59043,-100.04926,667.10876
37,0.3,-87.66829,-192.46783,697.0556,-34.46597,-182.45467,613.29315,3.86346,-99.96608,667.09839
38,0.308,-87.72915,-192.61998,697.67035,-34.61519,-182.69405,613.47418,3.59043,-100.04926,667.10876
39,0.317,-87.86889,-192.71707,697.44214,-34.61519,-182.69405,613.47418,3.59043,-100.04926,667.10876
40,0.325,-87.86889,-192.71707,697.44214,-34.61519,-182.69405,613.47418,3.59043,-100.04926,667.10876
41,0.333,-87.86889,-192.71707,697.44214,-34.61519,-182.69405,613.47418,3.86346,-99.96608,667.09839
42,0.342,-87.86889,-192.71707,697.44214,-34.61519,-182.69405,613.47418,3.59043,-100.04926,667.10876
43,0.35,-88.00438,-191.98602,697.36029,-34.61519,-182.69405,613.47418,3.59043,-100.04926,667.10876
44,0.358,-87.86536,-192.67006,696.95282,-34.61519,-182.69405,613.47418,3.59043,-100.04926,667.10876
45,0.367,-87.67182,-192.51483,697.54498,-34.35689,-182.71211,613.35596,3.86346,-99.96608,667.09839
46,0.375,-87.67182,-192.51483,697.54498,-34.7567,-183.17249,614.27734,3.86346,-99.96608,667.09839
47,0.383,-87.67182,-192.51483,697.54498,-34.76943,-182.61839,613.40906,3.59043,-100.04926,667.10876
48,0.392,-87.67182,-192.51483,697.54498,-34.61519,-182.69405,613.47418,3.86346,-99.96608,667.09839
49,0.4,-88.00438,-191.98602,697.36029,-34.35689,-182.71211,613.35596,3.59043,-100.04926,667.10876
50,0.408,-88.00438,-191.98602,697.36029,-34.35689,-182.71211,613.35596,3.86346,-99.96608,667.09839
51,0.417,-87.67182,-192.51483,697.54498,-34.35689,-182.71211,613.35596,3.86346,-99.96608,667.09839
52,0.425,-87.86536,-192.67006,696.95282,-35.04669,-183.13789,614.41583,3.86346,-99.96608,667.09839
53,0.433,-87.86889,-192.71707,697.44214,-34.35689,-182.71211,613.35596,3.59043,-100.04926,667.10876
54,0.442,-87.80729,-191.78378,697.46313,-34.61519,-182.69405,613.47418,3.59043,-100.04926,667.10876
55,0.45,-88.00438,-191.98602,697.36029,-34.35689,-182.71211,613.35596,3.62851,-100.14966,666.94366
56,0.458,-87.98311,-192.72151,697.35059,-35.04669,-183.13789,614.41583,3.59043,-100.04926,667.10876
57,0.467,-88.00438,-191.98602,697.36029,-34.20767,-182.47273,613.17493,3.86346,-99.96608,667.09839
58,0.475,-88.00438,-191.98602,697.36029,-34.46597,-182.45467,613.29315,3.59043,-100.04926,667.10876
59,0.483,-87.66829,-192.46783,697.0556,-34.20767,-182.47273,613.17493,3.59043,-100.04926,667.10876
60,0.492,-87.56579,-192.87619,697.12518,-34.89759,-182.85492,614.19153,3.59043,-100.04926,667.10876
61,0.5,-87.86889,-192.71707,697.44214,-35.07015,-182.74704,614.11548,3.86346,-99.96608,667.09839
62,0.508,-88.00438,-191.98602,697.36029,-34.89759,-182.85492,614.19153,3.86346,-99.96608,667.09839
63,0.517,-87.86889,-192.71707,697.44214,-34.20767,-182.47273,613.17493,3.59043,-100.04926,667.10876
64,0.525,-87.80729,-191.78378,697.46313,-34.89759,-182.85492,614.19153,3.59043,-100.04926,667.10876
65,0.533,-88.00438,-191.98602,697.36029,-34.46597,-182.45467,613.29315,3.59043,-100.04926,667.10876
66,0.542,-88.00438,-191.98602,697.36029,-34.46597,-182.45467,613.29315,3.59043,-100.04926,667.10876
67,0.55,-88.00085,-191.939,696.87085,-34.46597,-182.45467,613.29315,3.59043,-100.04926,667.10876
68,0.558,-88.00085,-191.939,696.87085,-35.07015,-182.74704,614.11548,3.86346,-99.96608,667.09839
69,0.567,-88.00085,-191.939,696.87085,-34.46597,-182.45467,613.29315,3.59043,-100.04926,667.10876
70,0.575,-88.07421,-192.92352,696.81842,-34.46597,-182.45467,613.29315,3.42248,-99.9285,667.02588
71,0.583,-88.04034,-192.6311,697.3623,-34.62022,-182.37901,613.22803,3.59043,-100.04926,667.10876
72,0.592,-88.21322,-192.23955,697.22583,-34.62022,-182.37901,613.22803,3.59043,-100.04926,667.10876
73,0.6,-88.38117,-192.10652,696.65662,-34.46597,-182.45467,613.29315,3.62851,-100.14966,666.94366
74,0.608,-88.20969,-192.19246,696.73645,-34.62022,-182.37901,613.22803,3.59043,-100.04926,667.10876
75,0.617,-88.00085,-191.939,696.87085,-34.62022,-182.37901,613.22803,3.59043,-100.04926,667.10876
76,0.625,-88.20969,-192.19246,696.73645,-35.07015,-182.74704,614.11548,3.59043,-100.04926,667.10876
77,0.633,-88.00085,-191.939,696.87085,-34.62022,-182.37901,613.22803,3.59043,-100.04926,667.10876
78,0.642,-88.38117,-192.10652,696.65662,-34.62022,-182.37901,613.22803,3.59043,-100.04926,667.10876
79,0.65,-88.20969,-192.19246,696.73645,-34.62022,-182.37901,613.22803,3.59043,-100.04926,667.10876
80,0.658,-88.00085,-191.939,696.87085,-35.07015,-182.74704,614.11548,3.59043,-100.04926,667.10876
81,0.667,-88.00085,-191.939,696.87085,-34.62022,-182.37901,613.22803,3.59043,-100.04926,667.10876
82,0.675,-88.11507,-191.94336,696.7793,-34.62022,-182.37901,613.22803,3.42248,-99.9285,667.02588
83,0.683,-88.10974,-190.91942,696.81201,-34.62022,-182.37901,613.22803,3.42248,-99.9285,667.02588
84,0.692,-88.30689,-191.12167,696.70911,-34.62022,-182.37901,613.22803,3.42248,-99.9285,667.02588
85,0.7,-88.30689,-191.12167,696.70911,-34.46597,-182.45467,613.29315,3.42248,-99.9285,667.02588
86,0.708,-87.93831,-191.00534,696.89178,-34.62022,-182.37901,613.22803,3.42248,-99.9285,667.02588
87,0.717,-88.10974,-190.91942,696.81201,-34.7763,-182.32332,613.35278,3.42248,-99.9285,667.02588
88,0.725,-88.10974,-190.91942,696.81201,-34.62022,-182.37901,613.22803,3.59043,-100.04926,667.10876
89,0.733,-88.05256,-191.0097,696.80023,-34.62022,-182.37901,613.22803,3.42248,-99.9285,667.02588
90,0.742,-88.30689,-191.12167,696.70911,-34.7763,-182.32332,613.35278,3.59043,-100.04926,667.10876
91,0.75,-88.10974,-190.91942,696.81201,-34.62022,-182.37901,613.22803,3.42248,-99.9285,667.02588
92,0.758,-88.10974,-190.91942,696.81201,-34.62022,-182.37901,613.22803,3.19118,-99.29868,666.82294
93,0.767,-88.10974,-190.91942,696.81201,-34.62022,-182.37901,613.22803,3.19118,-99.29868,666.82294
94,0.775,-88.10974,-190.91942,696.81201,-35.07015,-182.74704,614.11548,3.19118,-99.29868,666.82294
95,0.783,-88.10974,-190.91942,696.81201,-35.07015,-182.74704,614.11548,3.38337,-99.50323,666.90845
96,0.792,-88.42113,-191.12602,696.61755,-34.7763,-182.32332,613.35278,3.26121,-99.6346,667.0332
97,0.8,-88.10974,-190.91942,696.81201,-34.89759,-182.85492,614.19153,3.19118,-99.29868,666.82294
98,0.808,-88.10974,-190.91942,696.81201,-35.07015,-182.74704,614.11548,4.54584,-99.74414,667.97729
99,0.817,-88.10974,-190.91942,696.81201,-35.21923,-183.03004,614.33984,3.26121,-99.6346,667.0332
100,0.825,-88.10974,-190.91942,696.81201,-34.92554,-182.56271,613.53381,3.26121,-99.6346,667.0332
101,0.833,-88.10974,-190.91942,696.81201,-34.92554,-182.56271,613.53381,3.19118,-99.29868,666.82294
102,0.842,-88.10974,-190.91942,696.81201,-34.92554,-182.56271,613.53381,3.46429,-99.21552,666.81256
103,0.85,-88.10974,-190.91942,696.81201,-34.7763,-182.32332,613.35278,3.31334,-99.1673,666.69818
104,0.858,-88.22399,-190.92378,696.7204,-34.92554,-182.56271,613.53381,3.31334,-99.1673,666.69818
105,0.867,-88.10974,-190.91942,696.81201,-34.7763,-182.32332,613.35278,3.38337,-99.50323,666.90845
106,0.875,-88.10974,-190.91942,696.81201,-34.7763,-182.32332,613.35278,3.19118,-99.29868,666.82294
107,0.883,-88.30689,-191.12167,696.70911,-34.7763,-182.32332,613.35278,3.19118,-99.29868,666.82294
108,0.892,-88.10974,-190.91942,696.81201,-35.07015,-182.74704,614.11548,3.31334,-99.1673,666.69818
109,0.9,-88.10974,-190.91942,696.81201,-34.89637,-182.3495,613.51758,3.19118,-99.29868,666.82294
110,0.908,-88.10974,-190.91942,696.81201,-34.7763,-182.32332,613.35278,3.19118,-99.29868,666.82294
111,0.917,-88.10974,-190.91942,696.81201,-34.7763,-182.32332,613.35278,3.19118,-99.29868,666.82294
112,0.925,-88.30689,-191.12167,696.70911,-34.7763,-182.32332,613.35278,3.19118,-99.29868,666.82294
113,0.933,-88.10974,-190.91942,696.81201,-34.7763,-182.32332,613.35278,3.31334,-99.1673,666.69818
114,0.942,-88.10974,-190.91942,696.81201,-35.07015,-182.74704,614.11548,3.19118,-99.29868,666.82294
115,0.95,-88.10974,-190.91942,696.81201,-34.91773,-181.77774,613.07343,3.31334,-99.1673,666.69818
116,0.958,-88.10974,-190.91942,696.81201,-34.91773,-181.77774,613.07343,3.31334,-99.1673,666.69818
117,0.967,-88.42113,-191.12602,696.61755,-34.7763,-182.32332,613.35278,3.31334,-99.1673,666.69818
118,0.975,-88.10974,-190.91942,696.81201,-34.7763,-182.32332,613.35278,3.19118,-99.29868,666.82294
119,0.983,-88.10701,-190.87355,696.32227,-34.7763,-182.32332,613.35278,3.31334,-99.1673,666.69818
120,0.992,-88.22399,-190.92378,696.7204,-35.03778,-181.80388,613.23822,3.19118,-99.29868,666.82294
121,1,-88.30689,-191.12167,696.70911,-34.91773,-181.77774,613.07343,3.19118,-99.29868,666.82294
122,1.008,-88.10974,-190.91942,696.81201,-35.07015,-182.74704,614.11548,3.19118,-99.29868,666.82294
123,1.017,-88.10974,-190.91942,696.81201,-35.07015,-182.74704,614.11548,3.19118,-99.29868,666.82294
124,1.025,-88.10974,-190.91942,696.81201,-35.07015,-182.74704,614.11548,3.31334,-99.1673,666.69818
125,1.033,-88.22399,-190.92378,696.7204,-35.07015,-182.74704,614.11548,3.31334,-99.1673,666.69818
126,1.042,-88.30689,-191.12167,696.70911,-34.91773,-181.77774,613.07343,3.31334,-99.1673,666.69818
127,1.05,-88.22399,-190.92378,696.7204,-34.91773,-181.77774,613.07343,3.31334,-99.1673,666.69818
128,1.058,-88.10974,-190.91942,696.81201,-34.89637,-182.3495,613.51758,3.31334,-99.1673,666.69818
129,1.067,-88.22399,-190.92378,696.7204,-34.7763,-182.32332,613.35278,3.31334,-99.1673,666.69818
130,1.075,-88.10974,-190.91942,696.81201,-34.91773,-181.77774,613.07343,3.19118,-99.29868,666.82294
131,1.083,-88.10974,-190.91942,696.81201,-34.89637,-182.3495,613.51758,3.31334,-99.1673,666.69818
132,1.092,-88.22399,-190.92378,696.7204,-34.91773,-181.77774,613.07343,3.31334,-99.1673,666.69818
133,1.1,-88.10974,-190.91942,696.81201,-34.91773,-181.77774,613.07343,3.31334,-99.1673,666.69818
134,1.108,-88.10974,-190.91942,696.81201,-34.91773,-181.77774,613.07343,3.19118,-99.29868,666.82294
135,1.117,-88.10974,-190.91942,696.81201,-35.26347,-182.07001,613.76538,3.31334,-99.1673,666.69818
136,1.125,-88.10974,-190.91942,696.81201,-35.26347,-182.07001,613.76538,3.31334,-99.1673,666.69818
137,1.133,-88.10974,-190.91942,696.81201,-34.91773,-181.77774,613.07343,3.31334,-99.1673,666.69818
138,1.142,-88.10974,-190.91942,696.81201,-34.91773,-181.77774,613.07343,3.31334,-99.1673,666.69818
139,1.15,-88.22399,-190.92378,696.7204,-35.03778,-181.80388,613.23822,3.31334,-99.1673,666.69818
140,1.158,-88.10974,-190.91942,696.81201,-34.91773,-181.77774,613.07343,3.31334,-99.1673,666.69818
141,1.167,-88.22399,-190.92378,696.7204,-34.91773,-181.77774,613.07343,3.31334,-99.1673,666.69818
142,1.175,-88.10974,-190.91942,696.81201,-34.91773,-181.77774,613.07343,3.31334,-99.1673,666.69818
143,1.183,-88.10974,-190.91942,696.81201,-34.91773,-181.77774,613.07343,3.31334,-99.1673,666.69818
144,1.192,-88.22399,-190.92378,696.7204,-34.91773,-181.77774,613.07343,3.31334,-99.1673,666.69818
145,1.2,-88.22399,-190.92378,696.7204,-34.91773,-181.77774,613.07343,3.31334,-99.1673,666.69818
146,1.208,-88.22399,-190.92378,696.7204,-34.91773,-181.77774,613.07343,3.31334,-99.1673,666.69818
147,1.217,-88.10974,-190.91942,696.81201,-34.91773,-181.77774,613.07343,3.31334,-99.1673,666.69818
148,1.225,-88.22399,-190.92378,696.7204,-34.91773,-181.77774,613.07343,3.26795,-99.02401,666.56921
149,1.233,-88.22399,-190.92378,696.7204,-34.91773,-181.77774,613.07343,3.31334,-99.1673,666.69818
150,1.242,-88.10974,-190.91942,696.81201,-34.91773,-181.77774,613.07343,3.31334,-99.1673,666.69818
151,1.25,-88.22399,-190.92378,696.7204,-35.26347,-182.07001,613.76538,3.31334,-99.1673,666.69818
152,1.258,-88.22399,-190.92378,696.7204,-35.41823,-181.92693,613.73627,3.31334,-99.1673,666.69818
153,1.267,-88.10974,-190.91942,696.81201,-34.91773,-181.77774,613.07343,3.31334,-99.1673,666.69818
154,1.275,-88.10974,-190.91942,696.81201,-34.91773,-181.77774,613.07343,3.31334,-99.1673,666.69818
155,1.283,-88.22399,-190.92378,696.7204,-34.91773,-181.77774,613.07343,3.31334,-99.1673,666.69818
156,1.292,-88.10974,-190.91942,696.81201,-35.03778,-181.80388,613.23822,3.31334,-99.1673,666.69818
157,1.3,-88.10974,-190.91942,696.81201,-34.91773,-181.77774,613.07343,3.31334,-99.1673,666.69818
158,1.308,-88.10974,-190.91942,696.81201,-35.05058,-181.66757,613.05176,3.31334,-99.1673,666.69818
159,1.317,-88.22399,-190.92378,696.7204,-34.91773,-181.77774,613.07343,3.26795,-99.02401,666.56921
160,1.325,-88.22399,-190.92378,696.7204,-34.91773,-181.77774,613.07343,3.26795,-99.02401,666.56921
161,1.333,-88.22399,-190.92378,696.7204,-34.91773,-181.77774,613.07343,3.31334,-99.1673,666.69818
162,1.342,-88.10974,-190.91942,696.81201,-34.91773,-181.77774,613.07343,3.26795,-99.02401,666.56921
163,1.35,-88.10974,-190.91942,696.81201,-35.26347,-182.07001,613.76538,3.26795,-99.02401,666.56921
164,1.358,-88.10974,-190.91942,696.81201,-35.03778,-181.80388,613.23822,3.41892,-99.07222,666.68365
165,1.367,-88.10974,-190.91942,696.81201,-35.03778,-181.80388,613.23822,3.31334,-99.1673,666.69818
166,1.375,-88.10974,-190.91942,696.81201,-35.03778,-181.80388,613.23822,3.54108,-98.94082,666.55884
167,1.383,-88.10974,-190.91942,696.81201,-35.26347,-182.07001,613.76538,3.31334,-99.1673,666.69818
168,1.392,-88.22399,-190.92378,696.7204,-34.91773,-181.77774,613.07343,3.26795,-99.02401,666.56921
169,1.4,-88.10974,-190.91942,696.81201,-34.91773,-181.77774,613.07343,3.26795,-99.02401,666.56921
170,1.408,-88.10974,-190.91942,696.81201,-35.03778,-181.80388,613.23822,3.26795,-99.02401,666.56921
171,1.417,-88.22399,-190.92378,696.7204,-35.03778,-181.80388,613.23822,3.31334,-99.1673,666.69818
172,1.425,-88.10974,-190.91942,696.81201,-34.91773,-181.77774,613.07343,3.54108,-98.94082,666.55884
173,1.433,-88.22399,-190.92378,696.7204,-35.26347,-182.07001,613.76538,3.26795,-99.02401,666.56921
174,1.442,-88.22399,-190.92378,696.7204,-35.03778,-181.80388,613.23822,3.26795,-99.02401,666.56921
175,1.45,-88.10974,-190.91942,696.81201,-35.19209,-181.72824,613.1731,3.26795,-99.02401,666.56921
176,1.458,-88.10974,-190.91942,696.81201,-34.91773,-181.77774,613.07343,3.31334,-99.1673,666.69818
177,1.467,-88.10974,-190.91942,696.81201,-35.19209,-181.72824,613.1731,3.26795,-99.02401,666.56921
178,1.475,-88.10974,-190.91942,696.81201,-35.26347,-182.07001,613.76538,3.26795,-99.02401,666.56921
179,1.483,-88.10974,-190.91942,696.81201,-35.17063,-181.69371,613.21655,3.26795,-99.02401,666.56921
180,1.492,-88.10974,-190.91942,696.81201,-35.03778,-181.80388,613.23822,3.26795,-99.02401,666.56921
181,1.5,-88.22399,-190.92378,696.7204,-35.03778,-181.80388,613.23822,3.26795,-99.02401,666.56921
182,1.508,-88.10974,-190.91942,696.81201,-35.03778,-181.80388,613.23822,3.26795,-99.02401,666.56921
183,1.517,-88.10974,-190.91942,696.81201,-35.03778,-181.80388,613.23822,3.20995,-99.03589,666.10553
184,1.525,-88.22399,-190.92378,696.7204,-35.26347,-182.07001,613.76538,4.61469,-99.46568,667.63654
185,1.533,-88.10974,-190.91942,696.81201,-35.03778,-181.80388,613.23822,3.26795,-99.02401,666.56921
186,1.542,-88.22399,-190.92378,696.7204,-35.03778,-181.80388,613.23822,3.26795,-99.02401,666.56921
187,1.55,-88.10974,-190.91942,696.81201,-35.34549,-181.60487,613.14526,3.26795,-99.02401,666.56921
188,1.558,-88.22399,-190.92378,696.7204,-35.34549,-181.60487,613.14526,3.26795,-99.02401,666.56921
189,1.567,-88.10974,-190.91942,696.81201,-35.03778,-181.80388,613.23822,3.26795,-99.02401,666.56921
190,1.575,-88.10974,-190.91942,696.81201,-35.17063,-181.69371,613.21655,3.20995,-99.03589,666.10553
191,1.583,-87.87757,-190.61752,696.70721,-35.03778,-181.80388,613.23822,3.20995,-99.03589,666.10553
192,1.592,-88.10974,-190.91942,696.81201,-35.17063,-181.69371,613.21655,3.20995,-99.03589,666.10553
193,1.6,-88.10974,-190.91942,696.81201,-35.17063,-181.69371,613.21655,3.20995,-99.03589,666.10553
194,1.608,-88.22399,-190.92378,696.7204,-35.03778,-181.80388,613.23822,3.26795,-99.02401,666.56921
195,1.617,-88.10974,-190.91942,696.81201,-35.03778,-181.80388,613.23822,3.03888,-99.32845,666.25952
196,1.625,-88.10974,-190.91942,696.81201,-35.17063,-181.69371,613.21655,3.03888,-99.32845,666.25952
197,1.633,-88.22399,-190.92378,696.7204,-35.03778,-181.80388,613.23822,3.20995,-99.03589,666.10553
198,1.642,-88.22399,-190.92378,696.7204,-35.17063,-181.69371,613.21655,3.20995,-99.03589,666.10553
199,1.65,-88.22399,-190.92378,696.7204,-35.41823,-181.92693,613.73627,3.20995,-99.03589,666.10553
200,1.658,-88.22399,-190.92378,696.7204,-35.34549,-181.60487,613.14526,2.98079,-99.34029,665.79578
201,1.667,-88.10974,-190.91942,696.81201,-35.03778,-181.80388,613.23822,3.20995,-99.03589,666.10553
