Frame#,Time,L.Forearm.x,L.Forearm.y,L.Forearm.z,L.Ulna.x,L.Ulna.y,L.Ulna.z,L.Radius.x,L.Radius.y,L.Radius.z
1,0,-111.05212,351.59891,668.11725,-112.80711,392.59756,562.78101,-19.18957,369.2818,526.81378
2,0.008,-111.59135,351.8349,668.07391,-114.93298,392.84515,562.69708,-20.06754,370.1575,527.03693
3,0.017,-113.4023,353.35913,667.76672,-116.89599,391.62466,561.51373,-22.52448,372.0672,527.37561
4,0.025,-115.43816,353.30524,668.5191,-118.45261,391.44968,561.34698,-23.64977,372.72046,527.89984
5,0.033,-116.79739,353.92014,667.58441,-120.11745,390.40033,560.88397,-25.70811,372.40381,528.17603
6,0.042,-118.50384,354.05798,667.61121,-121.71152,389.7438,560.69739,-26.32115,372.55081,528.51093
7,0.05,-120.13052,352.68372,666.94226,-122.67143,389.05121,560.74091,-27.00053,372.42386,528.65601
8,0.058,-121.04934,351.45178,667.64697,-122.98145,388.31195,560.56537,-27.30745,371.78632,529.67657
9,0.067,-121.84858,349.67508,667.81,-123.16582,386.64288,560.94025,-27.3163,370.06964,530.18646
10,0.075,-121.68889,349.25928,668.44818,-123.41409,385.63129,560.96802,-27.03024,368.21228,530.79309
11,0.083,-121.69498,348.44861,668.28876,-122.82679,385.21655,561.5484,-26.11629,366.17657,531.63733
12,0.092,-121.5722,348.13876,668.46674,-121.33289,384.36285,561.88678,-25.68127,363.38593,531.73938
13,0.1,-120.67032,347.0657,668.70001,-119.63738,384.00552,562.56207,-23.8955,361.46112,531.56525
14,0.108,-118.48122,345.75671,669.82574,-118.53912,383.41641,562.59943,-22.71693,360.58157,531.63892
15,0.117,-117.24594,346.47098,670.177,-117.21753,383.33353,562.83929,-21.23722,358.79373,532.46875
16,0.125,-116.03634,346.24103,670.2113,-113.55021,385.3576,563.65302,-20.07331,357.99255,532.36792
17,0.133,-114.52295,345.01489,670.16589,-112.87498,385.33664,564.53699,-17.85384,357.68552,532.4873
18,0.142,-112.3237,343.86108,669.96936,-109.93304,385.70782,565.73969,-16.46593,357.08533,532.28174
19,0.15,-111.39059,339.33511,670.54846,-108.07845,386.72488,565.77814,-15.35921,357.01147,532.12982
20,0.158,-109.22475,341.62347,671.42554,-106.4408,386.74661,566.7121,-13.93582,356.25931,531.83289
21,0.167,-107.76669,341.76239,671.63153,-104.35293,387.14398,566.90997,-12.5737,356.67593,531.45422
22,0.175,-107.97047,341.30679,671.6131,-103.28168,388.94287,567.69153,-11.87889,357.66531,531.43658
23,0.183,-106.7022,342.17477,672.00616,-102.43107,390.0033,568.04077,-11.60632,357.54269,531.45813
24,0.192,-106.7022,342.17477,672.00616,-102.22956,390.08136,568.16553,-11.91589,357.78986,531.23236
25,0.2,-106.57881,342.97638,672.01111,-102.83585,390.10339,567.909,-11.63253,358.41901,531.03198
26,0.208,-106.69459,344.3472,671.4411,-103.67644,390.30359,567.72009,-12.27863,359.79764,531.2923
27,0.217,-106.8922,347.603,670.57886,-106.1105,390.28119,566.32782,-13.59935,361.61371,530.67816
28,0.225,-107.99108,348.94815,670.20819,-107.53108,390.48764,565.41241,-15.35254,363.27634,530.78448
29,0.233,-108.81549,349.53772,670.28046,-109.86333,390.46841,564.71033,-16.22966,363.34705,530.06738
30,0.242,-110.75164,349.7977,669.39227,-111.49009,390.20517,563.69678,-18.53354,364.58905,529.51215
31,0.25,-112.66634,349.65591,669.33594,-113.52985,388.9201,563.39252,-19.84054,366.94366,530.13495
32,0.258,-114.14724,351.22189,669.55908,-116.22662,389.42755,563.38751,-20.61294,367.74896,530.29639
33,0.267,-115.60979,350.97275,668.68945,-117.68625,388.64801,563.16815,-21.40635,367.96692,530.89685
34,0.275,-115.88882,350.96429,668.70496,-118.85515,386.44434,562.41052,-22.48678,368.23059,531.39886
35,0.283,-117.63934,350.13062,669.30261,-119.0079,384.46136,561.98511,-23.46618,368.42502,531.78973
36,0.292,-117.66681,347.98621,669.3894,-119.26129,384.0788,562.2478,-23.78398,368.30237,532.70953
37,0.3,-118.94947,347.48813,670.11731,-118.90536,383.58728,562.71204,-22.91106,366.85446,533.73315
38,0.308,-119.14532,347.39462,670.25507,-118.56232,383.27805,562.73267,-22.81662,364.4025,534.2702
39,0.317,-118.60673,346.57721,670.73041,-118.35118,383.23923,562.8681,-21.10403,362.26089,535.13434
40,0.325,-117.78823,345.96222,670.96429,-117.57059,383.05814,562.7818,-20.0572,360.32071,534.60571
41,0.333,-117.45965,346.23596,671.3299,-114.52541,382.87531,564.73822,-18.35264,358.1525,535.64941
42,0.342,-115.46075,346.58261,671.12927,-113.65421,383.29544,565.44635,-17.43912,355.45084,535.36121
43,0.35,-113.31817,345.41672,671.50745,-110.84529,383.7746,566.20502,-15.53376,354.82224,535.6109
44,0.358,-111.08763,343.31189,671.6496,-108.9631,384.17276,566.43445,-13.6449,354.91602,535.38947
45,0.367,-109.53639,342.36063,671.92993,-105.33869,385.10748,567.51422,-11.76231,353.98608,535.38025
46,0.375,-107.63497,341.69971,671.25592,-103.94176,384.39957,567.98132,-9.73626,353.68762,535.26514
47,0.383,-106.3376,340.95044,671.76056,-100.2812,385.55606,568.31647,-9.56461,353.26685,534.96533
48,0.392,-105.26686,339.95804,673.68634,-99.67996,386.13495,568.91754,-8.45472,353.02316,535.39294
49,0.4,-104.65977,340.4545,673.97253,-98.79533,386.33386,569.40411,-5.92588,354.05869,535.4057
50,0.408,-103.0255,340.72125,674.7179,-96.30325,386.91193,570.67621,-4.77395,354.12189,535.2951
51,0.417,-101.35915,341.68494,674.29846,-95.52123,386.68637,570.86517,-4.97313,355.01306,535.40015
52,0.425,-101.71305,343.20187,674.53528,-94.97894,388.08649,570.91559,-4.88447,355.05383,535.33655
53,0.433,-101.54243,343.94577,674.65283,-95.46051,388.39108,570.72314,-4.86223,355.99768,535.3078
54,0.442,-102.50488,344.57877,674.61157,-97.55419,390.66846,570.91724,-6.81252,357.58167,534.99689
55,0.45,-103.57418,345.55707,674.33276,-99.56744,391.47067,569.67438,-7.29089,358.91089,535.00488
56,0.458,-104.22028,346.58832,673.55292,-101.63336,391.12717,569.30524,-8.11442,361.35291,534.35657
57,0.467,-104.27932,347.50656,674.50458,-102.58489,390.97452,568.58936,-9.70323,363.53104,535.01654
58,0.475,-107.45573,349.53329,674.2569,-104.33019,390.86716,568.48163,-11.17436,365.08652,534.66821
59,0.483,-108.26323,349.65039,673.71741,-107.16011,390.22455,567.65802,-12.44868,366.71152,534.57605
60,0.492,-108.96349,349.47598,673.53693,-108.67044,390.146,566.51465,-13.68971,368.94257,535.30524
61,0.5,-110.56747,350.41177,673.12622,-110.13776,390.0361,566.46729,-14.16024,370.24359,536.37323
62,0.508,-111.4028,350.80118,673.26477,-112.69798,388.60593,565.9342,-15.85699,370.892,537.03558
63,0.517,-112.08248,350.48013,673.19684,-113.07468,388.08932,565.7829,-16.79243,371.15729,537.54449
64,0.525,-112.94631,350.05038,673.39642,-113.68347,386.93259,565.83234,-17.40454,370.19275,538.03699
65,0.533,-114.68254,349.6188,673.2666,-113.30634,386.11063,565.90613,-16.88202,369.12875,538.42566
66,0.542,-115.2821,349.25693,673.52173,-112.99494,384.73535,567.15771,-16.63343,367.85016,539.9942
67,0.55,-114.9642,349.02643,674.27942,-112.71957,384.5061,567.44739,-15.2851,364.80698,541.21466
68,0.558,-114.23424,348.53305,674.6369,-111.03061,384.11838,567.31305,-13.50274,363.11612,541.63702
69,0.567,-113.50655,347.11969,675.42926,-110.26691,383.74878,568.09583,-12.59551,360.62274,542.29987
70,0.575,-112.35083,347.84515,676.02014,-106.65461,384.75256,569.13171,-11.50341,359.21027,542.62817
71,0.583,-110.29827,346.51074,675.56622,-105.35822,385.41022,569.58124,-9.05129,356.88022,542.69019
72,0.592,-108.25599,345.38818,675.1806,-103.24928,385.18472,570.62781,-7.72512,356.56143,542.54785
73,0.6,-106.23991,344.28339,675.62604,-100.73483,385.34045,570.8313,-6.2173,355.59863,542.47675
74,0.608,-104.33675,343.642,675.94446,-98.51099,386.46069,571.85687,-4.08338,355.66846,541.83679
75,0.617,-102.80234,343.08487,676.31055,-96.34845,385.57462,572.10986,-2.73449,354.8591,541.55865
76,0.625,-102.54044,341.40546,677.04022,-94.81499,387.13718,572.466,-0.73593,354.63638,541.28918
77,0.633,-101.27158,340.68298,676.77789,-92.58908,387.54065,572.74084,0.26678,354.89899,541.18317
78,0.642,-100.09684,340.73404,677.4007,-91.64148,387.61478,572.98993,1.82245,354.54422,541.32507
79,0.65,-99.19957,340.3674,677.44873,-90.6324,387.9603,573.5365,2.23893,354.61389,540.8551
80,0.658,-98.18282,342.4808,677.28644,-90.2562,388.52618,573.53632,2.39489,354.8573,540.48767
81,0.667,-98.19341,344.08856,676.85785,-90.09387,388.42636,573.35474,2.34534,355.11987,540.6181
82,0.675,-98.6272,344.48724,677.00665,-90.27633,388.95987,573.49591,1.08515,357.19836,540.16675
83,0.683,-98.9566,344.86874,676.9483,-92.64986,389.61353,572.94995,1.04321,358.32977,539.70172
84,0.692,-100.2005,346.48883,677.00067,-94.12728,389.92801,572.7793,-1.38332,359.65347,539.57837
85,0.7,-101.02153,348.58856,675.78009,-96.48354,390.79877,572.12622,-2.77567,360.6467,539.39227
86,0.708,-102.38572,349.57272,675.34766,-99.72388,391.06894,571.10101,-4.18196,363.28644,540.24805
87,0.717,-104.25883,349.81198,675.29657,-100.8289,389.7728,569.95532,-5.79646,365.14517,540.42401
88,0.725,-106.76084,350.05594,675.25977,-102.73564,390.11188,569.35999,-6.57631,365.56354,540.31915
89,0.733,-108.39551,349.42838,675.1098,-105.00412,387.72122,568.03833,-8.12843,366.75204,541.28693
90,0.742,-109.60148,349.55176,674.43213,-106.4173,386.62848,568.09064,-9.26948,368.03006,541.65796
91,0.75,-110.32107,349.55887,674.23047,-107.47929,386.35931,567.64563,-10.12771,368.07788,542.19916
92,0.758,-111.60013,349.22247,674.48364,-107.99072,385.92078,567.49982,-11.07736,366.25067,542.78784
93,0.767,-112.11805,348.99438,674.85455,-109.2093,383.6752,567.34094,-11.56358,365.03131,543.23755
94,0.775,-113.05576,348.21002,675.15289,-109.4409,382.72488,567.97247,-10.68624,363.30649,543.74048
95,0.783,-113.83371,346.88306,676.05457,-107.76548,382.46436,568.12823,-9.79986,359.3309,544.8844
96,0.792,-113.76332,346.07217,676.38434,-105.92419,382.74304,569.21527,-9.21172,357.72452,544.95618
97,0.8,-112.91467,345.58557,676.86877,-103.89889,382.39334,569.28864,-8.16465,355.32874,545.76654
98,0.808,-111.59488,344.711,676.70514,-101.97248,381.68375,570.18939,-6.36605,352.91302,545.55011
99,0.817,-108.6451,342.10532,677.0011,-101.0647,380.9003,570.39771,-4.7806,352.05615,546.35596
100,0.825,-107.08687,342.42084,676.97839,-98.85112,381.39114,571.06232,-2.53142,351.44507,545.56311
101,0.833,-104.92126,342.7515,676.573,-96.12458,383.15427,571.98132,-1.49021,349.8248,545.19513
102,0.842,-103.43283,342.06088,676.65686,-94.71362,383.13464,571.94641,0.60202,349.33743,543.77441
103,0.85,-101.77345,339.12567,676.32269,-91.48229,382.9165,572.2691,2.35045,348.54034,543.73743
104,0.858,-100.01999,339.47543,676.03522,-89.75895,384.17007,572.96692,3.34725,349.11987,543.47455
105,0.867,-99.09502,338.41983,676.33124,-88.30718,383.8476,573.3194,4.13529,349.28101,543.13342
106,0.875,-97.91906,338.49222,676.95807,-87.75494,383.80826,573.90131,5.55271,349.96426,542.88037
107,0.883,-97.30603,338.7728,677.09058,-86.3475,384.74661,573.82581,5.90724,350.49646,542.78925
108,0.892,-97.46361,339.37531,676.88403,-85.75272,385.43262,573.90729,5.99169,351.44196,542.28668
109,0.9,-97.68684,340.60965,677.32593,-86.36098,385.31219,573.54041,5.80671,352.54288,541.95782
110,0.908,-97.00834,344.10214,675.98206,-88.26807,386.80988,572.01715,4.30579,354.04312,541.04156
111,0.917,-97.95837,345.51154,676.04358,-90.69581,386.65552,571.92834,2.93436,354.61392,540.66071
112,0.925,-98.9484,346.21127,675.23138,-91.50404,387.11392,570.62921,1.828,357.28354,540.27026
113,0.933,-101.25339,347.73788,675.05786,-94.20459,387.4523,569.9892,0.39331,358.9917,539.93823
114,0.942,-102.9597,348.22067,674.70868,-97.96241,386.0766,567.89203,-2.44199,360.71732,539.59265
115,0.95,-104.94117,348.27115,674.97931,-99.41287,386.38397,567.54034,-3.86362,363.97647,540.44177
116,0.958,-107.98,348.90741,673.98743,-102.07406,385.26794,566.60565,-6.49567,365.43408,539.98444
117,0.967,-109.12257,349.16418,673.9884,-105.39414,386.19852,566.63086,-7.24906,365.52383,539.95044
118,0.975,-111.26274,349.49884,673.44385,-106.75274,385.77475,565.91022,-9.24038,367.21219,540.47418
119,0.983,-111.71673,349.39413,673.38147,-108.69345,385.3139,566.05518,-10.64758,367.6998,540.79236
120,0.992,-114.09322,349.73956,672.5376,-109.80784,384.15103,565.17377,-11.82265,367.27359,541.32904
121,1,-115.49804,349.35666,672.97736,-110.40434,383.71466,565.53442,-11.84055,365.10181,543.00134
122,1.008,-115.76521,349.345,673.23053,-110.67306,383.25354,566.0329,-11.89144,364.33453,543.09326
123,1.017,-116.68463,348.5621,674.01868,-109.78629,382.32849,566.47125,-11.87044,362.01901,543.66272
124,1.025,-116.08224,347.72495,674.54871,-109.38541,382.14557,567.03717,-9.83796,358.98212,544.74426
125,1.033,-116.15988,347.54779,674.59192,-108.24548,381.59164,566.79858,-9.77747,358.10529,544.92725
126,1.042,-115.45601,346.93292,675.11438,-106.5375,381.77573,567.69116,-9.11584,356.94754,545.73016
127,1.05,-114.31774,346.8519,674.87854,-104.10829,383.00745,567.99475,-7.47656,353.51489,545.52783
128,1.058,-112.20824,344.23322,676.18707,-102.17953,383.10318,568.52643,-6.02313,353.24963,545.07922
129,1.067,-109.81815,344.28076,676.0094,-100.81161,383.88004,568.88373,-4.87625,353.12692,545.36798
130,1.075,-108.18849,343.83234,676.00677,-97.85348,384.89734,569.35956,-3.02009,352.18289,544.48755
131,1.083,-105.99629,343.48361,675.93469,-96.16986,385.16833,570.32281,-1.46165,352.69034,544.20471
132,1.092,-104.70778,343.26227,675.3858,-94.94289,386.08173,571.02045,0.04983,352.44031,543.54272
133,1.1,-103.55631,343.53772,675.29401,-92.73421,386.78317,570.78699,0.94725,352.63519,542.44934
134,1.108,-102.80501,342.77078,675.31848,-91.24771,387.04922,571.3653,2.27139,352.42114,542.45416
135,1.117,-103.38947,342.32224,675.93158,-90.97639,387.1524,571.60168,2.50198,352.50403,542.29913
136,1.125,-102.41582,343.16034,675.59857,-90.78096,387.33145,571.40894,2.53952,353.6756,541.33588
137,1.133,-102.99694,344.02277,675.24091,-90.95014,387.3913,571.40607,2.23651,354.12213,541.13391
138,1.142,-103.24971,343.91769,675.70441,-91.2483,387.52118,571.21277,2.35897,354.06589,541.20996
139,1.15,-104.0246,344.8252,675.61646,-92.54486,387.4046,570.56903,0.67453,354.49619,540.29724
140,1.158,-104.81026,345.27274,675.32758,-94.49702,387.72723,569.52692,-1.18344,356.41104,540.14325
141,1.167,-105.00092,346.45206,675.33142,-96.49194,388.14618,567.70789,-3.71553,358.09186,538.94049
142,1.175,-107.37508,347.84692,674.88745,-99.12827,388.63531,567.48938,-4.30313,358.58871,538.65253
143,1.183,-108.8005,348.30026,673.95294,-101.40642,389.78851,567.81445,-6.89156,359.33069,538.2464
144,1.192,-110.7681,350.05676,672.7326,-104.42223,388.56995,566.38428,-8.30328,360.56909,538.41998
145,1.2,-112.01716,349.96832,672.46265,-106.6897,386.98663,564.42871,-10.24188,362.85666,538.47144
146,1.208,-114.24454,350.98209,671.42645,-108.20418,386.7471,564.45844,-11.5444,363.60748,538.65607
147,1.217,-116.10622,351.47339,671.57129,-111.11842,384.62067,563.52478,-13.43391,364.11658,538.96375
148,1.225,-118.86495,350.99573,670.01654,-112.81326,385.30841,563.48071,-15.38656,364.16821,539.00464
149,1.233,-120.42719,350.31262,670.20868,-113.56597,385.22827,562.91455,-16.31133,363.97626,539.95734
150,1.242,-121.45977,349.6073,670.56573,-114.54026,383.54199,562.81647,-16.51732,363.2446,540.42279
151,1.25,-121.7739,349.65131,670.7099,-115.30025,382.3945,562.99628,-16.31119,361.63821,541.89301
152,1.258,-121.81714,348.75131,671.35052,-115.01209,382.19598,563.2536,-15.72441,359.55301,542.24469
153,1.267,-121.7272,348.57541,671.65295,-114.40709,379.72293,563.44507,-15.67469,356.44312,543.18292
154,1.275,-121.32989,347.88092,672.28247,-111.98636,379.1897,564.01611,-14.51961,354.34979,542.99384
155,1.283,-120.25047,346.43253,672.09973,-110.10808,379.19327,564.76697,-13.62334,351.98764,543.4093
156,1.292,-118.29943,345.63968,672.35486,-108.01668,379.78177,565.4707,-11.42925,351.13397,543.67786
157,1.3,-117.3649,344.71118,672.56085,-107.10983,379.65793,565.57452,-10.33459,350.02301,543.07422
158,1.308,-114.61369,343.24539,672.40485,-103.54535,380.38019,566.07233,-8.43325,348.63632,542.55267
159,1.317,-112.91473,342.90723,671.65106,-101.7175,380.98288,566.5625,-6.5314,347.64728,541.7746
160,1.325,-110.13481,341.96475,671.9696,-99.71225,380.73709,566.96826,-4.18786,348.05853,542.0401
161,1.333,-108.90006,341.02216,672.33514,-97.0288,381.86603,567.31091,-2.51842,348.37115,541.57831
162,1.342,-107.74008,340.2821,673.37726,-96.0503,382.73917,567.91467,-1.46041,348.60934,541.06268
163,1.35,-106.03316,340.8743,672.86188,-94.85786,383.25235,568.27301,-0.85832,348.64859,541.16858
164,1.358,-106.05046,340.67575,674.09711,-93.54929,382.88425,568.25183,0.25374,348.95139,540.98981
165,1.367,-105.57188,340.77267,674.14008,-92.26039,383.94077,568.99609,0.43118,349.49979,540.89789
166,1.375,-105.44329,342.69766,674.61865,-92.61111,384.78262,569.47083,0.64741,350.72931,540.90833
167,1.383,-105.15401,343.8266,674.79767,-92.8646,384.94382,569.60931,0.24645,351.58948,540.36951
168,1.392,-105.42169,344.09576,674.82166,-94.06557,385.73633,569.6131,-0.49367,351.99432,540.09369
169,1.4,-106.0943,345.16098,674.17963,-96.06547,384.98615,568.2207,-1.566,352.44263,540.21149
170,1.408,-107.32095,345.86331,673.6377,-97.52809,385.68683,567.56177,-3.58617,353.84097,540.00494
171,1.417,-109.03597,347.63773,673.45752,-99.37601,386.33502,567.04187,-4.8091,355.99384,539.83875
172,1.425,-110.52097,349.41663,671.81287,-102.64339,385.25885,566.11017,-7.17308,357.716,538.26648
173,1.433,-112.43053,348.54895,671.66217,-104.63113,384.8045,564.20349,-9.08229,358.36151,538.59021
174,1.442,-114.50025,348.94424,671.39874,-107.48875,385.72498,563.7533,-11.02105,359.17969,538.76538
175,1.45,-116.54395,349.09149,670.8324,-110.00313,384.22415,563.19061,-12.73121,361.10544,539.13782
176,1.458,-119.31673,350.21127,669.92841,-111.9057,384.54926,562.92993,-15.30327,361.80301,538.81805
177,1.467,-121.50826,349.74252,670.22473,-114.22253,384.26276,562.39734,-16.37192,362.02594,538.41882
178,1.475,-122.34519,349.16544,669.3493,-116.09116,382.38049,562.00745,-17.72712,361.26538,539.53461
179,1.483,-124.01798,348.94937,669.46356,-116.94907,382.63901,562.18036,-19.06947,360.31152,540.0271
180,1.492,-125.63819,348.30188,669.69458,-116.93006,381.34283,561.91644,-19.62728,358.14908,540.91168
181,1.5,-126.32485,347.0123,670.16718,-116.53027,380.63022,562.13513,-19.63899,356.61066,540.79553
182,1.508,-126.33773,346.9877,670.44336,-115.93375,380.02084,562.93347,-18.67533,355.04175,542.09729
183,1.517,-126.03241,346.60602,670.49634,-115.42867,378.45523,563.02313,-18.84242,352.26947,542.48938
184,1.525,-125.20994,345.73981,670.85413,-114.35764,378.02872,563.13263,-18.10186,350.09683,543.14771
185,1.533,-123.65162,344.66989,671.36194,-112.54041,377.59048,563.91357,-16.09498,348.62949,542.63733
186,1.542,-122.03288,343.27173,670.89618,-111.65411,377.90146,564.39325,-15.95111,347.72409,542.57745
187,1.55,-119.41446,343.0542,670.98151,-108.87463,379.06915,565.34113,-14.2711,346.66727,542.0285
188,1.558,-118.38371,342.65988,671.63727,-107.43216,379.33447,565.13678,-12.33457,345.48346,541.07898
189,1.567,-114.99044,341.25748,671.56195,-106.07362,379.56995,565.75995,-10.62601,345.56219,540.7865
190,1.575,-113.81339,341.00043,671.89703,-102.68378,380.11679,566.13641,-8.11397,345.79553,540.2453
191,1.583,-113.01537,340.61761,670.93604,-101.53791,380.89767,566.93622,-7.5177,345.87296,539.80121
192,1.592,-110.28565,340.8331,670.95898,-99.71225,380.73709,566.96826,-6.90748,345.94202,539.23541
193,1.6,-109.74809,341.59656,670.98962,-97.96246,380.79776,567.19989,-6.08817,346.63626,538.96283
194,1.608,-109.12493,341.54376,671.17139,-97.0288,381.86603,567.31091,-5.39218,346.76208,538.50446
195,1.617,-109.43501,341.13922,671.14697,-96.583,383.02081,567.61389,-5.11103,347.13803,537.85236
196,1.625,-109.02673,341.76917,670.91565,-97.33775,383.57208,567.17328,-5.77145,347.87247,537.06976
197,1.633,-109.30287,342.35159,670.77936,-99.1963,383.67386,566.58716,-6.62215,348.90457,536.54846
198,1.642,-109.52182,342.48407,670.64386,-100.81226,384.28833,566.00494,-8.02516,350.25006,535.85315
199,1.65,-111.2671,343.49484,670.11676,-103.02005,383.79321,564.54553,-9.72025,352.0737,534.92535
200,1.658,-112.94658,345.05472,670.05945,-105.19437,384.78949,563.44891,-10.81105,353.28561,535.03662
