Frame#,Time,L.Forearm.x,L.Forearm.y,L.Forearm.z,L.Ulna.x,L.Ulna.y,L.Ulna.z,L.Radius.x,L.Radius.y,L.Radius.z
1,0,-186.94827,308.11755,927.87036,-134.60536,282.3847,872.07117,-145.74301,224.14969,941.04236
2,0.008,-187.0919,308.04034,927.8111,-134.60536,282.3847,872.07117,-145.57318,224.18307,941.06726
3,0.017,-187.24864,308.33878,927.88385,-134.60536,282.3847,872.07117,-145.83861,224.82547,941.06268
4,0.025,-187.15919,308.46555,927.80536,-134.60536,282.3847,872.07117,-146.00848,224.7921,941.03778
5,0.033,-187.105,308.41602,927.94312,-134.8326,283.3783,872.13855,-145.83861,224.82547,941.06268
6,0.042,-187.21907,308.44269,928.15149,-134.67857,283.42859,872.72522,-145.83861,224.82547,941.06268
7,0.05,-187.36273,308.36545,928.09222,-135.07108,283.77649,873.15668,-146.23827,224.99571,941.13422
8,0.058,-187.53778,309.09586,927.93439,-135.44481,284.05792,873.14429,-146.54251,225.13063,941.09229
9,0.067,-187.86534,308.99619,927.8808,-135.67819,284.14798,873.06842,-146.74467,225.17084,941.37518
10,0.075,-187.9131,308.965,927.97748,-135.87329,284.11124,873.12018,-146.92053,225.02359,941.15491
11,0.083,-188.75475,309.06955,927.93903,-136.37796,284.44623,873.52454,-147.23468,225.09444,941.14636
12,0.092,-188.521,309.02963,927.85876,-136.37796,284.44623,873.52454,-147.33728,225.10349,941.17212
13,0.1,-188.68381,309.16763,927.83887,-136.33859,284.28183,873.27161,-147.60263,225.21555,941.24512
14,0.108,-188.91568,309.38129,927.8374,-136.57237,284.53156,873.45093,-147.60263,225.21555,941.24512
15,0.117,-188.9866,309.2832,927.93756,-136.57237,284.53156,873.45093,-147.69087,225.07935,941.15863
16,0.125,-188.9866,309.2832,927.93756,-136.57237,284.53156,873.45093,-147.7588,224.97162,941.04877
17,0.133,-188.9866,309.2832,927.93756,-136.57237,284.53156,873.45093,-147.69087,225.07935,941.15863
18,0.142,-188.91568,309.38129,927.8374,-136.49266,284.2316,872.68475,-147.60263,225.21555,941.24512
19,0.15,-189.05714,309.63263,927.80902,-136.49266,284.2316,872.68475,-147.96039,225.7169,941.76666
20,0.158,-189.05714,309.63263,927.80902,-136.49266,284.2316,872.68475,-147.60263,225.21555,941.24512
21,0.167,-189.05714,309.63263,927.80902,-136.49266,284.2316,872.68475,-147.7603,225.29204,941.32977
22,0.175,-189.05714,309.63263,927.80902,-136.49266,284.2316,872.68475,-147.60263,225.21555,941.24512
23,0.183,-188.96779,309.75931,927.73059,-136.49266,284.2316,872.68475,-147.7603,225.29204,941.32977
24,0.192,-188.96779,309.75931,927.73059,-136.49266,284.2316,872.68475,-147.60263,225.21555,941.24512
25,0.2,-189.05714,309.63263,927.80902,-136.49266,284.2316,872.68475,-147.7603,225.29204,941.32977
26,0.208,-189.05714,309.63263,927.80902,-136.57237,284.53156,873.45093,-147.7603,225.29204,941.32977
27,0.217,-189.28871,309.5791,927.91132,-136.57237,284.53156,873.45093,-147.78595,225.2272,941.39325
28,0.225,-189.28871,309.5791,927.91132,-136.57237,284.53156,873.45093,-148.4446,225.03258,941.3161
29,0.233,-189.14725,309.32779,927.9397,-136.57237,284.53156,873.45093,-148.4446,225.03258,941.3161
30,0.242,-189.30484,309.47238,928.0426,-136.57237,284.53156,873.45093,-148.4446,225.03258,941.3161
31,0.25,-189.37151,309.62476,927.99561,-136.57237,284.53156,873.45093,-148.51253,224.92484,941.2063
32,0.258,-189.37151,309.62476,927.99561,-136.81252,284.57376,873.2002,-148.55054,224.84879,941.13202
33,0.267,-189.37151,309.62476,927.99561,-136.81252,284.57376,873.2002,-148.55054,224.84879,941.13202
34,0.275,-189.69437,309.7749,927.94794,-136.81252,284.57376,873.2002,-148.55054,224.84879,941.13202
35,0.283,-189.73375,309.49802,927.60577,-136.91414,284.37527,873.409,-148.55054,224.84879,941.13202
36,0.292,-189.97382,309.62268,927.7356,-137.05264,284.61627,872.94952,-148.55054,224.84879,941.13202
37,0.3,-189.97382,309.62268,927.7356,-137.20685,284.56583,872.36261,-148.62741,224.95552,941.03204
38,0.308,-190.2328,309.5867,927.59521,-137.20685,284.56583,872.36261,-148.77,225.03192,941.11591
39,0.317,-190.20836,309.50037,927.4231,-137.20685,284.56583,872.36261,-148.62741,224.95552,941.03204
40,0.325,-190.29041,309.43686,927.26288,-137.20685,284.56583,872.36261,-148.62741,224.95552,941.03204
41,0.333,-190.20836,309.50037,927.4231,-137.20685,284.56583,872.36261,-148.71007,225.17773,940.91266
42,0.342,-190.39969,309.51431,927.21606,-137.20685,284.56583,872.36261,-148.85268,225.25415,940.99652
43,0.35,-190.39969,309.51431,927.21606,-137.20685,284.56583,872.36261,-148.8918,225.32471,940.93298
44,0.358,-190.39969,309.51431,927.21606,-137.20685,284.56583,872.36261,-148.85268,225.25415,940.99652
45,0.367,-190.74104,309.75854,927.01917,-137.20685,284.56583,872.36261,-148.8918,225.32471,940.93298
46,0.375,-190.86685,309.6347,927.00513,-137.20685,284.56583,872.36261,-148.85268,225.25415,940.99652
47,0.383,-190.74104,309.75854,927.01917,-137.20685,284.56583,872.36261,-148.82338,225.34288,941.08405
48,0.392,-190.72433,309.57123,926.91431,-137.20685,284.56583,872.36261,-148.90508,225.39291,941.06616
49,0.4,-190.86685,309.6347,927.00513,-137.20685,284.56583,872.36261,-149.20789,225.40063,941.14203
50,0.408,-191.08813,309.61743,927.02271,-137.54257,284.33551,872.62103,-149.15549,225.26186,941.07233
51,0.417,-191.08813,309.61743,927.02271,-137.81349,284.42065,872.84595,-149.15549,225.26186,941.07233
52,0.425,-191.19798,309.60092,927.07257,-137.81349,284.42065,872.84595,-149.4745,225.13127,941.16132
53,0.433,-191.23926,309.45029,926.98505,-137.71185,284.6192,872.63715,-149.79942,225.09396,941.05688
54,0.442,-191.13712,309.39203,926.90625,-137.38376,284.07782,872.11353,-149.91579,224.79285,940.99408
55,0.45,-191.13712,309.39203,926.90625,-137.93382,283.39551,872.06024,-149.98828,224.82693,940.63239
56,0.458,-190.94073,308.80814,926.91534,-137.93382,283.39551,872.06024,-150.25102,224.49477,940.12299
57,0.467,-190.94073,308.80814,926.91534,-137.55612,282.3385,871.64215,-150.56876,223.77211,940.24084
58,0.475,-191.08963,308.71362,926.83887,-137.55612,282.3385,871.64215,-150.68033,223.52028,940.23267
59,0.483,-190.75969,308.0835,926.52972,-137.55612,282.3385,871.64215,-150.68033,223.52028,940.23267
60,0.492,-191.29518,307.94061,926.41644,-137.55612,282.3385,871.64215,-150.7377,223.44427,940.15936
61,0.5,-190.80151,307.88538,926.48907,-137.55612,282.3385,871.64215,-150.84669,223.36826,940.08893
62,0.508,-191.09839,307.7807,926.42603,-137.55612,282.3385,871.64215,-150.7782,223.27942,939.99628
63,0.517,-191.09839,307.7807,926.42603,-137.55612,282.3385,871.64215,-150.7782,223.27942,939.99628
64,0.525,-191.09839,307.7807,926.42603,-137.55612,282.3385,871.64215,-150.66612,223.36813,940.07922
65,0.533,-191.2986,307.94583,926.63452,-138.15202,282.49567,871.73145,-150.7782,223.27942,939.99628
66,0.542,-191.1554,307.74844,926.66357,-138.15202,282.49567,871.73145,-150.68033,223.52028,940.23267
67,0.55,-191.21025,307.8436,926.77386,-138.15202,282.49567,871.73145,-150.7377,223.44427,940.15936
68,0.558,-191.21117,308.13309,927.09869,-138.15202,282.49567,871.73145,-150.68033,223.52028,940.23267
69,0.567,-191.29951,308.23532,926.95941,-138.48958,282.61523,872.19214,-150.68033,223.52028,940.23267
70,0.575,-191.21117,308.13309,927.09869,-138.48958,282.61523,872.19214,-150.67053,223.25632,940.42157
71,0.583,-191.1967,308.43649,927.19934,-138.77556,282.65073,872.17609,-150.55307,223.52121,940.44641
72,0.592,-191.34375,308.35983,927.14166,-138.77556,282.65073,872.17609,-150.55307,223.52121,940.44641
73,0.6,-191.43211,308.4621,927.00238,-138.77556,282.65073,872.17609,-150.14536,223.97296,940.78052
74,0.608,-191.34375,308.35983,927.14166,-138.77556,282.65073,872.17609,-150.78333,223.54045,940.50549
75,0.617,-191.57379,308.40613,927.05206,-138.77556,282.65073,872.17609,-150.95323,223.50682,940.48059
76,0.625,-191.79045,308.28549,927.1593,-138.77556,282.65073,872.17609,-150.83575,223.31647,940.41333
77,0.633,-191.79045,308.28549,927.1593,-138.77556,282.65073,872.17609,-150.83575,223.31647,940.41333
78,0.642,-191.65788,308.05872,927.11627,-139.06161,282.68643,872.1601,-151.00783,223.04837,940.52545
79,0.65,-191.36188,307.93808,927.11591,-139.06161,282.68643,872.1601,-151.16724,222.8867,940.44061
80,0.658,-191.4637,307.69806,926.78381,-138.61459,282.23099,871.8988,-151.25858,222.75832,940.52167
81,0.667,-191.4637,307.69806,926.78381,-138.23215,282.12234,871.73895,-151.36755,222.68234,940.45123
82,0.675,-191.30612,307.55341,926.68079,-138.23215,282.12234,871.73895,-151.48485,222.66324,940.27063
83,0.683,-191.62267,306.94019,926.53424,-138.1084,282.03729,871.59845,-151.43359,222.23012,939.95715
84,0.692,-191.37735,307.23651,926.61835,-138.03152,281.78989,871.35468,-151.30208,222.02943,939.69012
85,0.7,-191.17894,307.21893,926.56726,-138.03152,281.78989,871.35468,-151.30208,222.02943,939.69012
86,0.708,-191.05116,306.79105,926.38556,-137.43556,281.63263,871.26538,-151.30305,222.09537,939.28967
87,0.717,-190.93532,306.9606,926.38379,-137.6104,281.05084,871.12518,-151.20818,222.09314,939.13165
88,0.725,-190.93532,306.9606,926.38379,-137.6104,281.05084,871.12518,-151.20818,222.09314,939.13165
89,0.733,-191.14711,306.99713,926.45703,-137.43556,281.63263,871.26538,-151.30305,222.09537,939.28967
90,0.742,-190.93532,306.9606,926.38379,-137.6104,281.05084,871.12518,-151.16301,222.06718,939.07953
91,0.75,-191.38449,306.66025,926.19781,-137.6104,281.05084,871.12518,-151.11842,222.37427,939.40704
92,0.758,-191.1806,306.66431,926.29968,-137.89658,281.08661,871.10919,-151.30208,222.02943,939.69012
93,0.767,-191.42079,307.13358,926.51593,-137.74547,281.75424,871.37067,-151.30208,222.02943,939.69012
94,0.775,-191.54045,306.79739,926.3689,-138.03152,281.78989,871.35468,-151.43359,222.23012,939.95715
95,0.783,-191.62267,306.94019,926.53424,-138.61653,281.32886,871.33899,-151.49301,222.15691,940.15662
96,0.792,-191.66611,306.83728,926.43182,-138.69342,281.5762,871.58276,-151.6732,222.39421,940.37677
97,0.8,-191.72493,307.02158,926.46063,-138.93562,281.25616,871.68878,-151.87148,222.27878,940.55609
98,0.808,-191.72493,307.02158,926.46063,-139.57922,281.27512,871.95972,-151.87148,222.27878,940.55609
99,0.817,-192.17865,307.28687,926.56403,-139.57922,281.27512,871.95972,-151.87148,222.27878,940.55609
100,0.825,-192.30312,306.41943,926.66724,-139.57922,281.27512,871.95972,-152.05602,221.99982,940.43866
101,0.833,-192.41728,306.66693,926.87262,-139.57922,281.27512,871.95972,-152.45665,222.17108,940.51019
102,0.842,-192.467,306.52463,926.93524,-139.57922,281.27512,871.95972,-152.19638,221.325,940.64026
103,0.85,-192.467,306.52463,926.93524,-139.57922,281.27512,871.95972,-152.56186,221.30753,940.47839
104,0.858,-192.467,306.52463,926.93524,-139.57922,281.27512,871.95972,-152.56186,221.30753,940.47839
105,0.867,-192.33791,306.23984,926.9726,-139.89972,280.90173,871.8136,-152.56186,221.30753,940.47839
106,0.875,-192.20024,306.09244,926.86017,-139.99792,280.81235,871.9129,-152.28836,221.18452,940.55762
107,0.883,-191.96581,306.1145,926.77954,-139.89972,280.90173,871.8136,-151.84492,220.90085,940.37122
108,0.892,-192.04164,306.11911,926.97223,-139.89972,280.90173,871.8136,-151.84492,220.90085,940.37122
109,0.9,-192.16925,305.85251,926.89636,-139.89972,280.90173,871.8136,-151.81921,220.92438,940.39343
110,0.908,-192.09726,306.03339,926.89008,-139.89972,280.90173,871.8136,-151.88762,221.01318,940.48602
111,0.917,-191.91017,306.20026,926.86169,-139.57922,281.27512,871.95972,-151.81921,220.92438,940.39343
112,0.925,-192.14461,306.17819,926.94238,-139.57922,281.27512,871.95972,-151.88762,221.01318,940.48602
113,0.933,-191.91017,306.20026,926.86169,-139.57922,281.27512,871.95972,-151.79564,221.15367,940.56873
114,0.942,-192.54082,306.50943,927.18353,-139.5343,281.28601,872.26074,-151.77446,221.21548,940.6969
115,0.95,-192.40932,306.59058,927.073,-139.5343,281.28601,872.26074,-151.70981,221.31839,940.81067
116,0.958,-192.66154,306.67883,927.38373,-139.9218,281.14059,872.68054,-152.11053,221.48972,940.88226
117,0.967,-192.72766,306.52521,927.64136,-139.9218,281.14059,872.68054,-152.11734,221.75693,940.80621
118,0.975,-193.02469,306.57468,927.82587,-139.9218,281.14059,872.68054,-152.31145,221.92973,940.75848
119,0.983,-192.69066,307.02295,927.77216,-139.9218,281.14059,872.68054,-152.4566,222.22722,940.69751
120,0.992,-193.32622,306.63986,928.1059,-139.79395,281.50351,872.85132,-152.58881,222.02831,941.09729
121,1,-193.55605,306.61337,928.11542,-139.79395,281.50351,872.85132,-152.62517,222.03613,941.27441
122,1.008,-193.39929,306.75839,928.33728,-141.31917,281.797,873.40112,-152.84375,222.12601,941.3988
123,1.017,-193.39929,306.75839,928.33728,-141.1133,281.38834,873.42487,-153.03889,222.04779,941.74744
124,1.025,-193.39929,306.75839,928.33728,-141.31917,281.797,873.40112,-153.22818,222.06021,941.58905
125,1.033,-193.39929,306.75839,928.33728,-141.1133,281.38834,873.42487,-153.12737,222.07823,941.53412
126,1.042,-193.55984,306.53406,928.51575,-141.1133,281.38834,873.42487,-153.37064,222.13634,941.67285
127,1.05,-193.55984,306.53406,928.51575,-141.27893,281.33163,873.49542,-153.28583,221.65215,941.14575
128,1.058,-193.55984,306.53406,928.51575,-141.30634,280.96692,873.08136,-153.15361,221.68588,941.17255
129,1.067,-193.55984,306.53406,928.51575,-141.72644,280.59698,873.21527,-153.44252,221.40884,940.94934
130,1.075,-193.55984,306.53406,928.51575,-141.72644,280.59698,873.21527,-153.44252,221.40884,940.94934
131,1.083,-193.55984,306.53406,928.51575,-141.14067,281.02365,873.01074,-154.01596,221.65852,941.23071
132,1.092,-193.55984,306.53406,928.51575,-141.14067,281.02365,873.01074,-153.32298,221.83128,941.31427
133,1.1,-193.48882,306.63196,928.41565,-140.86919,280.93784,872.78534,-152.78668,221.59105,941.04456
134,1.108,-193.07182,306.62027,928.33472,-140.86919,280.93784,872.78534,-152.4606,221.62244,940.85907
135,1.117,-193.25902,306.65845,928.40613,-140.35692,280.80997,872.81122,-152.4606,221.62244,940.85907
136,1.125,-192.98228,306.7467,928.25635,-140.35692,280.80997,872.81122,-152.24886,221.51997,940.89728
137,1.133,-193.39929,306.75839,928.33728,-140.35692,280.80997,872.81122,-152.37709,221.92586,941.1355
138,1.142,-192.98228,306.7467,928.25635,-139.79395,281.50351,872.85132,-152.64163,222.48689,941.55804
139,1.15,-192.72304,307.29401,928.26508,-139.99982,281.91238,872.8277,-152.16206,222.34673,941.22522
140,1.158,-192.91025,307.33221,928.33649,-140.4845,282.40497,873.21582,-151.63982,222.86041,941.60974
141,1.167,-192.91025,307.33221,928.33649,-140.75581,282.49066,873.4411,-151.63982,222.86041,941.60974
142,1.175,-192.99078,308.08591,928.32556,-140.85498,283.16989,873.68176,-151.78571,223.07884,941.77759
143,1.183,-192.99078,308.08591,928.32556,-141.07793,282.86279,873.85095,-152.22285,223.04573,942.05634
144,1.192,-193.43602,308.27808,928.65417,-141.07793,282.86279,873.85095,-152.34106,223.06712,942.07416
145,1.2,-193.52682,308.27042,928.80426,-141.07793,282.86279,873.85095,-152.55432,222.97192,942.01459
146,1.208,-193.59467,308.17719,928.90796,-141.07793,282.86279,873.85095,-152.55432,222.97192,942.01459
147,1.217,-193.59467,308.17719,928.90796,-141.2291,282.9278,874.20172,-152.71228,222.71983,941.93671
148,1.225,-193.84024,307.88074,928.82385,-141.2291,282.9278,874.20172,-152.90968,222.46564,941.78278
149,1.233,-193.84024,307.88074,928.82385,-141.2291,282.9278,874.20172,-153.37737,222.40353,941.59686
150,1.242,-193.84024,307.88074,928.82385,-141.2291,282.9278,874.20172,-153.69336,222.54298,941.56793
151,1.25,-193.93289,307.74976,928.89862,-141.39464,282.87109,874.27234,-153.68666,222.2758,941.64392
152,1.258,-193.75011,306.91434,928.98309,-141.14435,282.12689,873.68079,-153.68666,222.2758,941.64392
153,1.267,-193.74643,306.72913,928.79657,-141.48479,281.7403,873.47174,-153.68666,222.2758,941.64392
154,1.275,-193.65065,306.52637,928.66589,-141.31917,281.797,873.40112,-153.37064,222.13634,941.67285
155,1.283,-193.65065,306.52637,928.66589,-141.31917,281.797,873.40112,-153.37064,222.13634,941.67285
156,1.292,-193.65065,306.52637,928.66589,-141.31917,281.797,873.40112,-153.91304,222.41786,941.98462
157,1.3,-193.55984,306.53406,928.51575,-141.31917,281.797,873.40112,-153.37064,222.13634,941.67285
158,1.308,-193.39929,306.75839,928.33728,-141.31917,281.797,873.40112,-152.89644,221.97166,941.66357
159,1.317,-193.2653,306.98764,928.45844,-140.97876,282.18356,873.61023,-152.58437,221.80077,941.59515
160,1.325,-192.98228,306.7467,928.25635,-140.50682,282.06256,873.59412,-152.72684,221.87692,941.67902
161,1.333,-192.68134,307.69888,928.75238,-140.50682,282.06256,873.59412,-151.9599,222.35492,941.74188
162,1.342,-192.44388,307.80521,928.77917,-140.50682,282.06256,873.59412,-151.63043,222.77539,941.94452
163,1.35,-192.64021,308.38937,928.77002,-140.38322,283.04892,873.66571,-151.60468,223.02678,942.0047
164,1.358,-192.64021,308.38937,928.77002,-140.2171,283.08679,873.91833,-151.56631,223.16615,942.13354
165,1.367,-192.58058,308.51987,928.78351,-140.08658,283.40002,874.10504,-151.53078,223.32765,942.22729
166,1.375,-192.85944,308.56369,929.01917,-140.27925,283.38974,874.12976,-151.66895,223.57079,942.21222
167,1.383,-192.47116,308.81308,928.77789,-140.27925,283.38974,874.12976,-151.7493,223.41751,942.35156
168,1.392,-192.96675,308.71143,929.07489,-140.37143,283.39569,874.48584,-152.00571,223.46913,942.38446
169,1.4,-193.37711,308.6044,929.0282,-140.86966,283.6199,874.89056,-152.09155,223.4463,942.43939
170,1.408,-193.14723,308.63092,929.01868,-140.96767,283.55408,874.57538,-152.20566,223.37881,942.37769
171,1.417,-193.09814,308.40515,929.08704,-141.09843,283.24097,874.38849,-152.24124,223.21735,942.284
172,1.425,-193.328,308.37863,929.09656,-141.09843,283.24097,874.38849,-152.58641,223.08148,942.14215
173,1.433,-193.328,308.37863,929.09656,-141.26396,283.1843,874.45905,-152.81468,222.99126,942.08246
174,1.442,-193.328,308.37863,929.09656,-141.39464,282.87109,874.27234,-153.11191,222.75464,942.09216
175,1.45,-193.328,308.37863,929.09656,-141.39464,282.87109,874.27234,-153.27727,222.51529,941.89337
176,1.458,-193.45343,308.194,929.07794,-141.2291,282.9278,874.20172,-153.13481,222.43921,941.80945
177,1.467,-193.59467,308.17719,928.90796,-141.39464,282.87109,874.27234,-153.50816,222.62184,941.76392
178,1.475,-193.41104,308.43985,928.80255,-141.2291,282.9278,874.20172,-153.13481,222.43921,941.80945
179,1.483,-193.46925,308.36185,928.92657,-141.2291,282.9278,874.20172,-153.14647,222.29698,941.72632
180,1.492,-193.22357,308.22049,929.06842,-141.2291,282.9278,874.20172,-153.13481,222.43921,941.80945
181,1.5,-193.09814,308.40515,929.08704,-141.2291,282.9278,874.20172,-152.77504,222.77788,942.06586
182,1.508,-193.41104,308.43985,928.80255,-140.87544,283.54816,874.21924,-152.54675,222.8681,942.12555
183,1.517,-193.03992,308.48318,928.96295,-140.87544,283.54816,874.21924,-152.46657,223.25768,942.14575
184,1.525,-193.03992,308.48318,928.96295,-140.87544,283.54816,874.21924,-152.31929,223.2914,942.17175
185,1.533,-193.37711,308.6044,929.0282,-140.74467,283.8613,874.40613,-152.35718,223.47871,942.48596
186,1.542,-193.51956,308.66763,929.11908,-140.86574,283.8085,874.76752,-152.35718,223.47871,942.48596
187,1.55,-193.57823,308.87338,929.00635,-140.86966,283.6199,874.89056,-152.18652,223.49706,942.49536
188,1.558,-193.49554,309.08575,929.44836,-140.86966,283.6199,874.89056,-152.94296,224.10915,942.8559
189,1.567,-193.49554,309.08575,929.44836,-140.86966,283.6199,874.89056,-153.27202,225.20966,943.1842
190,1.575,-193.49554,309.08575,929.44836,-141.32437,283.50665,875.2821,-153.27202,225.20966,943.1842
191,1.583,-193.49554,309.08575,929.44836,-141.32437,283.50665,875.2821,-153.56262,225.32442,943.33734
192,1.592,-193.49554,309.08575,929.44836,-141.32437,283.50665,875.2821,-153.56262,225.32442,943.33734
193,1.6,-193.49554,309.08575,929.44836,-141.32437,283.50665,875.2821,-154.04842,225.37444,943.2005
194,1.608,-193.57509,309.04257,929.5166,-141.32437,283.50665,875.2821,-154.21451,225.31059,943.37079
195,1.617,-193.57509,309.04257,929.5166,-141.32437,283.50665,875.2821,-154.21451,225.31059,943.37079
196,1.625,-193.76962,308.88028,929.63354,-141.32437,283.50665,875.2821,-154.4736,225.18245,943.23212
197,1.633,-194.08623,308.85947,929.8587,-141.32437,283.50665,875.2821,-154.38716,224.87593,943.13123
