Frame#,Time,L.Forearm.x,L.Forearm.y,L.Forearm.z,L.Ulna.x,L.Ulna.y,L.Ulna.z,L.Radius.x,L.Radius.y,L.Radius.z
1,0,66.36824,238.28104,726.23962,124.90857,278.63474,652.51196,156.19696,193.01724,600.24597
2,0.008,66.15393,239.7005,726.578,123.63414,281.12244,651.91718,155.06886,195.23932,601.10999
3,0.017,65.88486,242.27576,726.62744,123.34521,284.27109,651.92017,156.4543,197.07487,601.51233
4,0.025,64.65475,245.71309,727.03522,123.53996,287.1344,652.91888,157.15839,200.87474,601.06366
5,0.033,64.8531,247.09265,727.46185,121.99261,289.69208,652.85034,155.98981,202.71257,602.52631
6,0.042,64.57294,250.25444,728.26318,121.93673,292.034,653.04181,155.63995,207.55603,602.18158
7,0.05,64.26445,251.67455,728.30859,120.84851,295.56381,653.90253,156.02579,210.24907,602.4353
8,0.058,64.50894,253.91446,729.43323,120.48929,297.87372,653.54144,156.5883,213.31158,602.99847
9,0.067,63.31995,256.26218,729.73157,120.11514,300.97797,654.29474,156.73108,216.14078,602.96454
10,0.075,62.25628,259.49631,729.44537,119.87746,304.19409,655.12946,157.94145,217.69873,604.81732
11,0.083,61.96478,261.35504,730.15613,118.81915,305.98642,655.28876,156.56372,222.16356,605.61749
12,0.092,61.84993,263.79294,730.64398,118.38414,309.58197,656.61414,156.91302,223.84779,605.60938
13,0.1,62.06702,265.38892,730.94177,118.26618,312.06543,657.08551,156.91135,228.8802,606.28967
14,0.108,61.14504,268.29407,731.19946,117.26187,315.02182,658.13019,155.60678,231.81367,606.46399
15,0.117,60.52368,270.09235,731.24207,116.97182,317.59998,658.88776,156.49022,236.08017,606.44299
16,0.125,59.85444,272.58771,731.61761,115.79794,321.52368,659.16907,155.68576,238.91275,606.57996
17,0.133,59.07593,275.15732,732.24188,115.22666,324.04926,659.77136,156.32237,241.91785,607.05481
18,0.142,60.05571,277.35391,733.56683,114.56803,326.83731,660.28046,155.23091,246.98495,607.30432
19,0.15,58.29101,280.17987,734.07019,113.37619,330.24203,662.24445,154.96353,250.24431,607.96191
20,0.158,57.99559,283.3327,733.90729,113.06221,333.3313,662.51648,154.40828,254.34216,607.60376
21,0.167,57.61472,284.98312,734.32233,111.94238,336.80923,663.24194,154.21347,257.43188,608.07361
22,0.175,56.73676,288.89603,735.35565,110.88008,339.91656,663.62384,153.46478,262.28549,608.95685
23,0.183,55.71604,290.62552,735.67889,108.8405,343.80353,664.45703,153.61636,264.86337,608.73657
24,0.192,55.45195,294.13254,736.32123,108.55389,347.7262,665.16187,153.11159,268.633,609.18823
25,0.2,54.16563,296.25427,736.90186,107.05562,351.6153,665.58691,152.01964,274.08667,610.4389
26,0.208,52.3297,300.21463,737.15387,105.9846,354.3877,667.55383,151.23232,277.75427,611.71191
27,0.217,52.40359,303.34308,738.5592,104.90814,358.44412,668.48267,151.02219,281.77274,611.53723
28,0.225,51.38788,306.0715,738.74756,103.36141,361.86688,668.94458,149.36874,287.01547,612.44611
29,0.233,50.49905,309.53644,739.77423,102.60888,365.70062,670.01111,149.32751,291.19342,614.38727
30,0.242,49.52741,312.65234,740.67743,101.1498,369.38321,670.88861,148.85088,294.28271,614.2583
31,0.25,47.59839,314.99112,741.41589,99.03159,372.77713,672.42157,147.00554,299.07556,614.85431
32,0.258,46.90214,318.79865,741.77667,98.26305,376.85025,673.74146,147.25482,302.9151,615.83319
33,0.267,45.97396,321.23105,742.14807,96.83733,379.83923,674.28815,146.36586,306.75656,617.62378
34,0.275,44.21499,324.6272,744.625,95.22279,384.3689,675.60999,144.75072,311.28845,617.36163
35,0.283,43.71544,328.44394,744.93372,94.75794,387.5592,677.52893,144.95125,315.25073,618.65753
36,0.292,42.19226,331.09076,745.54376,90.53806,392.19998,678.13159,142.1601,319.88617,619.76544
37,0.3,41.53192,332.78,746.37836,89.91607,395.89828,679.00751,141.98701,325.11453,619.36688
38,0.308,39.89603,335.04318,747.2713,89.16444,399.20477,680.52222,140.76242,328.49911,621.28833
39,0.317,38.51448,339.077,748.35553,88.19529,402.30658,681.58209,138.6833,332.99899,621.62531
40,0.325,38.03439,341.98578,749.38654,87.12677,405.79141,682.43628,138.16365,337.2746,623.16211
41,0.333,36.845,344.73254,750.56818,85.34437,408.87564,685.27557,137.1158,341.37784,623.85822
42,0.342,35.18717,347.88773,751.39172,83.10159,413.07916,687.00281,135.69293,345.3815,625.12073
43,0.35,34.10204,350.18756,752.64923,81.93192,416.61337,688.13635,134.25658,351.72281,624.93341
44,0.358,32.76833,352.47668,753.35645,80.5912,420.46231,690.12494,133.30498,353.49945,627.73157
45,0.367,32.10498,356.87677,754.0152,79.34496,423.77524,691.31866,132.33461,360.16138,627.61407
46,0.375,30.63706,359.28256,756.04852,77.34505,427.1973,693.23499,132.12679,363.6073,629.93677
47,0.383,29.98779,362.61981,757.18768,75.03798,431.20609,694.35797,130.37331,368.17755,630.72314
48,0.392,28.78583,365.01196,758.4201,74.11839,435.07892,695.93512,129.83963,372.87848,632.54852
49,0.4,26.64852,368.08896,759.59442,72.46231,438.24826,697.54706,128.57874,376.39111,633.75275
50,0.408,26.28304,370.79285,760.68085,70.91119,442.26852,699.29602,127.25893,381.03775,635.0686
51,0.417,25.01057,373.3623,762.74213,68.55901,445.24768,701.26672,124.93479,386.26581,636.05798
52,0.425,23.59661,376.8067,763.36133,67.2385,448.72876,703.23151,123.9499,390.72897,637.58612
53,0.433,22.1578,379.81158,764.46661,65.72688,452.02866,704.64569,123.46268,394.16833,639.69165
54,0.442,20.44504,381.81476,766.05859,63.61351,455.53,706.56049,122.81539,398.10251,640.96558
55,0.45,20.04047,384.54773,767.89636,61.37863,458.86075,708.80963,121.16091,403.37399,642.74298
56,0.458,18.29177,388.29361,769.46918,59.95949,462.28677,710.32294,121.0145,406.3038,645.67554
57,0.467,17.42213,390.27356,771.04425,58.31021,465.94601,713.07794,117.38321,411.50232,647.1355
58,0.475,15.36742,393.24457,772.47992,56.82621,469.09949,714.70282,115.42615,415.08569,649.45007
59,0.483,14.13049,395.76355,774.56702,54.8854,472.62772,717.93365,115.7323,419.48499,650.83582
60,0.492,12.8266,397.51779,775.89038,52.97799,475.85941,720.01465,114.22252,425.16806,651.9903
61,0.5,11.69929,401.33118,777.63098,51.14137,479.81778,721.57623,112.91055,428.17877,655.57434
62,0.508,10.7877,403.21252,779.53168,49.58864,482.22736,724.45477,111.40483,432.0986,657.71924
63,0.517,9.55566,406.4646,781.39404,47.35625,486.00427,726.69653,109.83002,437.75214,658.23346
64,0.525,8.10066,408.35934,782.91681,45.73323,489.4902,729.09387,107.46632,441.50018,660.71246
65,0.533,6.50411,412.47253,784.83752,43.85028,492.30222,731.62219,106.82227,444.62436,664.15192
66,0.542,5.49237,414.32007,786.39813,41.38237,495.85309,734.38251,105.35056,450.63611,666.08234
67,0.55,4.0335,416.0412,789.69189,39.83916,498.88065,736.77991,104.33389,453.69434,668.90259
68,0.558,2.59721,418.30939,791.68927,38.23141,502.09985,739.76471,104.0909,458.11417,671.25647
69,0.567,1.90037,421.82532,793.20825,36.13943,505.17004,742.67389,101.4395,463.07657,674.6485
70,0.575,0.16633,424.86533,795.53632,34.30381,508.54407,744.84216,99.37834,467.59995,676.40869
71,0.583,-1.4196,426.31314,798.83459,32.21553,511.81696,747.93347,97.75663,472.70135,679.39905
72,0.592,-2.21656,429.50381,800.1969,30.41723,515.61597,750.66992,98.56319,475.57852,682.45789
73,0.6,-3.06221,432.85876,802.69257,28.37955,518.45404,754.1925,97.05143,479.42014,685.28247
74,0.608,-4.33673,435.05292,805.91284,27.00384,521.62054,757.24396,96.57297,484.02307,687.48975
75,0.617,-5.67978,437.59763,808.2525,24.93297,524.90729,760.4682,95.48454,487.65921,691.80176
76,0.625,-6.34617,440.34695,811.02472,22.5295,527.40057,763.72815,93.63979,491.78067,695.54456
77,0.633,-8.59622,442.07516,813.4892,21.13943,530.4823,766.83801,92.04105,496.09521,698.11993
78,0.642,-9.12367,444.99847,816.95422,19.60048,533.63635,770.43713,90.62892,500.80634,702.62256
79,0.65,-9.61276,446.56885,819.19696,17.47271,536.3078,774.15985,90.03143,504.14282,706.94769
80,0.658,-11.33461,448.31894,823.1189,15.65979,539.13025,777.62378,89.91476,507.29205,710.49371
81,0.667,-12.54055,451.9108,825.60077,14.3819,542.31403,781.16656,88.57027,513.36804,713.73541
82,0.675,-13.51427,453.73157,828.18994,13.11197,545.79547,785.26752,88.85558,516.29315,717.48315
83,0.683,-14.80906,456.01578,832.60577,10.29868,547.51514,789.0437,85.48196,520.33063,722.42792
84,0.692,-15.61676,457.90237,835.34351,8.97698,550.66211,793.32153,83.63799,523.50818,726.25177
85,0.7,-17.4629,460.37891,838.62469,7.66623,553.15149,797.34003,83.69101,526.73236,731.70837
86,0.708,-17.97343,461.94894,842.05731,5.56069,555.38849,800.95203,83.44563,530.39319,734.61823
87,0.717,-20.34275,464.11142,845.16827,4.26943,557.57245,805.13904,83.2232,533.30963,740.04248
88,0.725,-20.46917,466.56473,848.86237,3.00991,559.49762,809.29187,82.44872,536.6709,744.89166
89,0.733,-21.05157,466.58698,852.20892,2.02384,562.16071,813.29773,82.41419,540.36981,749.55151
90,0.742,-22.34435,469.86932,855.78485,-0.40853,564.5968,818.08911,80.73593,543.27563,754.32257
91,0.75,-23.8996,471.15579,859.51398,-1.37868,566.94922,822.43286,79.30724,546.98212,759.05341
92,0.758,-24.43524,472.90549,863.15814,-3.24905,568.44031,826.56219,78.29861,548.57727,762.69116
93,0.767,-25.17209,474.22888,867.15686,-3.90338,569.67969,830.09912,78.45158,550.68188,768.58527
94,0.775,-25.62217,476.11304,870.60284,-5.223,571.46777,834.55542,78.02289,553.43195,773.42041
95,0.783,-26.89174,477.52057,874.78247,-6.3266,573.98193,839.61932,77.4096,556.69757,778.86078
96,0.792,-27.55857,478.49304,878.46094,-6.53881,575.27618,844.30646,77.21869,559.08142,782.73718
97,0.8,-27.66518,480.30112,881.79803,-7.04683,575.87891,848.38995,77.50476,560.79681,788.28339
98,0.808,-29.00135,481.16458,886.13629,-8.81364,577.0332,853.04877,77.2676,563.90198,793.34021
99,0.817,-28.80095,481.88269,889.27368,-9.27135,578.80914,858.37433,76.96028,564.90601,798.88116
100,0.825,-29.43535,482.55545,893.44104,-9.69983,579.93152,862.23334,76.83698,566.59741,803.80231
101,0.833,-30.72274,483.21088,896.93341,-9.61648,581.13123,866.97321,75.48954,568.03119,808.26697
102,0.842,-30.77395,484.13239,900.90448,-10.3424,581.86353,870.76855,76.03946,569.27319,814.24976
103,0.85,-31.66398,483.91476,905.19702,-10.89205,582.37775,875.44891,75.67271,570.29242,819.84576
104,0.858,-31.90441,484.39413,908.74146,-11.4536,582.43744,880.43903,75.521,572.6781,824.21472
105,0.867,-31.8548,484.41882,912.71991,-11.87829,584.57013,885.25714,76.55154,573.34192,830.1026
106,0.875,-32.52428,484.66248,916.20453,-12.52528,583.98596,888.84808,76.91062,574.51477,834.95502
107,0.883,-32.32716,485.1922,920.1474,-12.27769,585.02631,893.27881,77.44897,575.65204,841.0661
108,0.892,-33.41355,485.33749,924.15295,-12.39473,585.42688,897.90399,77.94789,576.7796,846.87994
109,0.9,-33.37824,485.79813,927.9209,-12.47266,585.62732,902.53778,77.49175,576.68231,851.4469
110,0.908,-34.15825,485.95697,931.81927,-12.21681,586.27399,907.74908,77.8846,577.61078,856.65308
111,0.917,-33.948,485.40546,935.23541,-12.3315,586.10767,912.58881,78.29851,578.50684,863.0965
112,0.925,-34.03392,485.51163,939.02313,-12.43781,585.50995,917.03156,79.05045,579.03894,868.04022
113,0.933,-34.44469,485.40137,943.26501,-12.63289,585.94458,921.336,79.86958,579.38776,873.70886
114,0.942,-34.98022,485.3244,947.11194,-13.06274,586.38623,926.18665,80.99876,578.51605,879.75165
115,0.95,-34.83466,485.1944,950.66083,-12.49759,585.948,930.85822,81.29233,579.17786,886.05988
116,0.958,-35.1214,485.6524,954.39044,-12.18106,585.7804,935.28406,81.56335,579.49469,891.20215
117,0.967,-34.09394,484.97086,958.4118,-11.59635,585.99158,939.86053,82.10672,578.91864,896.27441
118,0.975,-34.87783,484.01254,963.01941,-11.68193,585.87567,944.51086,82.57707,578.90649,902.38177
119,0.983,-35.25265,484.1113,966.8017,-12.1051,585.23474,949.00043,83.25805,577.90344,908.03717
120,0.992,-35.27845,483.51385,970.78723,-11.52912,584.83331,953.85278,84.65358,577.12024,913.18347
121,1,-34.85397,482.56445,974.66943,-11.34273,584.30151,958.75873,85.12924,576.48792,918.81665
122,1.008,-35.15469,482.37439,978.84064,-10.84909,583.44257,963.66699,85.97535,576.88794,924.41272
123,1.017,-35.08325,481.47971,982.28699,-10.67813,582.69263,968.05835,86.60014,576.50104,930.15436
124,1.025,-35.34566,481.6937,986.80902,-10.66431,581.63623,972.82428,88.46191,574.84351,936.64856
125,1.033,-35.30656,481.0051,990.21704,-10.8235,580.86438,977.67712,87.29002,576.04596,941.90771
126,1.042,-35.43577,479.2468,994.74603,-10.10019,580.30542,983.31012,88.49508,575.2019,947.68683
127,1.05,-35.49153,478.73517,998.89502,-10.09026,579.55518,987.02118,88.396,573.97571,953.57141
128,1.058,-35.63642,478.28827,1002.65521,-9.22579,578.70782,992.54071,88.27348,572.53192,959.49957
129,1.067,-35.59835,476.38464,1006.58954,-8.74606,577.57526,997.35156,88.50993,572.86725,964.77692
130,1.075,-36.61209,474.93991,1011.21515,-9.34529,576.40259,1002.61243,89.45298,571.13666,971.2511
131,1.083,-36.41977,474.10962,1014.71594,-9.17763,575.20123,1007.46918,90.67234,568.10181,977.95416
132,1.092,-36.57053,474.24576,1019.38409,-9.65586,573.43762,1012.04022,90.63258,567.83533,982.57996
133,1.1,-35.56652,473.29535,1023.05231,-8.99665,573.11432,1017.5387,91.31853,567.2851,988.93097
134,1.108,-36.30395,470.89273,1027.73413,-8.09862,571.64526,1022.26794,91.68742,565.58514,994.2981
135,1.117,-36.69624,469.6221,1031.39514,-8.55795,570.0246,1026.89966,92.21932,563.93762,1000.79266
136,1.125,-36.16944,468.61636,1035.63428,-8.20788,569.55188,1032.82239,92.8853,562.92938,1006.77618
137,1.133,-36.58531,467.0481,1039.6626,-7.42428,568.53308,1037.40015,93.77961,561.07324,1012.58759
138,1.142,-36.10096,466.1669,1043.39478,-7.52067,566.23749,1043.02441,94.28445,561.87268,1018.69434
139,1.15,-36.86216,464.39297,1047.71411,-6.95666,565.27594,1047.59558,94.46192,559.33313,1024.11328
140,1.158,-37.03766,462.88492,1052.26282,-8.07589,563.41626,1051.97034,93.97897,555.75958,1031.07813
141,1.167,-37.27065,462.02606,1056.8512,-7.78741,562.47742,1058.0238,95.06944,554.0155,1036.32629
142,1.175,-37.83181,460.11792,1060.34436,-7.4362,560.75031,1063.08643,94.26216,554.51221,1043.85925
143,1.183,-37.89085,458.78372,1065.50378,-7.65416,559.33173,1068.7002,95.8376,551.08777,1047.82629
144,1.192,-37.85602,457.20239,1068.74707,-7.16814,556.53131,1073.08496,96.33485,549.67511,1055.34546
145,1.2,-38.39985,454.91995,1073.55408,-7.90742,555.57404,1078.85645,95.39679,546.88031,1061.74609
146,1.208,-38.69192,453.25742,1078.03662,-7.07535,552.98474,1085.0072,96.10883,545.12854,1068.57837
147,1.217,-38.90363,452.15701,1081.66919,-7.60466,550.5434,1089.74097,96.24901,542.93347,1074.34912
148,1.225,-40.5262,450.0773,1086.34509,-8.2022,548.91919,1094.68201,96.1212,539.35333,1081.72058
149,1.233,-40.32286,448.04184,1091.17578,-8.61428,547.12506,1099.94836,95.9213,537.75757,1088.04199
150,1.242,-40.13866,446.54776,1095.44446,-8.30627,545.74615,1105.80115,95.14583,536.052,1093.92334
151,1.25,-41.64881,444.31488,1100.07056,-8.1731,543.547,1111.33813,95.66274,533.79413,1100.28235
152,1.258,-41.31431,442.629,1103.89075,-8.34931,540.77283,1116.34827,96.15926,530.02124,1107.73767
153,1.267,-41.79424,440.98862,1108.59705,-9.19919,538.66089,1121.76843,96.00632,528.99725,1113.58569
154,1.275,-42.41166,438.15945,1112.95557,-9.86803,536.36206,1127.38684,95.87113,525.70673,1119.77466
155,1.283,-42.34897,435.51639,1117.68311,-9.66751,534.55096,1132.53381,94.81043,522.73407,1126.06873
156,1.292,-42.49516,434.02457,1121.08032,-8.98393,531.45459,1137.34912,95.24397,520.5304,1132.61145
157,1.3,-43.06837,431.71143,1126.22412,-9.34399,528.67505,1142.79944,94.7186,517.07977,1139.34204
158,1.308,-43.87127,428.69278,1130.02014,-9.20909,526.77802,1148.78918,93.80779,514.23566,1143.94727
159,1.317,-43.93616,425.96039,1134.49231,-10.19921,523.60809,1153.86377,95.21528,511.2258,1150.65356
160,1.325,-44.42278,425.15848,1137.66016,-10.05225,520.87115,1158.36877,95.03339,507.84561,1156.95508
161,1.333,-45.04768,422.63904,1141.59619,-9.9658,518.6203,1163.42639,94.44307,504.38934,1162.78345
162,1.342,-46.33108,419.75546,1145.69739,-10.04068,516.05902,1167.28088,93.74406,500.51404,1168.57104
163,1.35,-46.02483,417.63351,1148.64355,-9.92183,513.32617,1172.03857,94.46349,497.08719,1174.11548
164,1.358,-46.33596,414.99725,1153.05579,-10.19554,510.48645,1177.00806,93.58002,494.33047,1179.18311
165,1.367,-47.20747,412.90567,1156.16589,-10.60088,507.71497,1180.97388,93.49847,491.06857,1184.81775
166,1.375,-47.88684,410.03027,1160.0365,-9.98349,504.85303,1185.66382,94.03252,486.75989,1189.31421
167,1.383,-48.47092,407.81134,1163.04846,-9.84066,501.03705,1189.6709,92.80505,483.07407,1194.80994
168,1.392,-48.32447,404.80637,1165.69653,-11.12775,497.69305,1194.5542,93.3101,479.08469,1199.54248
169,1.4,-48.95874,401.31305,1169.54956,-10.57632,495.32828,1197.55884,93.4912,474.64322,1204.79358
170,1.408,-49.51713,399.38803,1172.05835,-9.74629,491.25253,1201.73633,92.94336,472.26263,1208.53857
171,1.417,-48.42945,396.68585,1174.69238,-10.3737,489.01245,1205.65381,93.14114,467.48758,1213.57397
172,1.425,-49.37337,393.3765,1178.08948,-9.4484,485.43845,1209.46765,92.84651,463.25131,1217.43079
173,1.433,-49.33797,390.54404,1180.81763,-9.87672,481.27011,1212.92041,93.34306,459.11072,1221.94275
174,1.442,-49.48265,388.14383,1183.46289,-9.38343,477.89307,1215.9812,93.33952,454.88898,1226.05823
175,1.45,-50.65054,385.43622,1185.76392,-9.31579,475.80432,1219.93091,92.49236,450.5116,1229.80054
176,1.458,-49.74681,382.73145,1188.63806,-8.45983,470.83966,1223.32385,92.72007,445.20535,1233.86145
177,1.467,-50.43545,379.63095,1191.39722,-7.50344,468.12982,1226.0885,92.9964,442.50507,1237.62585
178,1.475,-51.19393,377.12125,1194.13416,-7.86984,465.21777,1229.63501,93.73809,436.74707,1242.12805
179,1.483,-50.76252,373.6413,1196.25427,-7.34481,461.25354,1232.31128,94.15228,432.60861,1245.66882
180,1.492,-51.53906,370.16666,1198.93823,-6.46361,457.77246,1235.32886,93.19686,427.00784,1249.58716
181,1.5,-51.54662,368.34015,1200.49255,-5.479,454.76498,1238.01514,94.16059,422.67346,1252.14844
182,1.508,-50.75467,365.15659,1202.32446,-4.78346,450.72974,1240.80334,94.28132,419.37372,1255.2041
183,1.517,-49.79189,361.92078,1204.22632,-4.44038,447.31891,1243.66943,95.1908,415.07635,1257.94312
184,1.525,-49.41166,359.78479,1205.13342,-4.27341,443.0051,1246.19165,95.13382,408.45523,1260.44934
185,1.533,-50.2574,355.44144,1208.24011,-2.28384,439.93518,1248.75354,95.72507,404.82806,1263.99805
186,1.542,-50.2926,352.7196,1209.45093,-1.84871,435.94998,1251.15393,95.46903,399.76587,1266.85645
187,1.55,-49.82101,349.37,1210.99304,-1.71737,432.29926,1253.06482,96.43671,395.63861,1268.48596
188,1.558,-49.13342,346.53491,1212.2146,-1.0305,428.10098,1255.4823,97.32007,389.73636,1271.15845
189,1.567,-49.40948,343.38126,1213.59949,-0.2146,424.61893,1257.83057,97.15014,386.00882,1273.25891
190,1.575,-49.93288,341.50845,1215.32117,0.34539,421.46149,1259.51086,96.53648,380.44073,1274.92749
191,1.583,-49.48751,338.00198,1217.01892,1.15056,418.52579,1261.71875,97.85419,376.27179,1277.84741
192,1.592,-49.76259,334.57523,1218.66748,2.55764,414.64081,1263.20874,98.15102,370.86298,1280.2832
193,1.6,-48.92908,332.2457,1219.26563,3.56237,410.58466,1265.10474,98.29234,366.10187,1282.08167
194,1.608,-48.54334,330.96625,1220.38306,3.71116,407.2016,1266.34888,97.94114,361.33875,1283.95715
195,1.617,-48.57307,326.16821,1221.03162,5.79753,403.10944,1268.46375,98.92125,355.86288,1286.11499
196,1.625,-48.17665,324.31595,1222.04846,6.03751,400.20447,1269.87488,99.21065,351.74643,1286.87134
197,1.633,-47.59538,321.28293,1222.85559,7.47868,395.96237,1271.59619,99.47688,346.59998,1288.11389
198,1.642,-47.32681,318.39404,1223.43298,8.68019,391.88495,1273.35645,100.71971,341.64877,1289.86133
199,1.65,-47.19131,315.08359,1224.57166,9.43715,388.25058,1274.66821,99.97182,336.89142,1292.00977
200,1.658,-46.53178,312.70193,1224.97229,10.5658,383.73203,1276.54431,100.6868,331.17334,1293.45715
201,1.667,-46.67045,309.82556,1225.68066,10.81936,379.74274,1277.9364,100.24683,326.76724,1294.66187
202,1.675,-45.71444,305.92987,1227.00537,12.23369,375.43567,1279.46619,101.70061,321.27783,1295.91565
203,1.683,-45.39094,303.76974,1227.55688,12.87194,371.52042,1280.20361,102.04949,315.65222,1296.93921
204,1.692,-44.5607,300.14307,1228.67578,14.51617,367.31375,1281.59802,102.91631,311.05704,1298.78467
