Frame#,Time,L.Forearm.x,L.Forearm.y,L.Forearm.z,L.Ulna.x,L.Ulna.y,L.Ulna.z,L.Radius.x,L.Radius.y,L.Radius.z
1,0,148.2541,100.15245,1055.30225,214.02974,134.73061,1096.11328,251.19057,55.58409,1078.58838
2,0.008,149.66925,98.17057,1056.60071,214.63651,134.22704,1097.51453,251.57739,55.6352,1078.81702
3,0.017,149.66925,98.17057,1056.60071,215.66824,133.62511,1097.80872,252.0891,55.42278,1079.5918
4,0.025,149.94504,97.79999,1056.62537,216.59532,133.22099,1098.35388,252.97975,55.32418,1079.89636
5,0.033,150.77829,97.12589,1057.18921,216.9828,132.83934,1098.31189,254.79298,54.10546,1080.44666
6,0.042,151.57817,95.62321,1058.51807,217.2424,132.55634,1097.95068,255.43774,53.37693,1080.45605
7,0.05,151.64665,95.55408,1058.98975,217.22112,131.29144,1099.48853,255.39879,53.02828,1081.13025
8,0.058,151.13136,94.75469,1059.40564,217.19342,131.24571,1099.68591,255.80589,52.49579,1081.28809
9,0.067,151.16087,94.72474,1059.60779,217.44528,131.13588,1099.91138,256.47708,52.76704,1081.1853
10,0.075,152.09834,94.52655,1059.91431,218.04581,130.39224,1100.63586,256.82175,52.30109,1081.63782
11,0.083,152.1409,94.28211,1059.72241,218.29379,130.16212,1100.17908,256.61118,50.73921,1081.43884
12,0.092,152.86089,93.50977,1059.79321,218.39417,128.96558,1100.25696,257.12375,52.70901,1081.92029
13,0.1,153.36845,92.49602,1060.0376,219.24803,129.25146,1101.18567,258.31021,52.31797,1082.16174
14,0.108,153.72809,92.19612,1060.07678,220.28198,129.1302,1100.58398,259.29428,50.42926,1081.99133
15,0.117,154.53639,92.29829,1060.78088,220.35806,129.18407,1101.55334,260.84564,51.67424,1082.79919
16,0.125,155.14423,91.03921,1061.20947,220.66786,128.95393,1101.58984,261.2821,51.5969,1082.92639
17,0.133,155.9855,90.28281,1061.85754,221.22372,128.27054,1101.77954,261.96268,51.93881,1082.88794
18,0.142,156.37251,90.01611,1061.66504,222.00159,128.18948,1101.90857,262.52621,49.7434,1082.20227
19,0.15,157.37474,89.28257,1062.33618,223.04987,127.81173,1102.36975,263.94473,51.78438,1082.72412
20,0.158,157.66879,88.85814,1062.25598,223.22563,127.66861,1102.47339,264.91797,49.04272,1082.29199
21,0.167,157.95332,88.40095,1062.78503,223.3989,127.50354,1102.91907,264.82294,48.80171,1081.94897
22,0.175,158.20081,87.58051,1063.14905,224.02457,125.94004,1103.22144,265.13461,49.00603,1082.06592
23,0.183,158.93347,87.41292,1063.28076,224.28011,125.50188,1102.63342,265.70432,48.97246,1082.21472
24,0.192,159.31496,87.01816,1063.44299,224.66002,125.08343,1102.60669,266.04529,50.65558,1082.6731
25,0.2,159.12273,86.82681,1063.5929,224.60756,124.93148,1102.6731,266.39145,51.08055,1083.4137
26,0.208,159.43758,86.40891,1063.97046,224.65565,124.77061,1103.03296,266.39145,51.08055,1083.4137
27,0.217,159.31781,86.27003,1063.8385,224.77077,124.79482,1103.18323,266.03848,49.24968,1082.81995
28,0.225,159.37271,86.11133,1064.28699,224.75925,124.96515,1103.21997,266.03848,49.24968,1082.81995
29,0.233,159.37271,86.11133,1064.28699,225.07326,125.22466,1103.96094,266.03848,49.24968,1082.81995
30,0.242,159.40247,86.08128,1064.48853,225.04199,125.325,1103.92078,267.71176,48.99375,1083.09753
31,0.25,159.40247,86.08128,1064.48853,225.07326,125.22466,1103.96094,268.13364,48.77296,1083.12585
32,0.258,160.02745,85.47318,1064.98267,225.32024,124.83047,1104.1886,268.13364,48.77296,1083.12585
33,0.267,160.38641,85.17316,1065.02161,225.37007,124.02551,1103.46973,268.51306,48.43736,1083.34924
34,0.275,160.38641,85.17316,1065.02161,225.5385,124.02048,1103.51135,269.15909,48.83068,1083.24719
35,0.283,160.38641,85.17316,1065.02161,225.73514,124.19196,1103.60107,269.99274,48.48019,1083.12012
36,0.292,160.79123,85.30099,1065.06787,226.66301,124.20255,1104.15735,270.30484,48.68444,1083.23706
37,0.3,161.34084,84.97417,1065.35217,227.48277,124.19464,1103.92358,270.51688,49.2719,1084.04041
38,0.308,161.89201,84.76066,1065.11426,228.03381,123.77364,1103.71436,271.45621,48.55701,1083.24988
39,0.317,162.34863,84.29824,1064.95044,227.96101,124.11867,1103.67273,271.45621,48.55701,1083.24988
40,0.325,163.22531,83.87646,1065.31812,227.96101,124.11867,1103.67273,272.01654,50.94511,1083.51135
41,0.333,163.50058,83.50689,1065.34302,228.11768,124.05146,1103.5592,271.92075,48.61242,1083.77637
42,0.342,163.69287,83.69785,1065.19324,228.20003,124.23537,1103.49634,272.45197,48.34455,1083.55872
43,0.35,163.74132,83.24181,1065.29175,228.14958,124.19463,1103.13916,272.45197,48.34455,1083.55872
44,0.358,163.55875,83.54021,1065.07312,228.14958,124.19463,1103.13916,273.46765,50.985,1083.10803
45,0.367,163.08275,84.15138,1064.86047,228.14958,124.19463,1103.13916,272.60535,50.15823,1083.05066
46,0.375,162.77441,84.23396,1064.51587,228.11833,123.84474,1102.83704,271.59647,50.13358,1083.29993
47,0.383,162.77441,84.23396,1064.51587,227.6875,122.91479,1102.77917,271.26718,50.30378,1082.94812
48,0.392,162.55396,84.29063,1064.06909,227.6875,122.91479,1102.77917,271.53665,50.12963,1082.22473
49,0.4,162.27675,84.28521,1063.50623,227.84915,123.21436,1102.85291,270.87906,49.64916,1082.14148
50,0.408,161.62094,83.76031,1062.94434,227.41122,123.18129,1102.92334,270.58344,48.14109,1082.27502
51,0.417,161.24387,83.94324,1062.61572,227.42432,123.08976,1102.59131,270.80109,47.6325,1082.23914
52,0.425,161.14024,83.69412,1062.57043,226.82368,123.08528,1102.61487,269.52682,46.01588,1082.03491
53,0.433,160.96091,83.36485,1062.29272,226.1557,122.56037,1102.05884,269.45044,45.99871,1081.53955
54,0.442,160.06287,82.7498,1061.47424,225.84253,122.48055,1101.82874,269.92874,46.07221,1082.06531
55,0.45,160.06287,82.7498,1061.47424,225.51833,121.12173,1101.22925,268.2724,45.51307,1080.72546
56,0.458,159.87187,82.70676,1061.19568,225.4008,121.30791,1101.07935,269.27039,47.22412,1080.11902
57,0.467,159.58617,82.46674,1061.06567,225.52106,120.72534,1100.30591,268.75073,46.76528,1079.16846
58,0.475,159.52582,82.37782,1060.68799,225.07892,120.20242,1099.89038,268.3075,45.69543,1080.0614
59,0.483,159.52582,82.37782,1060.68799,225.14622,120.26878,1099.87781,268.89304,45.56469,1079.71606
60,0.492,159.96216,82.88527,1060.4104,225.62202,120.78269,1099.51978,269.21591,46.91582,1078.44434
61,0.5,159.98999,83.12021,1060.04846,226.09059,120.85748,1099.09241,269.3067,46.00313,1078.49438
62,0.508,159.98999,83.12021,1060.04846,226.12657,120.98702,1098.67456,270.1788,46.54797,1078.33752
63,0.517,159.98999,83.12021,1060.04846,226.202,121.16278,1098.30237,270.63577,48.29283,1077.08154
64,0.525,160.24323,83.89684,1059.58069,225.78984,121.36858,1097.91077,269.80579,46.50321,1077.47253
65,0.533,160.55296,84.5846,1059.35645,226.23579,122.27138,1097.47742,269.82751,46.97764,1077.3147
66,0.542,160.61563,84.95117,1059.12048,225.56468,122.58631,1097.24854,269.74435,49.63118,1075.90588
67,0.55,159.82152,85.81108,1058.58557,225.23485,123.86446,1096.65417,269.27161,50.64553,1075.38403
68,0.558,159.63072,85.83891,1058.34021,225.22905,124.62907,1096.24133,268.49228,51.11596,1075.57239
69,0.567,158.91075,86.57,1058.10718,224.67958,124.92928,1096.14844,267.2417,50.55335,1075.74829
70,0.575,157.69214,87.2657,1057.79419,224.59282,125.17486,1096.19128,265.44287,49.63763,1075.98291
71,0.583,157.19069,87.79342,1057.49036,224.44632,125.02331,1096.07935,264.3624,48.69219,1076.60229
72,0.592,155.88728,88.42381,1057.86218,223.77316,126.13157,1096.63135,263.51147,50.27969,1076.33459
73,0.6,155.19733,88.05533,1057.68665,222.50456,125.99795,1096.57349,261.42792,50.17291,1076.78088
74,0.608,154.10651,89.26427,1056.8335,221.36009,125.08978,1095.55139,260.21243,47.78413,1077.45776
75,0.617,154.0423,89.6828,1056.43494,220.48784,125.84726,1096.79346,260.04919,49.6208,1076.04053
76,0.625,152.34001,90.65741,1056.00757,219.39496,125.08383,1095.80664,257.83902,48.45135,1076.70422
77,0.633,151.26971,90.87571,1055.8269,218.71118,125.15167,1095.94373,255.61803,48.36053,1075.90601
78,0.642,149.5735,91.91976,1055.00098,217.03839,125.73175,1097.01392,255.16559,47.66264,1075.58826
79,0.65,149.16716,92.39206,1054.78137,216.38882,125.31497,1096.71802,253.71866,46.7863,1076.21924
80,0.658,148.4127,91.71147,1054.42554,215.45621,125.12117,1097.10449,253.27834,47.40054,1077.05066
81,0.667,148.5453,92.03423,1054.29309,215.06592,124.79078,1096.93933,252.97372,46.93388,1077.12915
82,0.675,148.10909,92.34001,1054.3855,214.88037,124.74733,1097.16101,252.849,46.92186,1077.33313
83,0.683,147.84044,91.92104,1054.65942,214.57774,125.10574,1097.29321,252.61391,47.63979,1077.93848
84,0.692,147.70782,91.88197,1055.01758,214.57977,125.60648,1097.19495,252.16447,47.29556,1078.03748
85,0.7,147.50647,92.291,1055.38,214.48283,125.75642,1097.03882,252.46213,48.46379,1078.00415
86,0.708,147.12006,92.34005,1055.69751,214.75906,126.08167,1096.90002,251.62173,48.13165,1078.12292
87,0.717,146.90497,92.80595,1055.82898,214.6178,126.50399,1096.78491,250.78448,49.13788,1077.71936
88,0.725,146.90497,92.80595,1055.82898,214.32954,127.01828,1096.58826,249.85011,49.40633,1077.87756
89,0.733,145.54379,93.79122,1055.6499,214.26184,128.39142,1096.59302,248.94151,48.62052,1078.3512
90,0.742,145.01517,94.82911,1054.84998,213.46175,128.83696,1095.74219,247.68515,48.22526,1078.00537
91,0.75,145.48196,95.93894,1055.03491,212.2861,128.53398,1096.23279,246.96779,48.17005,1078.02454
92,0.758,145.19008,96.31211,1054.7041,211.1805,129.11707,1096.06787,245.89438,46.28186,1077.76416
93,0.767,144.42714,97.71272,1054.16821,210.63214,129.42131,1095.84485,243.21553,47.25076,1077.84082
94,0.775,142.60744,97.37973,1054.05042,209.75868,129.7746,1095.83643,242.31874,47.00713,1078.2782
95,0.783,141.67361,99.41392,1053.82556,208.41052,129.99057,1095.60229,241.47707,46.93627,1078.26709
96,0.792,139.90984,100.15665,1052.36243,206.98265,130.61435,1094.71436,239.52957,48.73024,1077.93262
97,0.8,139.14954,100.9558,1051.51587,205.73857,130.94762,1094.52502,238.82808,51.37542,1077.34253
98,0.808,138.17311,100.78277,1051.3645,204.86841,130.84157,1094.31519,236.87297,49.98869,1077.83899
99,0.817,135.89716,101.88925,1050.75793,203.15207,131.30539,1094.23938,235.06245,51.74739,1077.54797
100,0.825,135.07295,102.73803,1050.71216,201.42494,131.86984,1094.07422,232.98875,48.91647,1077.91602
101,0.833,133.91454,102.48212,1049.96289,200.93092,131.72542,1092.96338,232.68732,51.10063,1076.80798
102,0.842,133.07506,104.45152,1048.93555,200.51308,132.13217,1092.35693,229.71222,52.14489,1076.88306
103,0.85,132.17516,106.01799,1048.21484,198.77077,132.51736,1091.48169,229.28772,52.10809,1076.39893
104,0.858,130.658,106.77959,1047.63354,197.20816,133.4855,1091.00073,227.00601,48.69547,1076.93616
105,0.867,129.81894,107.33187,1047.15247,196.61581,133.89204,1090.90112,224.22983,49.44353,1075.77063
106,0.875,129.01198,108.04867,1045.87317,196.29768,135.32022,1090.25073,222.25708,49.84771,1075.87708
107,0.883,127.39061,108.99889,1045.37268,195.23096,136.07405,1089.25159,221.29489,49.71949,1075.25061
108,0.892,126.48052,109.15633,1044.86829,194.33759,136.33888,1088.58777,219.57506,54.23624,1074.59875
109,0.9,125.29858,110.14201,1044.68225,192.4487,136.7261,1087.83215,217.92546,54.64293,1073.54712
110,0.908,123.35657,112.24125,1043.38538,191.09155,137.61845,1087.03052,215.66714,56.2603,1072.92859
111,0.917,122.18413,113.02762,1042.71252,189.6301,138.82521,1086.93201,213.27051,55.48785,1072.91003
112,0.925,119.65642,112.56976,1042.01404,187.55783,138.18369,1086.41223,211.79622,55.69136,1072.23267
113,0.933,118.43861,113.22123,1041.21167,186.8197,138.76564,1085.95557,209.95605,56.67875,1072.81384
114,0.942,116.48234,114.3046,1040.53149,185.34659,139.20793,1084.78967,207.71799,56.48594,1071.44507
115,0.95,114.88627,114.62315,1040.30872,184.41461,139.84338,1084.31201,206.56877,58.22776,1070.96143
116,0.958,114.57845,116.35899,1039.18994,182.3895,139.33647,1083.99646,203.16849,57.11798,1070.57043
117,0.967,113.72783,116.58963,1038.67944,180.67151,140.6068,1082.49243,201.08929,57.48869,1069.81372
118,0.975,112.26758,118.53024,1036.76074,179.0497,141.09373,1081.60278,198.57608,57.32364,1069.22791
119,0.983,109.98407,119.1549,1035.65491,176.77612,141.45982,1080.81934,196.98289,58.45689,1069.31763
120,0.992,108.45036,121.20451,1034.56274,175.33643,141.42149,1079.90894,194.72519,58.77311,1068.35596
121,1,107.10689,121.54466,1033.58521,173.81009,141.40773,1079.37061,191.72661,58.63648,1068.09985
122,1.008,105.40517,121.97402,1032.96545,171.92824,142.50963,1078.37756,189.30952,58.17478,1067.22876
123,1.017,103.51295,122.30054,1030.55286,170.14832,144.80484,1077.50781,186.5054,59.52486,1065.82202
124,1.025,100.64126,124.37247,1030.01929,168.58836,144.87402,1076.85193,183.9424,59.96683,1065.54565
125,1.033,99.63953,124.71109,1029.50244,167.26782,145.7729,1076.12183,183.01981,62.37744,1064.29736
126,1.042,98.28693,126.41216,1029.17224,165.70833,146.25507,1074.56116,178.40488,60.24474,1064.90381
127,1.05,96.5358,127.8744,1028.78906,163.49637,146.42686,1073.95972,175.78363,61.63771,1063.6488
128,1.058,94.30766,129.39268,1026.98096,161.4317,147.15286,1072.73413,174.20378,62.88359,1062.18335
129,1.067,93.28812,131.42876,1025.49976,159.12302,147.36417,1072.18652,170.4276,63.97996,1062.34717
130,1.075,90.04247,131.78876,1025.1947,157.67274,149.1992,1071.1311,167.74834,63.91289,1061.39697
131,1.083,88.56861,132.62639,1024.36023,155.36307,149.83577,1069.78845,164.57251,63.66689,1061.54614
132,1.092,86.23546,134.57167,1023.21588,153.35724,151.00568,1068.96973,161.37033,65.49397,1060.73206
133,1.1,83.85647,135.72156,1022.16486,150.3472,151.69456,1067.82458,159.32938,66.31589,1059.72144
134,1.108,81.11809,135.96565,1020.39069,148.42493,152.1819,1067.40808,156.6895,66.32394,1059.5675
135,1.117,79.75169,136.58342,1018.99084,146.7697,152.39566,1066.56592,152.92615,66.66997,1058.71179
136,1.125,77.96425,138.00252,1017.92035,144.36421,153.02002,1065.36121,151.12695,66.61577,1058.37292
137,1.133,76.08576,138.64909,1018.33759,142.72195,153.78448,1064.76111,148.50082,68.15615,1058.02026
138,1.142,73.76549,138.91928,1015.99554,140.88081,154.46274,1063.62585,147.0489,68.09214,1057.16724
139,1.15,72.30663,139.07307,1016.00018,139.1931,154.42561,1062.54944,144.18481,69.28489,1057.18372
140,1.158,71.73317,139.75008,1014.90344,138.63803,154.93837,1062.18542,141.7525,69.70827,1056.37097
141,1.167,70.19047,139.50317,1014.00989,135.75171,155.66409,1061.60156,139.32501,69.97246,1056.63416
142,1.175,67.29832,140.82323,1013.60229,134.34305,155.68056,1061.11121,137.67596,70.94071,1056.1875
143,1.183,67.1781,141.84364,1013.55499,133.24669,156.83348,1060.42554,135.20432,70.9201,1056.57166
144,1.192,65.53231,141.85794,1013.07214,132.26057,158.62846,1060.03796,132.95827,72.02652,1056.42712
145,1.2,63.3444,143.68459,1013.71741,131.06236,158.40926,1059.36938,131.13501,72.15084,1056.23584
146,1.208,62.64874,144.58923,1013.43713,129.47345,158.11371,1058.63208,127.1151,71.69524,1055.72314
147,1.217,60.69509,146.23503,1012.49585,127.61141,158.97052,1058.55164,125.23064,72.40213,1055.8103
148,1.225,58.87577,145.87334,1011.8407,125.11848,159.23021,1058.1272,121.43891,72.81577,1055.41528
149,1.233,55.36399,146.30621,1011.57281,123.22672,159.2738,1057.58435,118.79672,74.13804,1055.05164
150,1.242,54.0223,146.4994,1010.80505,119.89377,159.96606,1057.02161,115.41122,74.37482,1054.53174
151,1.25,52.42542,147.71693,1009.78009,119.00139,160.79903,1056.6958,113.27152,75.97026,1054.32373
152,1.258,49.85821,148.34761,1008.91437,116.352,162.15936,1056.90723,107.95233,77.01077,1055.3927
153,1.267,48.17117,148.89867,1007.42969,113.90596,160.77931,1056.17712,105.58691,76.25657,1054.70898
154,1.275,45.1494,149.05859,1006.22882,110.3891,161.30617,1055.44885,102.57702,76.11429,1054.32886
155,1.283,43.28117,149.88478,1005.86688,108.96156,161.73637,1054.9585,100.39024,76.53182,1053.74609
156,1.292,41.35777,151.27209,1004.513,107.2831,162.5899,1054.57397,98.65522,78.10152,1053.74878
157,1.3,40.22979,151.69359,1004.4375,105.28209,162.89711,1054.03076,96.44115,77.52814,1053.20435
158,1.308,37.59473,152.91518,1003.06378,103.3591,162.89005,1053.80298,93.63327,77.6408,1052.83459
159,1.317,36.85637,153.23019,1003.2019,100.51463,162.92642,1053.48169,91.81166,77.98325,1052.64209
160,1.325,35.55616,153.97583,1002.94037,99.17232,162.77036,1053.93042,90.1035,77.96774,1052.74451
161,1.333,34.20223,153.02275,1002.52399,98.55297,162.94861,1053.17651,87.20285,77.12083,1052.19458
162,1.342,32.92743,153.46291,1002.09119,97.13542,163.14651,1053.08777,85.3179,77.81938,1052.68201
163,1.35,32.47432,153.90988,1002.59271,96.48479,163.30104,1053.05042,83.66782,78.08658,1052.15576
164,1.358,30.82575,154.5173,1002.15759,95.96105,163.11194,1053.19958,82.66001,78.60889,1052.45691
165,1.367,29.2433,154.18031,1002.44263,95.87516,163.56201,1052.57422,80.5751,78.6197,1052.4115
166,1.375,28.18278,154.91953,1002.83795,94.23232,164.09047,1052.21545,77.85996,79.56853,1052.30872
167,1.383,27.61532,155.40198,1002.60858,92.6896,164.45818,1051.70166,76.12663,79.95211,1052.63745
168,1.392,26.30146,155.66771,1002.73889,90.86179,164.29826,1051.81567,74.52593,79.46143,1052.60974
169,1.4,23.82866,155.81027,1002.71832,89.44003,163.8217,1051.4104,71.78974,80.68678,1052.73572
170,1.408,22.96716,156.53584,1002.10364,86.92642,164.16472,1051.21082,69.42056,80.49146,1052.79395
171,1.417,20.47544,157.83992,1001.65613,84.2859,164.10611,1051.04175,66.2092,80.16943,1052.19128
172,1.425,18.32497,157.4147,1001.17236,83.06039,163.92586,1050.89563,63.94307,80.1114,1052.2251
173,1.433,17.24731,157.43571,1000.40222,80.6476,164.88315,1050.30835,61.63774,81.1578,1052.03259
174,1.442,14.10474,157.57288,1000.15576,78.21339,164.0085,1050.29883,58.91046,81.21816,1051.34326
175,1.45,13.13105,158.22749,999.41473,75.80972,164.14897,1050.31128,52.85127,81.49744,1050.45117
176,1.458,11.34447,158.92632,998.2168,73.95557,164.58792,1050.26746,50.54453,81.47349,1050.00671
177,1.467,9.61811,160.26091,996.63019,72.16903,164.55846,1050.01843,48.90466,82.40084,1049.77026
178,1.475,8.29563,159.7813,996.03094,70.79485,164.05815,1049.50623,47.25872,81.87846,1049.86658
179,1.483,7.58911,160.32768,996.55792,70.2204,164.10789,1048.63098,44.79627,81.89454,1049.44897
180,1.492,5.75672,160.08479,995.41187,68.88445,164.17514,1048.53088,43.30031,82.04559,1049.11133
181,1.5,5.40331,160.60602,995.37634,67.37093,163.82214,1048.56067,42.55716,81.05814,1048.85474
182,1.508,5.11022,160.66528,995.53711,66.84753,163.52597,1048.23804,40.45947,81.7482,1048.65967
183,1.517,4.35301,159.85603,995.59259,66.65659,163.31691,1048.27759,39.05407,82.4428,1049.172
184,1.525,4.37958,160.71288,996.01202,66.41396,163.17064,1048.18433,38.57705,83.02217,1048.82776
185,1.533,4.16996,160.82503,996.34235,66.10496,163.00502,1047.92065,37.84615,83.58266,1048.68237
186,1.542,3.5994,161.18915,997.08856,65.46803,162.92543,1047.84985,36.86066,83.60749,1049.03516
187,1.55,2.52223,161.94896,997.39709,65.25575,162.83656,1047.93066,33.4717,84.26412,1048.99329
188,1.558,2.37423,161.79958,997.49231,64.22019,162.62311,1048.22705,31.63923,82.50568,1050.30383
189,1.567,1.69559,162.89334,997.68353,63.30491,162.01202,1047.79846,31.13142,82.99089,1050.21155
190,1.575,0.77192,163.07819,997.86487,62.03629,162.49765,1048.0022,27.77679,84.45261,1050.32666
191,1.583,-0.83667,163.24562,997.63361,61.62711,161.95665,1048.01465,26.82542,84.38823,1051.12817
192,1.592,-2.27953,162.91029,997.17175,59.24707,161.40411,1047.54431,24.61926,84.54516,1050.35132
193,1.6,-3.84571,162.2567,996.8407,56.90894,161.37415,1047.80054,21.32423,84.4789,1050.25391
194,1.608,-5.3493,162.15851,996.22748,56.15678,161.25267,1047.96802,18.64973,84.86562,1049.30286
195,1.617,-7.32792,162.66733,996.02008,54.29759,160.99866,1047.56311,17.09437,85.07457,1050.16443
196,1.625,-8.35584,162.05521,995.79651,52.29877,161.41479,1047.37463,15.54318,86.45665,1050.4032
197,1.633,-10.01277,162.94006,994.52405,51.27378,161.1747,1047.23645,13.07711,85.72045,1049.13892
198,1.642,-10.33326,163.66727,994.30066,50.41808,160.80927,1047.42896,11.57362,84.82876,1048.77295
199,1.65,-10.83958,164.37393,993.95398,48.4188,160.91292,1047.19067,11.42427,85.44922,1047.55273
200,1.658,-12.74133,164.69341,993.99634,47.43908,160.79889,1046.86389,9.36836,86.84248,1047.65967
201,1.667,-14.16142,163.94266,993.45123,46.26189,161.29897,1046.81689,8.66863,87.1031,1046.8822
