Frame#,Time,L.Forearm.x,L.Forearm.y,L.Forearm.z,L.Ulna.x,L.Ulna.y,L.Ulna.z,L.Radius.x,L.Radius.y,L.Radius.z
1,0,-20.62238,114.91218,864.6983,39.91423,76.70216,911.2265,-21.77855,82.33587,982.81995
2,0.008,-20.40827,115.12789,864.98181,40.24221,76.45837,911.33569,-21.77855,82.33587,982.81995
3,0.017,-20.2814,114.92176,864.91797,40.21836,76.39532,911.41785,-21.61125,81.83579,983.0036
4,0.025,-19.93095,114.46886,865.66217,40.4869,76.31879,911.47504,-21.25984,81.71571,982.94012
5,0.033,-19.20215,114.30014,865.61981,40.7569,75.95721,911.60083,-20.83087,81.38784,982.88214
6,0.042,-18.64636,114.30511,866.10748,40.57523,75.55749,911.64746,-20.83087,81.38784,982.88214
7,0.05,-18.41986,113.16506,865.95703,40.81806,75.25507,911.78583,-20.40223,81.59428,983.09058
8,0.058,-17.94695,113.01557,866.18988,41.30814,74.56487,912.34729,-20.08746,81.56034,983.09167
9,0.067,-17.86706,112.92527,866.25806,41.98581,74.36619,912.79919,-19.88559,81.91698,983.33215
10,0.075,-17.89701,112.81273,866.84192,42.51315,74.23879,913.45837,-20.06324,81.83549,983.93085
11,0.083,-17.65169,112.5097,867.18542,42.62913,74.20535,913.66125,-19.45742,82.52322,984.33105
12,0.092,-17.28002,111.59044,867.24133,42.72666,74.11801,913.87952,-18.48031,82.18415,985.2522
13,0.1,-16.89209,110.92946,867.55536,43.35912,73.68915,914.95526,-18.24585,83.00514,986.03632
14,0.108,-16.55655,110.4677,867.86755,42.69011,72.24923,915.90381,-17.5528,84.35503,986.90143
15,0.117,-16.1531,109.9776,868.1842,42.26226,72.09315,916.46948,-17.48757,84.10739,987.35175
16,0.125,-16.33854,109.46175,868.65991,42.48531,72.00227,916.74097,-17.53391,84.69347,987.78802
17,0.133,-15.96997,109.6207,868.88409,42.58547,71.44147,917.63684,-17.63067,84.22541,988.19745
18,0.142,-15.75697,109.53871,868.98346,42.77219,71.37247,917.79712,-17.72128,84.25994,988.91376
19,0.15,-15.64142,109.22247,869.66785,42.57994,71.60027,918.45966,-17.82555,84.39871,989.58197
20,0.158,-15.60566,108.94999,869.81842,42.10868,71.52933,919.29486,-17.92719,84.15158,989.69012
21,0.167,-14.45035,108.12766,870.17224,42.19613,72.10932,920.19366,-18.10837,84.10697,990.27399
22,0.175,-14.39681,108.18278,871.55817,42.7845,71.28721,920.96637,-18.73487,83.05482,991.02826
23,0.183,-14.37687,108.0164,872.28705,42.88855,70.50992,921.4884,-18.69523,83.16143,991.57623
24,0.192,-14.39091,107.48898,872.59283,43.13422,70.16013,921.98505,-18.4587,83.19404,991.81714
25,0.2,-14.17974,107.69114,872.89178,43.41495,69.57377,922.64703,-18.15523,83.59444,992.08771
26,0.208,-13.91085,107.79118,873.84131,43.3177,69.79608,922.92322,-18.15269,83.94379,992.96008
27,0.217,-14.55808,106.30724,874.47699,43.33749,69.61346,924.26385,-18.0242,83.7188,993.21503
28,0.225,-14.59384,106.17132,874.62567,43.52394,69.1176,924.4101,-17.8009,84.20321,993.77051
29,0.233,-14.59384,106.17132,874.62567,43.63218,68.98736,924.84375,-17.77357,84.24995,993.99384
30,0.242,-14.59384,106.17132,874.62567,43.59076,69.05732,924.95575,-17.8713,84.26421,994.32239
31,0.25,-14.60017,106.26286,874.9743,43.35671,69.18847,925.19501,-18.03742,83.99606,994.88226
32,0.258,-14.81266,106.25783,874.78015,43.31085,69.14139,925.42572,-18.07395,83.86858,995.01007
33,0.267,-14.81266,106.25783,874.78015,43.23506,69.18113,925.53461,-18.15492,83.78929,995.09674
34,0.275,-14.81266,106.25783,874.78015,42.98986,69.07907,925.99591,-18.15492,83.78929,995.09674
35,0.283,-14.68264,106.25761,874.88043,43.00869,68.71277,926.16058,-18.03182,83.77257,995.27917
36,0.292,-14.68264,106.25761,874.88043,42.99027,68.72328,926.56323,-18.75964,82.67809,995.33386
37,0.3,-14.34881,106.17287,875.13263,42.99176,68.26717,926.90564,-18.99409,81.45324,995.36542
38,0.308,-14.15508,105.82111,875.53705,43.33357,67.76046,927.06055,-19.62144,80.4198,995.64966
39,0.317,-14.58186,104.94108,876.06238,43.27927,67.58215,927.02509,-19.40741,79.53419,996.14801
40,0.325,-14.60525,104.52567,876.59814,43.46173,67.38831,926.9873,-19.07576,79.23484,996.1568
41,0.333,-14.40975,104.23746,876.88678,43.83661,66.75755,927.09491,-18.43237,78.22279,995.67841
42,0.342,-14.51927,103.57947,877.22479,44.14296,65.98701,926.90314,-18.28015,77.68909,995.3761
43,0.35,-14.49706,103.27653,877.56854,44.14296,65.98701,926.90314,-18.28015,77.68909,995.3761
44,0.358,-14.36726,103.09392,877.76282,44.0971,65.86309,926.86987,-18.05258,77.48975,995.23834
45,0.367,-14.32616,102.75175,877.65198,43.9095,65.70724,926.93488,-17.83115,77.39292,995.08405
46,0.375,-14.27981,102.10738,877.49323,43.6963,65.87059,926.68561,-17.99016,77.39646,995.12012
47,0.383,-14.76279,101.51505,877.2002,43.77215,65.8309,926.57672,-18.21159,77.49326,995.27441
48,0.392,-14.94925,101.67448,877.18018,43.46378,65.9873,926.54358,-18.21159,77.49326,995.27441
49,0.4,-15.2652,101.40482,876.25732,43.27337,65.68685,926.2522,-18.21159,77.49326,995.27441
50,0.408,-14.88744,101.79251,875.72363,43.08447,65.69222,926.02148,-18.05258,77.48975,995.23834
51,0.417,-14.83077,101.89382,875.61041,43.24196,65.78131,925.65192,-17.83115,77.39292,995.08405
52,0.425,-15.31553,101.71298,875.49915,43.13458,65.34828,925.54187,-17.99447,77.23325,994.81366
53,0.433,-15.25731,101.65298,875.24091,42.69167,64.80282,925.19989,-17.99447,77.23325,994.81366
54,0.442,-15.16125,101.66247,875.07043,42.56186,63.42554,924.83252,-18.0634,76.81356,994.66815
55,0.45,-15.02028,101.36719,875.02002,42.29734,63.2821,924.49182,-17.9768,76.63519,994.59662
56,0.458,-15.18262,101.24225,874.4339,42.23845,63.27932,924.30396,-18.23622,76.25584,994.64172
57,0.467,-15.61087,100.66091,874.50171,42.56757,62.36397,924.14557,-18.23622,76.25584,994.64172
58,0.475,-15.53815,100.40878,874.36151,42.20814,61.81774,923.95898,-17.86751,75.5047,994.02789
59,0.483,-15.15695,99.25933,874.53833,42.51046,61.3455,923.79907,-17.60649,75.15047,993.98792
60,0.492,-14.68718,98.76605,874.50879,42.65191,61.25533,923.70935,-17.98771,74.61701,994.06042
61,0.5,-14.63467,99.01087,874.73956,42.9462,60.72046,923.87579,-18.32562,74.17065,994.40515
62,0.508,-14.38134,98.6117,874.87054,43.87521,60.06215,923.95898,-18.32562,74.17065,994.40515
63,0.517,-14.24081,98.38384,875.06555,43.87521,60.06215,923.95898,-18.14077,73.74937,994.29883
64,0.525,-14.37638,98.16264,875.02203,43.87521,60.06215,923.95898,-17.92424,73.52016,994.27435
65,0.533,-14.43134,97.79734,874.99445,43.87521,60.06215,923.95898,-17.60831,73.48711,994.27551
66,0.542,-14.37507,97.39144,875.16449,44.20858,59.89423,923.57123,-17.18656,73.79761,994.5329
67,0.55,-14.49971,97.35042,875.03619,44.18405,59.90601,923.99231,-16.57319,74.13054,994.52411
68,0.558,-14.78222,96.79085,875.04834,44.34164,59.53498,924.04565,-15.57989,73.72527,994.68268
69,0.567,-14.53594,96.40646,875.15112,44.50916,59.48372,924.20563,-14.67822,73.65207,994.9549
70,0.575,-14.22075,96.31125,875.81793,44.66658,59.42345,924.1983,-14.20657,72.36113,995.11078
71,0.583,-13.4056,96.59949,875.85321,45.02827,59.18791,924.30414,-13.40976,72.17795,995.59174
72,0.592,-12.74267,96.42168,875.71112,45.4955,59.06673,924.31641,-13.3644,71.81179,995.72546
73,0.6,-12.22651,96.31104,876.14465,45.7401,58.63597,924.52777,-12.34664,71.3942,996.43298
74,0.608,-11.93504,96.65836,876.50409,46.31984,57.7712,924.75983,-11.42233,71.24538,996.61401
75,0.617,-11.93504,96.65836,876.50409,46.46494,57.68337,925.11261,-11.14713,71.06682,997.2027
76,0.625,-11.56429,96.38517,877.17902,46.80051,57.54097,925.28979,-11.10326,70.73341,997.32263
77,0.633,-10.96168,96.50256,877.83081,47.64584,57.38298,925.03931,-11.2527,70.17751,997.5899
78,0.642,-10.84021,96.41285,877.88922,48.74862,56.68856,925.29651,-11.11684,70.04199,997.60162
79,0.65,-10.61003,96.14024,878.08582,48.69307,57.07251,925.1452,-10.82295,70.00335,997.64819
80,0.658,-10.61003,96.14024,878.08582,48.98801,56.73744,925.375,-10.39588,69.14182,998.07208
81,0.667,-10.25959,96.41296,878.37616,49.5564,56.75402,925.20581,-10.10708,68.77608,998.18097
82,0.675,-9.94642,96.32124,878.64221,50.51543,57.63432,925.31824,-7.8604,68.28104,998.7453
83,0.683,-9.82021,96.11413,878.57935,51.20844,57.76651,925.01495,-6.71345,68.23183,998.93097
84,0.692,-9.63792,96.10661,878.54248,51.33553,57.95632,925.06274,-6.0876,68.36732,999.26001
85,0.7,-8.75167,95.73887,878.78613,52.10598,58.047,924.94214,-5.03439,67.67063,999.2066
86,0.708,-8.32129,95.73112,878.95892,53.39885,57.63213,924.83691,-3.63716,67.02801,999.73566
87,0.717,-7.24759,95.77317,879.33673,54.24806,57.21805,924.50226,-0.95715,66.26629,1000.28412
88,0.725,-6.79011,94.26622,879.68811,54.66123,57.35765,924.40759,0.12928,66.26698,1000.74084
89,0.733,-6.21592,93.79737,880.1994,55.83247,56.73301,924.10773,2.00983,66.3121,1001.19019
90,0.742,-5.84024,93.6778,880.52997,57.18307,56.2788,924.04419,4.50088,63.39114,1001.4165
91,0.75,-4.72745,92.86564,880.50726,58.65355,55.89778,924.4364,6.31934,63.66661,1001.24921
92,0.758,-3.50605,92.5047,880.78955,59.95514,56.44087,923.44849,7.92652,62.84728,1001.2533
93,0.767,-1.84831,93.00079,881.88031,60.8744,56.2036,923.16205,10.85686,62.08853,1001.67426
94,0.775,-1.51608,93.45274,882.46368,62.59604,55.47198,922.80182,12.16443,61.51251,1001.93488
95,0.783,-0.98669,93.99925,882.77362,63.95024,55.1003,922.74152,13.03087,60.76065,1002.15466
96,0.792,-0.58074,93.72987,882.9657,64.39316,54.95437,922.60229,13.44972,60.71078,1002.14563
97,0.8,0.63773,93.73698,882.96881,64.45342,54.95328,922.47784,15.68234,58.69134,1002.53357
98,0.808,2.02062,94.07665,883.49469,65.22398,54.79824,922.55957,16.7242,58.61628,1002.8338
99,0.817,2.21635,93.68626,884.50854,66.60316,54.61915,922.89404,17.3644,58.05729,1002.99396
100,0.825,2.25425,93.41355,884.659,67.16531,54.80714,923.48016,17.96369,57.51733,1003.11542
101,0.833,2.44456,93.32462,884.88196,68.00282,54.37527,923.67554,19.43701,56.68713,1003.75903
102,0.842,3.20139,92.49633,884.96179,68.66179,54.50204,923.98224,21.08813,55.21152,1004.25769
103,0.85,3.49121,92.24808,885.25977,69.39343,54.59834,923.90112,21.4472,54.88744,1005.09521
104,0.858,4.04363,91.58759,886.00092,70.41974,54.82628,924.58887,23.15452,55.5899,1005.83929
105,0.867,4.18413,90.60747,886.341,70.67113,54.96726,924.78577,26.75489,54.78046,1006.09241
106,0.875,4.76492,90.43236,888.10883,72.82996,54.22163,925.18256,27.62368,53.98393,1006.33777
107,0.883,6.04841,90.05152,888.78583,73.12268,54.1334,925.04102,28.30963,53.21435,1006.83521
108,0.892,6.76827,89.5764,889.47675,74.25485,53.40271,925.36664,29.6382,52.7403,1007.45117
109,0.9,6.87495,89.36169,890.08105,74.53059,53.53998,925.42981,31.78807,50.6448,1008.15869
110,0.908,7.71716,88.9183,890.0874,75.15897,52.95023,925.48505,32.86817,50.34206,1008.31604
111,0.917,9.63793,89.60745,890.25488,76.83628,52.10162,925.33008,33.47439,49.6022,1008.18567
112,0.925,10.97819,90.47869,890.7514,78.01749,51.33532,925.33844,34.38878,49.49273,1008.66718
113,0.933,11.7748,90.64035,891.24609,78.48103,50.93893,925.65778,35.9084,48.36567,1009.06921
114,0.942,12.43193,90.07604,891.70117,79.34322,51.49804,926.13104,36.24428,48.37936,1009.21332
115,0.95,12.54913,89.64606,892.02728,79.54572,51.19148,926.98523,37.30968,47.47264,1009.73828
116,0.958,12.72261,89.94648,892.64612,80.52542,52.34628,926.83582,38.93029,47.30022,1009.83154
117,0.967,13.13949,89.98156,893.54309,81.70042,53.22219,927.25476,39.65113,47.34718,1010.17426
118,0.975,13.41608,89.9664,893.69324,82.84224,52.62973,927.52216,40.73141,47.41094,1010.93219
119,0.983,13.9021,90.30601,894.59692,83.39462,52.80719,927.79364,41.98854,47.61622,1012.06207
120,0.992,14.42808,90.17968,895.31854,83.66385,54.04168,928.38086,43.17884,47.81039,1012.45288
121,1,14.56951,89.6667,895.86481,83.55275,54.57955,929.59619,43.56995,46.98561,1013.39075
122,1.008,15.21589,89.78576,897.1897,83.89011,55.6427,930.18402,44.43288,47.17972,1014.15509
123,1.017,15.46434,89.80773,897.63922,85.0427,56.32598,931.21564,45.03412,47.28975,1014.98303
124,1.025,16.15939,91.01318,898.69672,85.43266,57.39618,931.73395,45.14222,46.97383,1016.39825
125,1.033,16.15528,91.48886,899.6001,86.90192,57.6094,932.35095,46.06535,45.65685,1017.50592
126,1.042,16.5841,91.70362,900.07953,87.07166,57.7596,932.70776,46.44141,45.49186,1018.32172
127,1.05,17.11477,91.75571,901.95837,87.40608,57.82821,932.7901,47.08933,45.16034,1018.33624
128,1.058,17.56966,92.76157,902.66589,87.45151,57.96819,934.12073,47.14858,44.92376,1018.72357
129,1.067,17.3484,92.86042,902.86426,87.88991,58.02126,935.27087,46.9452,43.71185,1018.91364
130,1.075,17.57074,92.82806,903.27515,88.3891,58.50879,935.52985,47.80536,42.62173,1019.66467
131,1.083,17.56061,92.86895,903.30438,88.18142,58.81564,936.56213,47.19082,41.84829,1020.66626
132,1.092,17.79188,92.75397,903.44629,88.57736,59.76392,937.68195,46.36124,41.58145,1021.68768
133,1.1,17.41653,93.24209,904.53601,87.80045,60.14414,938.21765,46.18445,40.24929,1022.76495
134,1.108,17.4577,93.34946,905.88464,88.11465,61.286,939.7486,46.46755,40.26088,1023.37341
135,1.117,17.07712,93.47917,906.60175,87.63689,61.95414,940.78882,45.36331,37.96855,1023.71295
136,1.125,16.78437,93.38986,907.89948,87.44434,63.23933,941.65771,45.36995,37.89442,1024.44983
137,1.133,16.80189,93.14561,909.32465,88.08898,63.80094,942.41095,45.48811,37.83646,1024.46838
138,1.142,16.64262,93.14868,909.35938,88.64079,64.28908,943.90295,46.59521,36.89329,1025.23999
139,1.15,16.15326,92.58459,911.59753,88.7646,64.89901,945.3866,47.12507,36.50744,1026.35718
140,1.158,16.41164,93.14867,913.04767,89.45506,65.43864,946.36151,47.63452,35.83851,1028.22473
141,1.167,16.57007,92.83389,913.69159,89.52682,65.78843,947.89563,47.88385,34.96301,1029.28223
142,1.175,16.94769,93.03887,915.26764,89.9639,66.94616,949.29688,48.84254,33.80888,1029.75293
143,1.183,16.66041,93.14583,917.22931,90.37572,66.9537,950.28107,49.3329,33.05333,1030.55847
144,1.192,16.91004,93.04471,919.02081,90.64793,66.6227,951.72803,50.31993,32.08818,1031.6449
145,1.2,16.93181,93.17244,919.68671,91.19652,66.76681,952.85657,50.58887,31.05223,1032.37585
146,1.208,17.57777,93.98573,921.5874,91.83662,66.95007,954.52698,51.07973,28.95569,1033.62024
147,1.217,17.83546,94.9015,922.7348,91.90582,68.13301,956.23608,51.14449,27.00861,1034.89563
148,1.225,18.12328,94.85864,924.40643,91.44253,68.82078,957.58569,50.30998,24.63709,1036.34741
149,1.233,17.20669,94.16139,926.04187,90.89603,69.60988,959.87128,50.1992,23.43733,1037.12683
150,1.242,17.48786,94.9816,927.95343,90.80209,70.86298,962.1474,50.31188,22.0059,1037.70898
151,1.25,17.05497,95.90668,928.82263,90.6686,72.03653,964.04822,50.05016,19.92357,1038.61633
152,1.258,16.09935,94.20789,931.35608,89.29201,72.82988,965.80597,49.91825,17.56501,1039.59998
153,1.267,15.9308,94.17533,932.83801,88.21819,74.01192,969.73871,50.25806,14.15299,1040.68054
154,1.275,15.17834,93.80154,934.69647,87.57375,74.21751,970.78693,51.06016,12.5637,1041.5376
155,1.283,14.39334,93.49385,937.62073,86.88455,74.86733,973.22028,52.66794,10.80826,1041.98218
156,1.292,13.45972,93.23093,939.72467,87.00987,75.51515,975.78943,53.44928,9.31796,1042.59448
157,1.3,12.83018,93.95067,941.3526,86.96312,76.44495,977.78357,55.31006,7.91473,1043.41797
158,1.308,13.2577,91.28082,943.85309,86.51249,77.54906,980.2843,56.92703,7.04748,1043.8092
159,1.317,12.95768,90.24961,946.1814,86.47045,77.46495,982.92657,58.97343,5.1954,1044.81384
160,1.325,12.97794,89.1711,948.41241,86.57063,77.643,984.92432,60.30737,4.09123,1045.50024
161,1.333,13.54854,88.75521,951.48053,86.58541,77.77371,987.81421,61.27444,2.4247,1047.099
162,1.342,13.42408,88.15271,953.14392,87.20548,78.12276,989.39905,63.32993,0.70678,1048.01208
163,1.35,14.12345,87.9309,955.49304,86.96615,78.19257,991.6051,63.90022,0.64553,1048.59277
164,1.358,13.95461,87.95065,958.18811,87.98073,77.97985,993.93408,65.54224,-0.63234,1050.22729
165,1.367,14.69858,86.55067,959.02972,87.90471,78.72878,996.13062,66.76476,-2.3848,1051.53198
166,1.375,14.58753,86.61259,961.62756,88.14279,78.3473,997.97296,68.39907,-2.74401,1052.61328
167,1.383,14.60974,86.48759,964.09058,89.20842,78.743,1000.40192,70.86862,-4.57775,1053.41382
168,1.392,14.84186,85.66096,965.04175,88.93308,79.12275,1002.69855,71.53902,-5.17109,1053.84656
169,1.4,14.68904,85.39845,967.48218,89.63598,79.60799,1004.03467,74.07906,-6.83559,1054.82776
170,1.408,14.97308,85.58646,969.87555,90.32688,79.34345,1006.38989,76.34233,-7.65297,1055.18127
171,1.417,16.09598,84.35024,971.11713,90.62663,78.92431,1009.02722,77.57043,-8.39876,1055.43457
172,1.425,16.85829,82.88364,973.48407,90.79646,79.0302,1009.9895,80.16922,-9.96175,1056.72241
173,1.433,17.4464,82.86963,975.40918,91.69292,77.70008,1011.95209,82.12979,-11.02609,1056.96838
174,1.442,17.92139,82.06883,977.68225,91.84509,77.53954,1014.97919,84.5336,-12.85804,1058.22339
175,1.45,18.36162,80.89841,980.3775,93.24596,77.67501,1016.75452,86.94767,-14.21024,1058.8855
176,1.458,19.13291,80.35999,983.21136,94.12222,76.69606,1018.2121,89.31045,-14.73697,1059.06604
177,1.467,19.86912,79.49647,984.90204,94.70169,77.60173,1021.47906,91.92737,-15.25728,1059.24414
178,1.475,21.2184,78.06231,987.32971,95.13038,77.02581,1022.66132,94.99291,-16.03018,1059.69299
179,1.483,21.63537,78.09685,989.55469,95.60423,77.2232,1023.95081,96.96365,-16.9143,1060.52563
180,1.492,22.01259,76.88638,991.87506,95.49879,76.40858,1027.19946,98.06541,-16.82412,1061.52454
181,1.5,21.98311,76.67549,993.65771,96.18449,75.63384,1028.72546,99.48251,-18.32685,1062.9906
182,1.508,21.89825,76.81826,995.77771,97.66247,75.26665,1029.98633,99.99444,-17.6242,1063.56213
183,1.517,22.78709,75.54531,997.87183,97.37829,75.52241,1032.17285,101.95213,-18.92972,1065.52881
184,1.525,23.32264,74.2695,998.75122,98.93483,75.40305,1034.27502,104.562,-21.10997,1066.16443
185,1.533,24.1717,73.5655,1000.22491,98.83054,74.69456,1035.61499,105.75527,-20.51832,1066.66821
186,1.542,24.68894,73.53546,1003.72906,99.78944,74.87382,1038.40234,108.41434,-21.33118,1067.06128
187,1.55,25.01707,72.3655,1004.99164,100.50101,75.04083,1039.78418,111.17503,-22.13871,1067.30359
188,1.558,25.20286,72.2955,1007.36847,101.65732,74.56881,1041.21326,112.34023,-21.45732,1067.24097
189,1.567,26.50737,70.92258,1010.34521,102.08604,74.0648,1042.72339,114.97247,-22.96689,1067.12793
190,1.575,27.87824,69.58121,1011.45844,103.89187,73.19218,1044.57947,118.04395,-24.14792,1067.31824
191,1.583,28.88473,69.77412,1014.79187,104.59189,72.71011,1046.64941,120.97129,-24.26796,1067.90088
192,1.592,29.50392,68.5873,1016.591,105.9026,71.43481,1047.74646,123.33667,-26.92311,1069.03796
193,1.6,30.57435,67.48389,1018.91412,107.38121,71.39694,1050.03223,125.34987,-25.48562,1068.72266
194,1.608,31.11046,66.31078,1021.15399,107.50799,70.91624,1051.61475,127.38929,-26.55299,1069.39392
195,1.617,32.49794,65.09308,1023.17529,108.25097,70.33471,1053.46814,128.75563,-25.616,1069.4231
196,1.625,32.62605,64.56551,1025.00171,109.10443,70.58035,1055.35718,129.94473,-26.24726,1070.24719
197,1.633,32.85594,64.53406,1026.92493,109.03772,69.89838,1056.94275,130.85287,-26.17851,1070.94983
198,1.642,32.61767,63.16308,1029.39026,109.60586,69.67889,1058.13599,132.00768,-26.57429,1072.27698
199,1.65,32.98189,64.1862,1029.00867,109.9326,70.01225,1059.92932,134.39763,-26.38188,1073.21704
200,1.658,33.53652,61.76567,1031.99719,110.88096,69.13297,1061.35095,135.13399,-26.72354,1074.98633
201,1.667,33.80639,61.99213,1032.84082,110.86836,68.90521,1062.745,136.28128,-28.09027,1075.14783
202,1.675,34.37005,60.87869,1034.58447,111.25768,68.44516,1063.20752,137.33504,-27.93497,1075.68823
203,1.683,34.52074,60.54478,1036.48547,112.5155,69.14866,1064.04932,138.32224,-27.18218,1075.83643
204,1.692,35.34466,60.75613,1038.25916,113.72047,68.67957,1065.5929,140.33133,-28.89431,1076.36646
205,1.7,35.51544,60.65782,1039.65503,113.45501,67.4656,1066.46436,142.9518,-28.45552,1075.78003
206,1.708,36.19413,59.8702,1041.12439,115.11908,67.20821,1067.7196,143.54216,-29.57934,1075.80042
207,1.717,36.83352,58.02624,1042.66138,115.58295,66.62747,1068.84473,144.29822,-30.04408,1075.72766
208,1.725,38.1589,57.27177,1044.12549,115.80106,67.12176,1069.6571,147.3705,-29.87143,1075.93103
209,1.733,38.67953,57.72602,1044.71826,115.77652,66.37665,1070.92529,148.19228,-29.62977,1075.82764
210,1.742,38.98019,54.11381,1046.8949,116.93013,64.88982,1071.62927,150.04657,-30.9163,1076.11108
