Frame#,Time,R.Forearm.x,R.Forearm.y,R.Forearm.z,R.Ulna.x,R.Ulna.y,R.Ulna.z,R.Radius.x,R.Radius.y,R.Radius.z
1,0,113.42724,-30.81264,1004.71576,202.88361,-39.62209,969.61145,209.75909,65.15707,957.82025
2,0.008,113.53917,-30.85883,1005.72705,203.25473,-39.16706,969.45844,209.09732,64.02126,959.56659
3,0.017,113.35018,-31.02617,1006.59338,203.53595,-39.31792,970.97375,209.7361,63.68686,959.93793
4,0.025,113.12221,-30.96131,1006.75897,203.44952,-39.63344,973.44299,209.24413,65.27999,961.33295
5,0.033,113.23386,-31.00536,1008.45367,203.04619,-39.45452,976.27209,209.64546,64.53121,962.73724
6,0.042,113.0646,-30.82256,1008.90704,203.46089,-39.47286,975.42755,208.57561,66.46254,964.48218
7,0.05,113.20892,-30.64132,1011.01105,203.49879,-38.89429,977.3736,208.57703,67.0348,966.3302
8,0.058,113.07652,-30.46145,1012.80853,203.4926,-38.61572,979.01764,209.87648,64.96577,967.51849
9,0.067,113.02661,-30.5931,1013.61597,203.7674,-38.60282,980.50647,208.91086,66.05202,969.48535
10,0.075,113.55595,-31.2422,1014.0343,204.42494,-39.13202,981.68176,209.31432,65.43388,970.3938
11,0.083,113.77454,-32.03498,1014.85223,204.4675,-38.95444,982.77759,209.33597,66.08829,972.5191
12,0.092,113.87748,-31.43645,1016.33148,204.15169,-38.92214,985.46075,210.50148,65.73317,974.96808
13,0.1,113.48186,-31.75392,1018.05377,203.59174,-39.41006,987.50092,210.79482,65.48904,975.38025
14,0.108,113.31294,-31.92482,1019.48895,203.71375,-39.09937,987.58411,209.99657,64.33314,977.86169
15,0.117,113.90114,-31.76518,1020.56494,203.76505,-38.92393,988.21912,210.29219,65.92289,979.75684
16,0.125,114.12967,-31.92112,1021.4007,204.6228,-39.49635,989.82062,211.08743,66.02491,981.93976
17,0.133,114.45097,-32.33031,1022.39423,205.65762,-40.64449,992.40375,210.50362,66.38493,982.40778
18,0.142,114.32877,-32.46381,1023.54089,205.21378,-40.52948,993.06848,212.22375,65.93178,984.08887
19,0.15,113.92188,-32.93747,1024.97937,204.43719,-40.29664,994.39301,211.65221,64.01686,985.44403
20,0.158,113.86124,-33.74407,1026.4718,204.57953,-40.17901,995.54407,211.22803,64.46274,986.84845
21,0.167,113.83395,-33.57962,1027.41479,205.07716,-39.94426,997.1684,210.95435,64.09182,988.58551
22,0.175,113.2068,-32.78188,1028.64197,205.00002,-40.07533,998.41418,212.0773,63.15753,989.76215
23,0.183,113.23789,-32.98046,1028.96606,204.93915,-40.91891,1000.42938,212.70758,62.58735,990.49335
24,0.192,113.29134,-32.99944,1029.94897,204.8176,-41.03842,1001.48907,212.14638,63.41385,991.30396
25,0.2,113.77014,-33.40167,1031.12805,205.77052,-41.11214,1003.60046,211.69714,62.77508,992.37665
26,0.208,113.41166,-33.9472,1032.26587,205.54811,-41.08652,1004.40381,211.94057,60.9743,994.53339
27,0.217,112.58206,-34.60623,1033.86841,205.26118,-41.32727,1005.12762,212.74698,61.94543,995.95856
28,0.225,112.50333,-34.09264,1034.36328,205.29283,-40.60987,1006.32629,212.16519,62.43486,997.20587
29,0.233,112.427,-34.9337,1035.03809,205.5434,-40.76383,1006.81354,212.99612,62.91573,999.06165
30,0.242,112.98505,-34.5411,1035.67334,205.60847,-42.38023,1010.31268,212.79745,61.88063,999.88281
31,0.25,112.90976,-35.0451,1036.97034,205.32695,-42.22871,1010.46576,213.0574,61.188,1000.77618
32,0.258,113.19698,-35.00418,1039.12988,205.20932,-42.38352,1011.84418,212.78493,60.67387,1003.15851
33,0.267,112.96177,-35.53569,1039.68188,204.13379,-41.89888,1010.40729,215.45479,60.04259,1006.27551
34,0.275,113.24397,-36.9453,1040.1438,204.0533,-42.35961,1011.0976,213.20627,60.69827,1006.34186
35,0.283,112.9556,-36.95024,1041.99158,204.93491,-44.28111,1012.99164,214.53532,60.49603,1007.4704
36,0.292,113.23709,-37.10979,1042.37402,204.60051,-43.92305,1013.72955,214.73851,60.36789,1009.21637
37,0.3,113.01878,-36.96278,1043.54517,204.38588,-43.44307,1016.073,215.20839,59.17363,1010.8374
38,0.308,112.50977,-38.16218,1044.58325,205.31555,-43.7488,1017.12665,215.12689,59.22538,1012.55737
39,0.317,112.54672,-38.27765,1045.46802,205.11047,-45.03409,1017.74164,214.707,58.92864,1012.82971
40,0.325,112.64345,-38.35614,1046.68103,204.57692,-44.91722,1018.33588,214.7075,59.25087,1013.58655
41,0.333,112.57893,-38.1936,1047.34863,205.08215,-46.39627,1020.32135,214.58534,59.51124,1014.46033
42,0.342,112.7328,-38.17833,1048.25745,204.86807,-46.14955,1021.45935,214.70903,59.34727,1015.15546
43,0.35,112.38083,-38.05215,1048.86963,205.00047,-45.99117,1022.57715,214.42967,58.42665,1016.84967
44,0.358,111.96136,-38.0514,1050.4165,205.14493,-46.86317,1024.31409,214.50288,58.14585,1017.7699
45,0.367,112.14323,-38.36349,1051.58398,205.9254,-46.9596,1026.17517,214.49559,57.89875,1018.25842
46,0.375,112.40739,-38.3581,1052.01221,205.77634,-46.53681,1026.875,214.19734,58.57683,1019.13586
47,0.383,112.65171,-38.59897,1052.92944,205.36443,-46.71109,1028.31274,216.91017,57.14909,1022.46985
48,0.392,112.72491,-38.36554,1053.67529,205.39111,-47.00872,1029.40002,215.69998,56.4138,1023.83997
49,0.4,112.13038,-38.52375,1055.05566,204.7151,-45.6781,1029.96204,214.30849,57.6662,1025.08923
50,0.408,112.63295,-39.33572,1056.32336,204.90018,-48.38844,1032.90894,213.66879,56.60832,1026.00366
51,0.417,112.60963,-39.71358,1057.58472,205.54381,-48.84109,1034.12427,215.68346,57.23642,1029.47205
52,0.425,112.69015,-40.27747,1058.2406,205.23245,-48.93158,1035.71472,216.07777,56.0394,1032.20056
53,0.433,112.65454,-40.88221,1059.61169,205.3992,-48.91868,1036.77368,215.95511,54.93494,1032.64453
54,0.442,112.3742,-41.62966,1060.59216,205.75499,-49.50047,1037.20532,215.20906,54.35971,1033.61487
55,0.45,112.47512,-42.30267,1061.05859,205.90823,-49.60691,1038.91724,215.42572,55.06468,1035.16309
56,0.458,112.59419,-43.66872,1062.92639,205.80444,-49.56196,1040.7572,216.22124,54.77895,1038.04297
57,0.467,112.29704,-43.68866,1063.99658,205.13669,-51.30458,1042.25183,218.19946,52.43074,1039.58337
58,0.475,111.8331,-42.7492,1065.39514,205.56526,-51.76905,1043.45337,218.65062,51.45321,1040.62207
59,0.483,112.0005,-43.67801,1066.66296,205.40407,-53.25126,1044.68701,216.27507,51.70852,1039.78699
60,0.492,111.84631,-43.73851,1067.10657,205.50888,-52.92132,1045.97754,216.12503,52.00084,1040.78235
61,0.5,112.00922,-43.96508,1068.59875,205.45171,-52.89948,1048.25281,215.19362,52.4026,1043.85632
62,0.508,112.15005,-43.9495,1069.84509,205.16092,-53.85545,1052.25952,215.90924,51.33394,1045.05981
63,0.517,111.96558,-43.6517,1070.89954,206.06508,-54.45367,1050.729,216.68066,50.54066,1045.26599
64,0.525,111.63254,-43.70316,1072.18958,205.79756,-54.97503,1052.29797,217.21768,50.10819,1046.42834
65,0.533,111.68404,-44.81667,1073.30908,206.47162,-54.94106,1053.6427,216.98611,51.12373,1048.8147
66,0.542,111.84678,-45.78099,1073.89343,206.21835,-55.43211,1055.0708,216.69405,48.69168,1051.10779
67,0.55,111.91729,-45.85479,1074.89746,206.34576,-55.49427,1056.12146,216.74088,49.16763,1051.79358
68,0.558,112.04947,-47.20488,1076.0083,206.83165,-56.25769,1058.43054,217.1161,47.77042,1053.34912
69,0.567,111.74359,-47.51529,1076.81543,206.15193,-57.40894,1059.69373,217.03865,47.53853,1056.80042
70,0.575,111.23845,-48.88609,1078.48633,205.49959,-57.94755,1061.37073,216.62344,48.08949,1058.39185
71,0.583,111.58868,-49.15712,1079.58521,205.40633,-58.97269,1062.32129,216.32352,46.92578,1059.85461
72,0.592,111.5288,-49.85436,1080.44873,205.28362,-59.34181,1063.23218,216.70656,43.70622,1060.8833
73,0.6,111.32079,-51.08921,1081.91492,205.47937,-61.45937,1064.49683,218.23181,44.90474,1064.06152
74,0.608,110.87013,-51.75745,1082.31543,206.55032,-62.50976,1065.76367,217.62883,43.54871,1063.90161
75,0.617,110.66179,-52.83444,1083.03552,205.19781,-62.56444,1066.24219,216.85959,41.80391,1065.08179
76,0.625,110.86646,-52.79274,1083.48462,205.34076,-63.44591,1067.02917,217.27562,40.36621,1066.5011
77,0.633,111.0162,-53.13656,1084.44495,204.9668,-63.86102,1068.37024,217.56931,40.4602,1067.10352
78,0.642,110.75033,-53.42322,1085.71094,204.77179,-64.82639,1069.68872,218.08585,40.68325,1068.59949
79,0.65,110.6132,-54.18854,1086.63477,204.53564,-66.29429,1071.24585,218.29924,40.25669,1069.10095
80,0.658,110.82895,-55.28253,1087.57849,204.10275,-66.98253,1072.10339,218.73558,38.82122,1070.42627
81,0.667,110.67937,-55.87904,1088.03809,204.33128,-67.93385,1072.49377,219.09679,38.85088,1070.9917
82,0.675,110.37859,-56.30099,1088.83496,206.7278,-69.98405,1074.41614,219.67545,35.92807,1072.4696
83,0.683,110.20765,-57.13922,1089.97205,206.28568,-70.45774,1075.06873,220.47916,35.18636,1072.55322
84,0.692,109.93913,-59.29161,1091.38159,206.84279,-71.54115,1076.521,222.11201,32.74677,1074.40552
85,0.7,109.91506,-59.40266,1091.80762,206.61473,-71.86191,1078.40369,220.15852,30.88348,1075.32898
86,0.708,109.8773,-60.46912,1092.66638,206.38489,-73.37859,1079.39771,220.33531,30.8835,1075.97217
87,0.717,110.21265,-61.22848,1093.29651,205.79349,-75.509,1079.84778,220.4153,29.60926,1078.09387
88,0.725,109.59626,-62.37196,1093.79663,206.22615,-76.88595,1080.84656,220.63969,29.26628,1080.16211
89,0.733,109.68057,-63.65041,1094.66248,205.92188,-78.07276,1082.02979,220.03156,27.83821,1081.33215
90,0.742,108.96709,-64.90385,1095.36475,206.33159,-79.26987,1083.35962,219.94916,25.81299,1082.95715
91,0.75,109.18293,-67.06455,1096.74487,205.57852,-79.71062,1084.29321,219.42004,25.32049,1084.04321
92,0.758,109.08407,-68.29377,1097.37573,204.93333,-80.83705,1085.32703,219.61873,23.41452,1086.04102
93,0.767,108.75407,-69.28799,1098.32385,202.56209,-82.84806,1084.86182,218.17532,25.73884,1087.53381
94,0.775,108.41483,-70.09846,1099.34705,202.19987,-85.42344,1085.71912,218.31227,24.53959,1087.92603
95,0.783,108.11337,-70.73483,1099.61121,202.19876,-85.93806,1086.47156,218.14554,22.4529,1087.67297
96,0.792,108.32153,-71.7841,1099.84094,202.08556,-86.32912,1086.93054,218.30821,20.94774,1088.6283
97,0.8,107.93022,-73.49638,1100.52295,201.76175,-88.75928,1088.32532,218.33762,18.49427,1089.60583
98,0.808,107.37843,-73.8825,1101.45117,201.76175,-88.75928,1088.32532,219.2561,18.00049,1090.58752
99,0.817,107.64171,-74.22089,1101.81567,201.43214,-91.49348,1090.21069,219.31882,17.77496,1091.52222
100,0.825,106.52267,-76.10973,1102.00952,201.6554,-92.29982,1091.15015,219.56067,15.95417,1092.27441
101,0.833,106.54746,-76.77068,1102.87561,201.52245,-93.30202,1091.1427,219.69992,14.68474,1093.07629
102,0.842,106.65155,-77.62722,1103.28955,200.53331,-94.20678,1092.39221,220.93225,12.06273,1093.29309
103,0.85,106.70231,-79.02098,1103.8324,201.05177,-96.63651,1092.54065,220.36469,10.92677,1093.79968
104,0.858,106.85119,-80.22021,1104.06641,200.45424,-97.98616,1093.33459,220.70039,7.76912,1093.98596
105,0.867,107.10439,-81.20321,1104.58777,200.01035,-99.80285,1093.59399,220.93222,6.78745,1095.26099
106,0.875,106.79681,-82.54746,1104.97791,199.82256,-101.60332,1094.23523,220.13934,5.36852,1095.8197
107,0.883,106.12472,-84.41033,1106.23547,199.73245,-102.47968,1094.66614,221.43381,0.20997,1095.20984
108,0.892,105.39606,-85.60003,1106.29663,199.73468,-104.89788,1095.93811,221.18649,2.59103,1099.08374
109,0.9,105.41978,-86.65945,1107.03833,199.77632,-106.73232,1095.96521,222.13481,-1.83657,1098.91443
110,0.908,104.56288,-88.92004,1107.8999,199.62453,-108.51507,1096.98645,221.03442,-0.38771,1099.91772
111,0.917,104.84509,-90.2198,1108.75891,199.10838,-108.98151,1097.46106,221.96242,-5.74904,1101.01965
112,0.925,104.69769,-91.09988,1109.47839,198.19437,-110.92519,1098.55139,221.65631,-7.07941,1101.71875
113,0.933,104.97277,-92.6747,1110.26099,197.84064,-112.39091,1098.65649,221.9827,-7.83694,1102.03076
114,0.942,104.57465,-93.8619,1110.99902,197.44176,-114.21886,1099.63586,222.31972,-11.96035,1102.37854
115,0.95,103.85509,-95.17599,1111.01514,197.39572,-115.11484,1100.4696,222.45241,-12.43474,1103.02551
116,0.958,103.77962,-96.48714,1111.22803,196.67456,-118.03062,1102.21021,221.62447,-11.9184,1105.2793
117,0.967,103.15701,-96.70564,1111.47717,196.6391,-119.05643,1103.04565,221.34671,-12.62188,1105.98096
118,0.975,103.04888,-97.79776,1112.29712,196.66586,-122.02954,1104.22412,221.51538,-17.18936,1106.25049
119,0.983,103.14132,-98.54778,1113.10376,196.61337,-122.10947,1104.50781,221.40259,-18.37675,1107.46851
120,0.992,102.96584,-100.88634,1114.99951,195.13271,-123.19908,1104.63806,222.88908,-21.73104,1107.69751
121,1,102.74682,-101.49731,1115.08386,194.94276,-124.87151,1105.31433,222.90712,-22.45651,1107.59607
122,1.008,102.22233,-103.98631,1115.03748,194.56337,-127.28933,1105.84265,222.62694,-24.3387,1109.23059
123,1.017,102.49506,-105.61807,1115.55444,194.98413,-129.3584,1107.56201,222.57072,-24.57401,1110.50574
124,1.025,102.32819,-107.30491,1116.05505,194.99316,-130.84592,1107.91785,222.1118,-28.24701,1112.50696
125,1.033,101.68355,-108.13119,1116.77319,194.65765,-131.43498,1107.96655,223.0834,-30.94261,1112.15649
126,1.042,101.12252,-108.75632,1117.86169,194.34694,-135.47382,1109.67664,222.5811,-31.66416,1113.28503
127,1.05,101.28476,-110.45799,1118.37085,194.15189,-137.06158,1109.71875,222.58763,-33.15925,1114.0907
128,1.058,100.90154,-112.02057,1118.45264,192.96619,-137.7935,1109.94006,222.76054,-36.32515,1114.28369
129,1.067,100.38985,-113.93421,1118.3595,191.98306,-139.42557,1111.28979,222.95856,-38.43021,1115.02576
130,1.075,100.0371,-114.90625,1119.93408,191.91653,-141.63379,1111.55139,222.72629,-39.96018,1115.52429
131,1.083,99.84174,-115.27576,1120.71558,192.75781,-143.25363,1111.8009,223.15755,-41.65215,1115.93604
132,1.092,100.48792,-117.49832,1120.99866,191.60216,-145.26613,1112.49707,223.32025,-43.6002,1116.39868
133,1.1,100.06699,-119.46357,1121.56006,190.86928,-146.58215,1113.26746,223.81837,-46.46729,1116.86182
134,1.108,99.21669,-120.19611,1121.78296,190.40488,-147.2662,1113.57959,223.97134,-48.09451,1116.5127
135,1.117,99.09169,-121.01158,1122.39001,190.6067,-150.5112,1114.01904,224.11984,-48.74538,1117.93542
136,1.125,98.31661,-122.72234,1122.29858,190.14735,-152.86539,1114.91516,223.60669,-50.87201,1116.69287
137,1.133,98.42208,-122.94778,1122.33398,189.66971,-154.38533,1115.67883,224.01656,-55.40458,1117.67041
138,1.142,98.10962,-125.64247,1122.55518,189.46992,-154.66133,1115.87769,223.96999,-55.59398,1117.93176
139,1.15,97.81983,-126.4379,1123.26477,188.88646,-157.35872,1116.54761,224.08934,-57.71567,1118.32996
140,1.158,97.42918,-128.09691,1123.37085,188.59976,-159.45323,1116.90393,224.72321,-59.40042,1118.66968
141,1.167,97.62781,-129.64449,1123.9563,188.14742,-161.48766,1117.37329,224.0056,-61.76238,1118.10388
142,1.175,97.88916,-130.19595,1123.83826,188.31517,-162.35832,1117.98755,225.16829,-64.70063,1119.16589
143,1.183,97.28112,-131.77969,1124.26953,187.86273,-164.5517,1117.95471,224.83652,-65.10287,1119.8457
144,1.192,97.43332,-132.90125,1124.68823,188.25793,-167.01968,1118.22095,226.23981,-68.24543,1120.85303
145,1.2,97.1705,-135.62599,1124.80872,187.1244,-169.48216,1118.59473,226.0334,-71.25141,1120.98047
146,1.208,97.12983,-136.19321,1125.11804,187.1244,-169.48216,1118.59473,226.2245,-71.73211,1120.93665
147,1.217,97.15699,-137.08788,1125.49561,186.76563,-171.98831,1118.58521,225.17734,-74.00282,1120.75586
148,1.225,97.46177,-138.12508,1125.27271,186.37279,-172.82947,1118.98108,225.48784,-75.12645,1120.65967
149,1.233,96.69237,-139.70638,1125.01196,186.1451,-175.00525,1119.08179,225.56236,-77.36007,1120.98401
150,1.242,96.6214,-141.88354,1125.1825,185.50777,-176.50514,1118.76941,225.51414,-79.1396,1120.97375
151,1.25,96.419,-143.18637,1125.65088,185.22755,-177.7937,1118.85876,226.23352,-81.66978,1120.83167
152,1.258,96.1952,-143.56523,1125.47253,184.70306,-180.32056,1119.19446,225.8141,-83.41835,1120.89746
153,1.267,96.02808,-144.78683,1125.21936,184.1546,-182.30103,1119.28101,226.72983,-85.4857,1121.38306
154,1.275,95.28512,-147.38657,1124.84082,184.65645,-182.84608,1118.18945,226.09224,-88.25491,1119.40845
155,1.283,95.15217,-148.11208,1124.60291,184.10478,-184.7572,1117.40344,226.02892,-88.47081,1119.71118
156,1.292,94.6541,-148.64391,1124.66821,182.94783,-186.88989,1117.69812,227.03459,-91.30203,1119.43555
157,1.3,94.89586,-149.55589,1124.47046,183.32777,-188.49541,1117.22217,226.58867,-93.34612,1119.13721
158,1.308,94.92947,-151.91164,1123.87695,183.19092,-189.84738,1116.93481,226.80087,-93.78992,1118.54199
159,1.317,94.36239,-153.4473,1123.45496,182.4263,-191.01796,1116.72583,226.14865,-96.35969,1117.66956
160,1.325,94.32357,-154.14049,1123.31921,181.97255,-192.25978,1115.88904,225.56712,-96.03126,1117.68213
161,1.333,94.39986,-154.66429,1123.68323,181.65973,-195.2124,1115.65564,225.30949,-100.25005,1115.95044
162,1.342,94.29816,-155.71315,1123.05286,181.05962,-196.04681,1114.65564,225.88664,-101.29076,1114.96704
163,1.35,93.50677,-157.11214,1121.95081,181.5612,-197.73094,1114.53711,226.33257,-101.98981,1114.44702
164,1.358,94.62061,-159.66527,1121.25818,181.65909,-198.91318,1114.08228,226.73431,-105.05779,1113.87
165,1.367,94.434,-160.30298,1120.88184,181.08223,-200.74721,1113.18481,227.14626,-107.02223,1113.31812
166,1.375,94.41256,-161.2294,1120.62573,181.31801,-203.00339,1112.95789,227.59891,-108.1181,1112.63074
167,1.383,94.16891,-162.85715,1119.95142,181.2235,-204.12485,1112.33374,227.75316,-111.25011,1112.31226
168,1.392,94.06174,-164.22096,1119.66479,180.15962,-205.83755,1111.26001,227.25618,-111.46779,1111.69165
169,1.4,94.27012,-165.36818,1119.62463,180.06529,-206.22879,1110.86816,227.38734,-111.74914,1110.97046
170,1.408,94.24978,-165.85606,1118.71021,180.00763,-207.12483,1110.27734,229.03598,-115.55331,1110.52844
171,1.417,94.2081,-166.55875,1118.23193,179.08073,-208.79552,1109.41382,228.382,-115.13445,1109.32483
172,1.425,93.90656,-167.45251,1118.03503,179.83124,-210.68361,1108.79321,228.2823,-118.33614,1108.74683
173,1.433,93.7012,-169.45949,1117.3385,179.62425,-212.94278,1108.56909,227.77765,-121.6083,1107.54041
174,1.442,93.75412,-170.65144,1116.83362,179.97495,-214.45598,1107.78857,227.44783,-121.9351,1106.40796
175,1.45,93.52885,-171.44537,1116.04163,179.18192,-215.21176,1107.11853,227.79942,-124.28539,1106.02917
176,1.458,93.20424,-172.60136,1115.34412,178.90968,-216.44934,1106.94458,228.34616,-124.56687,1104.77441
177,1.467,92.97143,-174.23241,1114.76599,177.87357,-217.27142,1105.7644,227.27242,-122.49923,1103.53333
178,1.475,93.0391,-174.40491,1113.7489,177.3589,-218.88338,1105.00342,227.30077,-125.04546,1102.70569
179,1.483,92.44154,-175.59586,1113.20068,177.43997,-219.75703,1103.6543,227.70316,-128.18459,1102.20776
180,1.492,92.25052,-177.25209,1112.84131,177.34351,-221.19328,1102.72705,228.42229,-130.98544,1101.27673
181,1.5,92.12498,-178.08743,1111.70813,176.73265,-221.67578,1101.91785,227.85248,-133.00275,1100.57922
182,1.508,92.14397,-178.63028,1111.12769,176.73944,-223.28954,1100.71448,227.95981,-132.95418,1099.63855
183,1.517,91.95229,-180.56769,1110.7428,175.92657,-224.44359,1099.4093,228.33391,-134.24258,1099.41516
184,1.525,92.10144,-181.50943,1110.15601,176.76077,-225.22218,1099.21814,227.58569,-132.9072,1098.15125
185,1.533,92.58566,-181.9109,1109.05322,176.55009,-226.24829,1098.88513,226.59506,-134.88641,1096.05615
186,1.542,92.15047,-182.46902,1108.58728,176.41676,-229.22868,1098.57507,227.21896,-133.52789,1096.54614
187,1.55,92.08126,-184.94785,1108.06628,176.43275,-229.77167,1097.29419,228.81564,-139.16827,1095.73682
188,1.558,92.39012,-184.9817,1107.82813,176.46121,-229.94591,1096.48608,228.40726,-140.76038,1094.4574
189,1.567,92.45792,-185.12834,1107.44617,175.72887,-232.00029,1095.84033,228.79811,-143.95311,1093.80676
190,1.575,91.81806,-186.12091,1106.50439,176.04474,-232.60707,1094.20227,228.51857,-148.00835,1092.04651
191,1.583,92.19827,-187.25999,1105.54211,175.97847,-233.09814,1093.69702,228.57622,-149.26047,1091.41907
192,1.592,92.87093,-187.86401,1104.41541,175.96719,-234.4561,1093.08337,227.68393,-140.63557,1092.03564
193,1.6,92.09793,-189.38083,1104.20569,174.72026,-235.91006,1092.19482,227.75136,-140.37602,1091.89368
194,1.608,92.16969,-190.01247,1103.22034,175.44221,-237.12053,1091.14233,226.50301,-146.83688,1088.57288
195,1.617,92.09885,-192.42,1102.2356,174.99307,-239.24298,1090.01624,226.31677,-147.43356,1088.05713
196,1.625,91.82185,-192.58894,1102.06006,174.44423,-239.53984,1089.80286,226.01094,-148.6895,1087.0304
