Frame#,Time,R.Forearm.x,R.Forearm.y,R.Forearm.z,R.Ulna.x,R.Ulna.y,R.Ulna.z,R.Radius.x,R.Radius.y,R.Radius.z
1,0,234.5392,-319.89755,1212.11169,315.47925,-344.66064,1206.07092,327.79639,-274.1456,1241.89502
2,0.008,234.5392,-319.89755,1212.11169,315.47925,-344.66064,1206.07092,327.79639,-274.1456,1241.89502
3,0.017,234.75519,-319.82608,1212.40894,315.47925,-344.66064,1206.07092,327.79639,-274.1456,1241.89502
4,0.025,234.75519,-319.82608,1212.40894,315.47925,-344.66064,1206.07092,327.79639,-274.1456,1241.89502
5,0.033,234.5392,-319.89755,1212.11169,315.47925,-344.66064,1206.07092,327.79639,-274.1456,1241.89502
6,0.042,234.5392,-319.89755,1212.11169,315.47925,-344.66064,1206.07092,327.84109,-274.12955,1241.7782
7,0.05,234.5392,-319.89755,1212.11169,315.47925,-344.66064,1206.07092,327.79639,-274.1456,1241.89502
8,0.058,234.5392,-319.89755,1212.11169,315.47925,-344.66064,1206.07092,327.84109,-274.12955,1241.7782
9,0.067,234.5392,-319.89755,1212.11169,315.47925,-344.66064,1206.07092,327.84109,-274.12955,1241.7782
10,0.075,234.5392,-319.89755,1212.11169,315.47925,-344.66064,1206.07092,328.09921,-276.13422,1241.91028
11,0.083,234.5392,-319.89755,1212.11169,315.47925,-344.66064,1206.07092,328.64954,-276.95453,1242.1344
12,0.092,234.86195,-320.14166,1211.98779,315.10425,-344.077,1205.79614,328.19904,-275.96793,1241.79468
13,0.1,234.5392,-319.89755,1212.11169,315.02783,-344.03812,1205.57031,327.92935,-273.77316,1241.48999
14,0.108,234.86195,-320.14166,1211.98779,315.10425,-344.077,1205.79614,328.23083,-275.60226,1241.51868
15,0.117,234.86195,-320.14166,1211.98779,315.10425,-344.077,1205.79614,328.23083,-275.60226,1241.51868
16,0.125,234.86195,-320.14166,1211.98779,315.27875,-343.65195,1205.25134,328.23083,-275.60226,1241.51868
17,0.133,235.34032,-320.27112,1212.18005,315.39578,-343.43979,1205.07312,328.23083,-275.60226,1241.51868
18,0.142,235.34032,-320.27112,1212.18005,315.39578,-343.43979,1205.07312,327.63177,-272.90149,1241.65173
19,0.15,235.33263,-319.32449,1211.85571,315.71597,-343.27313,1205.01331,328.23083,-275.60226,1241.51868
20,0.158,235.9445,-319.57852,1211.95911,315.51871,-343.01038,1205.03845,328.58173,-276.88135,1241.96899
21,0.167,235.9445,-319.57852,1211.95911,315.59106,-343.00415,1204.96558,328.75803,-276.67624,1242.11255
22,0.175,235.9445,-319.57852,1211.95911,315.58206,-342.5993,1205.08887,327.96347,-275.06519,1241.66199
23,0.183,235.9445,-319.57852,1211.95911,315.56171,-342.80157,1204.89197,328.43866,-274.94211,1241.72803
24,0.192,235.9445,-319.57852,1211.95911,315.75,-342.65955,1204.99011,330.70883,-277.53165,1242.30762
25,0.2,235.9445,-319.57852,1211.95911,315.74371,-342.39877,1204.92578,330.43918,-278.49591,1242.41553
26,0.208,235.9445,-319.57852,1211.95911,315.91327,-342.01987,1204.86072,330.29385,-277.83994,1242.20886
27,0.217,235.9445,-319.57852,1211.95911,316.08121,-342.08014,1204.76196,328.43866,-274.94211,1241.72803
28,0.225,236.29823,-319.85721,1211.80566,316.08121,-342.08014,1204.76196,328.35898,-274.23038,1241.66052
29,0.233,236.29823,-319.85721,1211.80566,316.08121,-342.08014,1204.76196,329.09103,-276.15924,1242.16833
30,0.242,236.29823,-319.85721,1211.80566,316.08121,-342.08014,1204.76196,328.67627,-274.88074,1241.76099
31,0.25,236.29823,-319.85721,1211.80566,316.08121,-342.08014,1204.76196,328.67627,-274.88074,1241.76099
32,0.258,236.29823,-319.85721,1211.80566,316.17404,-341.92334,1204.53357,328.67627,-274.88074,1241.76099
33,0.267,237.36446,-320.24146,1212.08081,316.17404,-341.92334,1204.53357,328.67627,-274.88074,1241.76099
34,0.275,237.36446,-320.24146,1212.08081,316.17404,-341.92334,1204.53357,328.67627,-274.88074,1241.76099
35,0.283,237.36446,-320.24146,1212.08081,316.17404,-341.92334,1204.53357,328.67627,-274.88074,1241.76099
36,0.292,237.36446,-320.24146,1212.08081,316.17404,-341.92334,1204.53357,328.67627,-274.88074,1241.76099
37,0.3,237.36446,-320.24146,1212.08081,316.17404,-341.92334,1204.53357,328.67627,-274.88074,1241.76099
38,0.308,237.36446,-320.24146,1212.08081,316.17404,-341.92334,1204.53357,328.83319,-274.60065,1241.95496
39,0.317,237.36446,-320.24146,1212.08081,316.21664,-342.00168,1204.76843,328.83319,-274.60065,1241.95496
40,0.325,237.36446,-320.24146,1212.08081,316.21664,-342.00168,1204.76843,328.83319,-274.60065,1241.95496
41,0.333,237.36446,-320.24146,1212.08081,316.12378,-342.15845,1204.99683,329.26163,-275.8934,1242.35083
42,0.342,237.36446,-320.24146,1212.08081,316.21664,-342.00168,1204.76843,328.83319,-274.60065,1241.95496
43,0.35,237.36446,-320.24146,1212.08081,315.95584,-342.09818,1205.09558,328.5159,-273.9502,1241.85461
44,0.358,237.36446,-320.24146,1212.08081,315.69293,-341.80322,1205.03149,328.38147,-273.41144,1242.13513
45,0.367,236.89122,-320.02048,1212.04016,315.62448,-341.64911,1205.23792,328.38147,-273.41144,1242.13513
46,0.375,236.29823,-319.85721,1211.80566,315.62448,-341.64911,1205.23792,328.38147,-273.41144,1242.13513
47,0.383,235.9445,-319.57852,1211.95911,315.62448,-341.64911,1205.23792,328.38147,-273.41144,1242.13513
48,0.392,236.29823,-319.85721,1211.80566,315.67685,-341.55731,1205.42566,328.92603,-274.94028,1242.5365
49,0.4,235.9445,-319.57852,1211.95911,315.62448,-341.64911,1205.23792,328.92603,-274.94028,1242.5365
50,0.408,235.9445,-319.57852,1211.95911,315.62448,-341.64911,1205.23792,330.8858,-277.2308,1243.27649
51,0.417,235.9445,-319.57852,1211.95911,315.52496,-341.74292,1205.13025,328.38147,-273.41144,1242.13513
52,0.425,235.9445,-319.57852,1211.95911,315.52496,-341.74292,1205.13025,328.45062,-273.39331,1242.00793
53,0.433,235.9445,-319.57852,1211.95911,315.52496,-341.74292,1205.13025,328.83319,-274.60065,1241.95496
54,0.442,235.9445,-319.57852,1211.95911,315.95584,-342.09818,1205.09558,330.96457,-277.51324,1243.02673
55,0.45,235.9445,-319.57852,1211.95911,315.95584,-342.09818,1205.09558,330.55362,-278.39313,1243.20215
56,0.458,235.9445,-319.57852,1211.95911,315.86789,-342.30273,1205.31567,328.73557,-275.05362,1242.23401
57,0.467,235.9445,-319.57852,1211.95911,315.96216,-342.35898,1205.15991,328.73557,-275.05362,1242.23401
58,0.475,235.9445,-319.57852,1211.95911,315.54251,-343.1821,1205.87781,328.73557,-275.05362,1242.23401
59,0.483,235.9445,-319.57852,1211.95911,315.54251,-343.1821,1205.87781,328.73557,-275.05362,1242.23401
60,0.492,235.66231,-319.29553,1212.18018,315.45444,-343.38651,1206.09778,328.73557,-275.05362,1242.23401
61,0.5,235.66231,-319.29553,1212.18018,315.45444,-343.38651,1206.09778,330.66623,-277.91574,1243.13806
62,0.508,235.66231,-319.29553,1212.18018,315.82928,-343.97018,1206.37244,330.66623,-277.91574,1243.13806
63,0.517,235.9445,-319.57852,1211.95911,315.82928,-343.97018,1206.37244,330.80392,-277.70728,1243.23547
64,0.525,235.66231,-319.29553,1212.18018,315.82928,-343.97018,1206.37244,330.66623,-277.91574,1243.13806
65,0.533,235.66231,-319.29553,1212.18018,315.82928,-343.97018,1206.37244,330.75052,-278.26764,1243.39209
66,0.542,235.66231,-319.29553,1212.18018,315.88159,-343.87839,1206.56006,330.75052,-278.26764,1243.39209
67,0.55,235.95238,-320.20154,1212.80701,315.88159,-343.87839,1206.56006,330.75052,-278.26764,1243.39209
68,0.558,235.95238,-320.20154,1212.80701,315.88159,-343.87839,1206.56006,330.34351,-278.12048,1243.30249
69,0.567,235.95238,-320.20154,1212.80701,315.7471,-343.89471,1206.77588,330.34351,-278.12048,1243.30249
70,0.575,235.31078,-319.9505,1212.67432,315.37225,-343.31104,1206.50122,330.41193,-278.35883,1243.38831
71,0.583,235.31078,-319.9505,1212.67432,315.37225,-343.31104,1206.50122,330.34351,-278.12048,1243.30249
72,0.592,235.31078,-319.9505,1212.67432,315.37225,-343.31104,1206.50122,330.34351,-278.12048,1243.30249
73,0.6,235.31078,-319.9505,1212.67432,315.69479,-343.98651,1206.58826,330.41193,-278.35883,1243.38831
74,0.608,235.31078,-319.9505,1212.67432,315.82928,-343.97018,1206.37244,330.41193,-278.35883,1243.38831
75,0.617,235.31078,-319.9505,1212.67432,315.82928,-343.97018,1206.37244,330.41193,-278.35883,1243.38831
76,0.625,235.31078,-319.9505,1212.67432,315.82928,-343.97018,1206.37244,330.17447,-278.72235,1243.47827
77,0.633,235.31078,-319.9505,1212.67432,315.82928,-343.97018,1206.37244,329.95398,-279.16846,1243.44385
78,0.642,235.31078,-319.9505,1212.67432,315.82928,-343.97018,1206.37244,329.90634,-278.79376,1243.19934
79,0.65,234.75519,-319.82608,1212.40894,315.82928,-343.97018,1206.37244,329.90634,-278.79376,1243.19934
80,0.658,235.62291,-320.23068,1212.48279,315.82928,-343.97018,1206.37244,329.90634,-278.79376,1243.19934
81,0.667,235.62291,-320.23068,1212.48279,316.02643,-344.23279,1206.34729,329.9686,-279.15939,1243.11597
82,0.675,234.75519,-319.82608,1212.40894,316.02643,-344.23279,1206.34729,329.90634,-278.79376,1243.19934
83,0.683,235.62291,-320.23068,1212.48279,316.02643,-344.23279,1206.34729,329.9686,-279.15939,1243.11597
84,0.692,235.31078,-319.9505,1212.67432,316.02643,-344.23279,1206.34729,329.9686,-279.15939,1243.11597
85,0.7,235.62291,-320.23068,1212.48279,315.87421,-344.45959,1206.30835,329.9686,-279.15939,1243.11597
86,0.708,235.62291,-320.23068,1212.48279,316.02643,-344.23279,1206.34729,330.21335,-278.73441,1243.02869
87,0.717,236.23445,-320.48438,1212.58606,316.02643,-344.23279,1206.34729,330.26062,-278.93723,1243.1217
88,0.725,236.23445,-320.48438,1212.58606,316.02643,-344.23279,1206.34729,328.2688,-275.92517,1242.06226
89,0.733,236.29823,-319.85721,1211.80566,316.02643,-344.23279,1206.34729,328.35583,-275.84128,1241.93201
90,0.742,235.9445,-319.57852,1211.95911,316.02643,-344.23279,1206.34729,328.76093,-275.41562,1241.89819
91,0.75,235.87646,-319.85663,1211.45215,316.02643,-344.23279,1206.34729,328.76093,-275.41562,1241.89819
92,0.758,236.29823,-319.85721,1211.80566,316.19421,-344.29294,1206.24854,328.76093,-275.41562,1241.89819
93,0.767,236.29823,-319.85721,1211.80566,316.19421,-344.29294,1206.24854,328.97983,-275.40784,1241.94189
94,0.775,236.29823,-319.85721,1211.80566,316.19421,-344.29294,1206.24854,328.97983,-275.40784,1241.94189
95,0.783,236.29823,-319.85721,1211.80566,316.23355,-343.99722,1205.84094,329.21298,-276.4162,1242.2511
96,0.792,236.29823,-319.85721,1211.80566,316.23355,-343.99722,1205.84094,329.41736,-276.38455,1242.29321
97,0.8,236.29823,-319.85721,1211.80566,316.23355,-343.99722,1205.84094,328.57425,-276.01123,1241.9762
98,0.808,236.29823,-319.85721,1211.80566,316.08133,-344.22403,1205.802,328.3161,-274.02817,1241.85327
99,0.817,235.87646,-319.85663,1211.45215,316.08133,-344.22403,1205.802,328.81183,-275.94989,1242.00928
100,0.825,235.87646,-319.85663,1211.45215,316.17139,-344.44995,1205.63318,328.3161,-274.02817,1241.85327
101,0.833,235.87646,-319.85663,1211.45215,316.17139,-344.44995,1205.63318,328.22928,-274.3251,1241.85193
102,0.842,235.87646,-319.85663,1211.45215,315.94882,-344.8562,1205.89233,328.08221,-274.19003,1241.84314
103,0.85,236.1665,-320.76251,1212.07947,315.85873,-344.63028,1206.06116,328.08221,-274.19003,1241.84314
104,0.858,236.07959,-321.20456,1211.89038,315.67624,-344.71848,1205.97156,330.08405,-279.36246,1243.02271
105,0.867,236.07959,-321.20456,1211.89038,315.85873,-344.63028,1206.06116,329.90509,-279.14468,1243.02075
106,0.875,235.06505,-321.04117,1211.30273,315.67624,-344.71848,1205.97156,329.72238,-279.51968,1243.06226
107,0.883,234.34192,-321.7948,1211.4939,315.69092,-344.57013,1206.15979,329.5972,-279.83243,1243.18726
108,0.892,234.86337,-322.05804,1211.5061,315.47925,-344.66064,1206.07092,329.5972,-279.83243,1243.18726
109,0.9,234.34192,-321.7948,1211.4939,315.47925,-344.66064,1206.07092,329.62372,-279.96112,1243.34973
110,0.908,234.34192,-321.7948,1211.4939,315.47925,-344.66064,1206.07092,329.24817,-280.32184,1243.44287
111,0.917,234.34192,-321.7948,1211.4939,315.47925,-344.66064,1206.07092,329.55066,-280.60956,1243.4491
112,0.925,234.34192,-321.7948,1211.4939,315.47925,-344.66064,1206.07092,329.66394,-280.65845,1243.63513
113,0.933,234.19334,-321.59216,1211.69702,315.49808,-344.93436,1206.11487,329.66394,-280.65845,1243.63513
114,0.942,234.19334,-321.59216,1211.69702,315.07092,-345.5325,1206.42395,329.323,-280.83087,1243.59973
115,0.95,234.19334,-321.59216,1211.69702,315.07092,-345.5325,1206.42395,329.49133,-281.18677,1243.8551
116,0.958,234.19334,-321.59216,1211.69702,314.85931,-345.62299,1206.33521,329.22125,-281.11777,1243.59888
117,0.967,234.19334,-321.59216,1211.69702,314.85931,-345.62299,1206.33521,329.13071,-281.75677,1243.83618
118,0.975,233.81209,-321.32727,1211.80579,314.85931,-345.62299,1206.33521,328.99521,-281.86884,1243.94446
119,0.983,233.59242,-322.43295,1212.39685,314.55597,-345.66486,1206.3208,328.80676,-282.24036,1243.96045
120,0.992,233.59242,-322.43295,1212.39685,314.30966,-345.71619,1206.28687,328.94263,-282.53976,1243.97815
121,1,233.59242,-322.43295,1212.39685,314.02759,-345.72256,1206.31531,328.74442,-282.5538,1243.93494
122,1.008,233.46872,-323.05194,1212.98303,314.11777,-345.94858,1206.14648,328.53644,-282.62604,1243.91931
123,1.017,233.41539,-323.11523,1212.76514,314.02759,-345.72256,1206.31531,328.38806,-282.30374,1243.90417
124,1.025,233.41539,-323.11523,1212.76514,314.11777,-345.94858,1206.14648,328.15814,-282.17209,1243.90369
125,1.033,233.68668,-322.668,1212.33057,314.02759,-345.72256,1206.31531,328.15814,-282.17209,1243.90369
126,1.042,233.68668,-322.668,1212.33057,314.02759,-345.72256,1206.31531,328.40311,-282.4086,1243.79907
127,1.05,233.41539,-323.11523,1212.76514,314.02759,-345.72256,1206.31531,328.40311,-282.4086,1243.79907
128,1.058,233.68668,-322.668,1212.33057,313.93307,-345.7486,1206.17908,328.40311,-282.4086,1243.79907
129,1.067,233.68668,-322.668,1212.33057,314.02759,-345.72256,1206.31531,328.24338,-282.05066,1243.77307
130,1.075,234.11577,-321.84698,1211.90198,313.9418,-345.63812,1205.98352,328.22501,-281.9162,1243.6051
131,1.083,233.68668,-322.668,1212.33057,313.9418,-345.63812,1205.98352,328.22501,-281.9162,1243.6051
132,1.092,233.68668,-322.668,1212.33057,313.9418,-345.63812,1205.98352,328.22903,-281.07626,1243.38135
133,1.1,233.68668,-322.668,1212.33057,313.92288,-345.36441,1205.93958,328.03964,-281.22461,1243.48499
134,1.108,233.68668,-322.668,1212.33057,314.02512,-345.34601,1206.10596,327.72696,-281.35913,1243.58679
135,1.117,233.46872,-323.05194,1212.98303,314.02512,-345.34601,1206.10596,327.50116,-281.38794,1243.77905
136,1.125,233.46872,-323.05194,1212.98303,314.00867,-345.44888,1206.27136,327.50116,-281.38794,1243.77905
137,1.133,233.46872,-323.05194,1212.98303,313.89197,-345.37656,1206.37927,327.33383,-281.15283,1244.00916
138,1.142,233.46872,-323.05194,1212.98303,313.32648,-344.76019,1206.48206,327.21777,-281.47348,1244.34558
139,1.15,233.46872,-323.05194,1212.98303,313.09537,-344.7543,1206.51965,327.21777,-281.47348,1244.34558
140,1.158,233.46872,-323.05194,1212.98303,313.09537,-344.7543,1206.51965,327.03973,-281.56339,1244.38464
141,1.167,233.46872,-323.05194,1212.98303,313.09537,-344.7543,1206.51965,327.03973,-281.56339,1244.38464
142,1.175,233.46872,-323.05194,1212.98303,313.01205,-344.79367,1206.69543,327.03973,-281.56339,1244.38464
143,1.183,233.46872,-323.05194,1212.98303,312.98474,-344.84381,1206.75867,326.81747,-281.36136,1244.47852
144,1.192,232.99541,-322.83139,1212.9425,312.43967,-345.02069,1207.11975,327.05441,-281.81296,1244.40674
145,1.2,232.99541,-322.83139,1212.9425,312.07339,-345.44626,1207.21606,326.95258,-281.70248,1244.51697
146,1.208,232.40237,-322.6684,1212.70825,312.07101,-345.8244,1207.33313,326.64615,-281.15628,1244.53052
147,1.217,232.66049,-323.13992,1212.75049,312.07101,-345.8244,1207.33313,326.78122,-281.4975,1244.56897
148,1.225,232.66049,-323.13992,1212.75049,312.07101,-345.8244,1207.33313,326.78568,-281.40442,1244.40015
149,1.233,232.40601,-323.02798,1212.93982,312.07101,-345.8244,1207.33313,326.61337,-281.21762,1244.43628
150,1.242,232.40601,-323.02798,1212.93982,312.07101,-345.8244,1207.33313,326.44659,-281.21039,1244.39282
151,1.25,232.40601,-323.02798,1212.93982,311.86108,-346.05817,1207.38672,325.88388,-281.53525,1244.49573
152,1.258,232.15724,-323.15656,1212.74084,311.32877,-345.55334,1206.95593,325.88388,-281.53525,1244.49573
153,1.267,231.90851,-323.28522,1212.54199,311.11703,-345.64383,1206.86731,325.9678,-281.29987,1244.0929
154,1.275,231.5038,-323.3255,1212.49121,310.85678,-345.49182,1206.66772,325.72208,-281.37125,1244.08459
155,1.283,231.17264,-323.29132,1212.55811,310.73065,-345.16483,1206.28589,325.67493,-280.92117,1243.88831
156,1.292,231.17264,-323.29132,1212.55811,310.71994,-345.29108,1206.13281,325.67493,-280.92117,1243.88831
157,1.3,231.17264,-323.29132,1212.55811,310.71994,-345.29108,1206.13281,325.03256,-280.70221,1243.51599
158,1.308,231.17264,-323.29132,1212.55811,310.31287,-344.93903,1205.69214,324.87933,-280.96146,1243.37549
159,1.317,231.17264,-323.29132,1212.55811,310.07111,-344.99109,1205.65662,324.65186,-281.04266,1243.38586
160,1.325,230.89922,-323.19873,1212.71729,309.99179,-344.94888,1205.35168,324.23944,-280.95343,1243.42297
161,1.333,229.91283,-321.77344,1212.06702,309.48047,-345.0386,1205.67224,324.13028,-280.98923,1243.24048
162,1.342,229.91283,-321.77344,1212.06702,309.04895,-345.43268,1205.66211,324.13028,-280.98923,1243.24048
163,1.35,229.47333,-321.74329,1211.74683,308.29602,-344.52048,1205.17493,323.99118,-280.80029,1243.11206
164,1.358,228.14197,-320.87991,1210.82227,308.29602,-344.52048,1205.17493,323.86514,-280.51453,1242.97437
165,1.367,228.13361,-320.3396,1210.4386,308.02328,-344.54242,1205.18213,323.56705,-280.22919,1243.11914
166,1.375,227.67828,-320.33865,1210.45581,308.02328,-344.54242,1205.18213,323.46344,-280.10745,1243.14661
167,1.383,227.67828,-320.33865,1210.45581,308.02328,-344.54242,1205.18213,323.28806,-280.31744,1243.05017
168,1.392,227.67828,-320.33865,1210.45581,307.81247,-344.62244,1205.10681,322.85513,-280.52585,1243.0033
169,1.4,227.67828,-320.33865,1210.45581,307.81247,-344.62244,1205.10681,322.69223,-279.79034,1242.85254
170,1.408,227.21767,-320.37021,1210.42139,307.81247,-344.62244,1205.10681,322.483,-279.81891,1242.86792
171,1.417,227.22624,-320.91055,1210.80505,307.81247,-344.62244,1205.10681,322.32541,-279.91699,1242.9552
172,1.425,227.21767,-320.37021,1210.42139,307.53091,-344.61472,1205.36902,322.32541,-279.91699,1242.9552
173,1.433,227.22624,-320.91055,1210.80505,307.53091,-344.61472,1205.36902,322.32541,-279.91699,1242.9552
174,1.442,226.85471,-320.86279,1210.89526,307.36099,-344.69324,1205.65259,322.37064,-279.9437,1243.1521
175,1.45,226.85471,-320.86279,1210.89526,307.36099,-344.69324,1205.65259,321.86377,-280.21017,1243.55139
176,1.458,226.85471,-320.86279,1210.89526,307.36099,-344.69324,1205.65259,321.86377,-280.21017,1243.55139
177,1.467,226.74791,-320.55832,1211.0022,306.4382,-344.56693,1205.80212,321.86377,-280.21017,1243.55139
178,1.475,226.74791,-320.55832,1211.0022,306.3215,-344.77945,1205.98059,321.93112,-280.65814,1243.82617
179,1.483,226.74529,-320.74747,1211.08521,306.3215,-344.77945,1205.98059,318.8125,-275.15176,1242.31836
180,1.492,226.63844,-320.44293,1211.19202,306.3215,-344.77945,1205.98059,318.48163,-276.26959,1242.68347
181,1.5,226.63844,-320.44293,1211.19202,306.06342,-344.7677,1206.02954,318.29373,-276.49368,1242.88
182,1.508,226.36478,-320.35022,1211.35144,306.06342,-344.7677,1206.02954,318.29373,-276.49368,1242.88
183,1.517,226.36478,-320.35022,1211.35144,306.06342,-344.7677,1206.02954,318.00339,-276.37277,1243.43701
184,1.525,226.36478,-320.35022,1211.35144,305.97327,-344.70151,1206.12634,318.00339,-276.37277,1243.43701
185,1.533,226.36478,-320.35022,1211.35144,305.97327,-344.70151,1206.12634,318.38391,-278.12668,1243.63562
186,1.542,226.36478,-320.35022,1211.35144,305.97327,-344.70151,1206.12634,317.68375,-277.71509,1243.74329
187,1.55,226.36478,-320.35022,1211.35144,305.97327,-344.70151,1206.12634,318.397,-279.20038,1244.19458
188,1.558,226.36478,-320.35022,1211.35144,305.97327,-344.70151,1206.12634,318.397,-279.20038,1244.19458
189,1.567,226.36478,-320.35022,1211.35144,305.60669,-344.36694,1206.35608,317.68375,-277.71509,1243.74329
190,1.575,226.36478,-320.35022,1211.35144,305.27036,-344.32745,1206.72534,317.68375,-277.71509,1243.74329
