Frame#,Time,L.Forearm.x,L.Forearm.y,L.Forearm.z,L.Ulna.x,L.Ulna.y,L.Ulna.z,L.Radius.x,L.Radius.y,L.Radius.z
1,0,-864.5119,480.57288,1089.97168,-883.52203,516.74255,982.71619,-811.38251,481.40378,929.46503
2,0.008,-855.53632,478.08334,1091.09839,-873.07672,516.32776,983.71057,-799.67432,479.74063,931.24414
3,0.017,-846.13385,476.66348,1091.39294,-862.86829,514.79236,983.65955,-788.96313,477.45859,932.87085
4,0.025,-838.57178,475.07349,1092.43506,-852.46887,513.1048,983.98694,-779.95258,475.67413,934.27557
5,0.033,-830.0899,475.01382,1093.23767,-842.39502,512.47314,984.07318,-768.77637,473.79089,934.78131
6,0.042,-820.95764,472.50104,1093.21594,-833.62109,510.46579,985.22357,-758.83966,472.16168,936.46155
7,0.05,-813.20117,471.42401,1092.99817,-823.26886,508.17798,984.88647,-749.08423,470.5882,937.53619
8,0.058,-805.16187,470.05661,1092.66919,-814.03668,507.50043,985.01666,-738.66089,467.1683,938.10736
9,0.067,-796.67224,468.2106,1093.51526,-804.46527,503.84494,985.65985,-729.18866,464.64319,939.56934
10,0.075,-788.54523,466.27414,1093.75781,-795.99078,503.39249,984.73633,-719.90173,462.46786,940.1875
11,0.083,-780.88062,465.76425,1094.53735,-785.88629,501.39447,985.26984,-709.70526,460.60504,941.23669
12,0.092,-772.9292,463.30496,1094.29907,-777.72491,499.10245,985.69165,-700.758,458.09247,942.45343
13,0.1,-763.8764,462.42886,1094.94641,-767.75928,496.82336,984.62903,-691.70398,456.58316,942.46515
14,0.108,-755.32147,458.98688,1094.33203,-759.75403,494.49811,984.73157,-682.66156,452.5585,942.39111
15,0.117,-747.39551,457.01282,1094.25,-750.6875,492.09091,984.16492,-673.87927,451.28119,943.34351
16,0.125,-739.13892,454.99503,1094.00183,-741.71869,490.07736,984.3349,-665.82263,447.43036,942.94666
17,0.133,-731.89966,454.74167,1094.00806,-731.96497,488.16553,984.28259,-656.10663,444.64999,943.09338
18,0.142,-723.10919,451.9588,1093.14551,-724.539,485.96445,983.27753,-646.98376,442.69342,943.17493
19,0.15,-714.25751,449.00293,1092.78992,-715.52399,483.19254,983.07031,-638.49121,440.46771,943.35834
20,0.158,-705.53131,446.41574,1092.67432,-707.37946,480.59842,983.26007,-631.46686,437.63989,942.86945
21,0.167,-698.49542,444.89835,1092.74146,-698.3465,478.61215,982.4693,-623.70728,432.91562,943.39899
22,0.175,-690.48492,443.69873,1092.39978,-690.84912,476.66043,982.5163,-613.99725,431.38425,942.0282
23,0.183,-681.92047,440.52533,1091.72253,-682.42688,474.6185,981.47614,-607.62622,429.0809,941.67499
24,0.192,-674.26031,438.90375,1091.21912,-674.36346,472.23373,981.74146,-598.78442,426.82364,941.68732
25,0.2,-666.78052,435.94522,1091.13647,-666.98273,470.7063,981.35992,-591.13409,423.73343,940.47363
26,0.208,-659.03101,433.73254,1090.77283,-658.22107,467.71597,980.79095,-584.33362,420.95544,940.00842
27,0.217,-652.25555,432.75241,1090.26794,-650.82855,466.2341,980.28009,-576.5498,419.25797,939.86914
28,0.225,-644.30798,429.34604,1090.41589,-643.48212,464.48785,980.065,-570.58337,416.66275,939.37518
29,0.233,-637.92804,428.55252,1089.99121,-635.96051,461.5726,979.21436,-563.07611,413.78711,938.72742
30,0.242,-629.47217,425.43472,1088.90393,-628.79364,460.87308,978.96906,-555.90106,412.64655,937.25201
31,0.25,-623.82452,424.21524,1088.55896,-622.22058,458.58527,978.58496,-549.534,409.28897,937.28503
32,0.258,-615.92218,422.60785,1088.20801,-615.05725,456.3577,978.24329,-542.66644,407.44177,936.03577
33,0.267,-609.04138,420.42206,1087.28674,-608.55804,455.05774,977.08148,-535.72675,405.91763,936.07971
34,0.275,-602.95532,418.14444,1086.99353,-602.68335,453.91846,977.49713,-530.39709,404.55325,934.08832
35,0.283,-596.3703,417.32275,1086.07202,-595.29303,451.07217,976.44574,-524.61456,402.6572,934.58392
36,0.292,-589.5033,414.51074,1085.33606,-589.19,451.04749,975.19757,-518.48877,400.72983,932.90051
37,0.3,-583.28516,413.79306,1084.54443,-583.17798,449.83981,974.02185,-512.47803,399.89465,931.42731
38,0.308,-576.30432,412.17093,1083.9563,-577.8786,447.13846,973.70728,-507.47672,396.77115,929.9342
39,0.317,-571.10919,410.37534,1083.37708,-571.71539,446.60498,973.3913,-502.00079,397.77115,928.06738
40,0.325,-565.88074,408.79602,1082.72217,-566.98572,443.99786,973.1651,-496.85431,395.46353,927.69202
41,0.333,-560.19995,407.63419,1081.71033,-562.10065,443.94586,972.18738,-492.66422,393.80319,927.30591
42,0.342,-553.88037,407.26413,1081.48438,-557.13867,442.45325,971.5827,-487.20325,393.17914,926.86194
43,0.35,-549.39191,405.95612,1081.48572,-552.88184,440.53714,970.14917,-482.51678,392.36615,924.96338
44,0.358,-542.659,403.28119,1081.04272,-548.90918,440.17429,969.56671,-479.74332,390.53302,923.98273
45,0.367,-538.06323,403.4715,1080.55615,-545.30383,439.11688,969.07123,-475.27628,391.54001,923.16699
46,0.375,-532.73621,401.89102,1080.22656,-541.23187,439.46637,969.24664,-470.65335,391.31061,922.64923
47,0.383,-528.17615,401.93851,1079.51147,-537.08588,436.70865,968.59875,-467.76184,389.38074,921.80682
48,0.392,-523.70374,399.91727,1078.89099,-532.66528,436.1608,968.13696,-463.92764,390.04736,919.93604
49,0.4,-517.83496,398.61127,1078.50317,-529.90149,435.58044,968.08563,-460.39697,390.55881,919.52869
50,0.408,-513.0556,397.63727,1078.80383,-526.71484,434.20505,967.97876,-455.79132,389.71515,919.39319
51,0.417,-510.69672,398.42145,1077.50525,-522.61664,434.76114,967.86804,-453.53964,389.40439,918.78613
52,0.425,-505.98288,399.02094,1077.77441,-520.263,434.12494,967.80792,-450.10165,390.86685,917.66583
53,0.433,-501.42349,397.49918,1076.90222,-516.86328,432.19778,968.14679,-446.9035,389.78156,916.93677
54,0.442,-497.74445,396.7807,1076.23669,-513.87634,431.16574,967.04712,-444.99765,390.26663,914.63257
55,0.45,-494.04272,395.35123,1076.56372,-512.5177,431.18201,966.78516,-441.02609,390.75369,914.63153
56,0.458,-490.0553,395.73822,1075.90857,-508.70959,431.31451,966.53394,-438.85336,391.66208,913.6236
57,0.467,-486.4845,395.23282,1075.59009,-505.9993,430.43848,965.60071,-436.80344,391.02896,912.79938
58,0.475,-483.03183,394.96628,1075.51941,-503.90054,429.4119,966.02344,-433.69189,391.95123,912.5686
59,0.483,-480.28589,394.80487,1074.77893,-501.55548,429.27783,965.80884,-431.00629,390.00027,911.98303
60,0.492,-476.56323,394.52277,1074.30676,-499.00333,429.36273,965.49591,-431.61942,389.33972,911.24097
61,0.5,-473.38461,393.09918,1074.58386,-497.23804,427.44998,965.6084,-427.38522,389.31781,910.86481
62,0.508,-471.05661,393.67365,1074.54797,-494.72522,426.6373,965.60559,-425.18951,390.29651,909.94342
63,0.517,-467.14264,392.87769,1074.50977,-493.26035,426.12485,965.67133,-422.56055,390.33829,909.67065
64,0.525,-464.95932,392.15057,1074.38782,-490.6442,426.26468,965.49811,-421.3764,388.73947,908.8891
65,0.533,-461.60089,391.16254,1073.71619,-489.11194,426.08621,965.5965,-418.69305,391.32059,908.76929
66,0.542,-460.52844,391.67398,1073.80371,-486.89816,424.42438,965.31061,-417.29477,390.84482,908.76251
67,0.55,-456.9968,391.53275,1073.82703,-486.0553,424.05536,965.82617,-415.85086,390.19675,908.29974
68,0.558,-455.12671,392.03439,1074.06384,-484.04309,423.41498,966.51422,-414.66824,389.68723,908.25824
69,0.567,-451.45624,391.38181,1073.5426,-481.53418,423.84854,966.61548,-412.49213,391.20667,908.80603
70,0.575,-450.00159,390.60965,1074.15466,-480.37134,423.76068,966.96698,-410.30035,391.44086,908.11444
71,0.583,-447.38492,389.77884,1073.97327,-479.85706,423.57523,966.83655,-410.05566,391.21902,907.90894
72,0.592,-445.62332,389.59628,1074.24609,-477.19052,421.58148,967.5282,-408.71182,390.41837,908.29944
73,0.6,-443.24527,389.12006,1074.52441,-476.76346,420.87802,967.61072,-405.71829,390.36475,908.14606
74,0.608,-440.24539,389.18448,1074.56128,-475.7088,421.04044,968.0979,-403.95135,392.02518,908.06537
75,0.617,-437.19662,389.008,1074.70654,-472.48203,420.57483,968.37988,-403.4899,391.34656,908.8233
76,0.625,-435.89233,389.32745,1074.67407,-471.60422,420.19052,968.68768,-402.47592,392.44864,908.3822
77,0.633,-433.535,389.159,1074.75256,-471.07849,419.97266,969.34186,-399.56888,392.00082,908.67755
78,0.642,-431.69186,388.22952,1074.9071,-468.82016,419.5405,969.19275,-398.85657,392.57642,908.18494
79,0.65,-427.99203,389.13364,1074.71802,-467.92889,418.91257,969.22925,-397.7428,393.62982,908.48267
80,0.658,-426.29831,388.72354,1074.35193,-466.56552,418.63889,969.10693,-397.59079,393.20868,907.28101
81,0.667,-424.4921,389.18811,1073.90955,-464.56921,416.84747,969.59113,-393.84195,391.53284,905.59131
82,0.675,-421.68732,389.0827,1073.75049,-462.62543,417.48019,969.20972,-392.87833,393.30984,905.75916
83,0.683,-419.60693,389.32794,1073.8606,-462.004,417.39011,969.3927,-392.44647,392.86694,905.3476
84,0.692,-417.3212,389.24911,1072.9386,-459.72382,415.71191,969.32117,-391.22333,393.05853,904.72479
85,0.7,-413.41977,389.59833,1073.10876,-458.87683,415.6864,969.15955,-388.02209,395.37848,904.55066
86,0.708,-411.62256,389.06683,1072.59705,-457.77185,415.64755,969.39026,-387.94287,394.39014,904.45184
87,0.717,-407.82715,389.53555,1072.90173,-454.67773,415.38443,968.94409,-386.65036,393.94019,903.57605
88,0.725,-406.56607,389.38736,1071.70557,-453.12329,414.84921,969.25024,-384.77872,394.12952,902.90991
89,0.733,-401.40442,388.82251,1071.33875,-450.75674,414.17175,968.93567,-383.9621,393.98361,902.20795
90,0.742,-399.87787,389.45956,1070.56238,-449.00247,415.2113,968.39252,-381.56912,397.07596,901.69629
91,0.75,-396.68176,389.64459,1070.6532,-445.38849,414.4794,968.48749,-377.94724,395.1777,901.63831
92,0.758,-392.29895,388.73627,1069.76099,-444.62869,413.78348,968.72424,-377.37827,395.40912,900.55444
93,0.767,-390.27121,389.37549,1069.73193,-441.04596,412.73474,969.42969,-375.3399,395.20276,899.24219
94,0.775,-385.98663,389.2355,1069.06018,-438.64114,413.60043,968.35254,-373.33447,395.20325,899.16125
95,0.783,-381.76181,389.73315,1068.32031,-435.62741,412.83969,968.23102,-370.5416,396.91565,899.06329
96,0.792,-378.79068,389.4444,1068.56152,-433.42538,413.43298,968.14984,-367.71579,396.50629,898.60492
97,0.8,-374.88199,389.31607,1068.17041,-429.92969,412.73941,967.25012,-364.95416,394.76608,898.0871
98,0.808,-370.45773,390.09689,1068.0824,-425.11923,413.57736,967.1076,-362.35437,395.13193,897.49133
99,0.817,-367.03598,389.87924,1067.77466,-423.49213,413.26898,967.08191,-357.2421,396.8454,897.52301
100,0.825,-361.89453,391.5524,1067.17847,-419.2099,412.54593,967.20227,-356.71545,397.2753,896.7085
101,0.833,-359.00119,391.00443,1066.7915,-415.36145,412.54416,966.42627,-352.15497,397.71921,896.60535
102,0.842,-354.83286,390.89725,1066.34766,-412.1427,412.33249,966.25824,-346.97696,397.08978,894.7511
103,0.85,-349.41431,392.24628,1065.65417,-408.07874,412.51389,966.40491,-343.51212,398.0498,894.55243
104,0.858,-345.04733,391.97897,1065.61145,-403.33456,412.75558,966.69757,-339.95612,399.75092,894.16608
105,0.867,-339.84637,392.96902,1064.45618,-398.94342,413.43372,966.1861,-335.64999,398.66068,893.73511
106,0.875,-335.47391,392.8158,1064.27197,-393.86697,413.96014,964.95929,-329.99841,399.8616,893.75916
107,0.883,-329.71744,394.40601,1063.46802,-389.33163,414.2587,964.46722,-325.32196,401.15692,893.15918
108,0.892,-324.49881,395.11627,1063.12976,-384.61069,415.13577,964.2077,-320.40823,402.89523,893.19745
109,0.9,-318.75842,396.27649,1062.64758,-380.27029,415.09332,964.33148,-315.93753,401.65436,892.14832
110,0.908,-313.9693,396.04626,1061.60986,-373.96121,415.85815,963.12805,-310.2767,402.94214,891.79364
111,0.917,-308.88885,397.12146,1061.5094,-368.64069,416.94131,962.99689,-305.02414,403.62946,891.54401
112,0.925,-303.27194,398.29865,1061.70691,-362.44565,416.74118,962.80322,-299.27634,404.62567,890.75385
113,0.933,-298.13806,398.22751,1060.81189,-358.02164,417.16574,962.83557,-293.79343,407.50995,890.05347
114,0.942,-292.69406,399.09213,1060.27979,-352.39227,417.90405,962.75659,-288.31543,405.71188,889.72766
115,0.95,-286.14487,400.89725,1059.60669,-345.37631,419.23279,961.87787,-282.53049,408.07275,889.3822
116,0.958,-279.34653,400.586,1059.35254,-339.53204,420.63858,960.9599,-275.2959,409.67358,888.7951
117,0.967,-273.21832,401.47147,1059.0293,-333.31247,420.80753,961.01208,-269.98483,409.91214,888.63916
118,0.975,-266.76633,402.50439,1058.00232,-327.05023,421.45728,960.33191,-263.8537,411.38174,888.1712
119,0.983,-260.57498,403.56165,1058.04321,-320.98178,422.52933,959.93524,-256.66779,412.33884,887.34741
120,0.992,-253.50224,404.60477,1057.40076,-312.89258,423.20569,958.55585,-248.89182,414.17398,887.43781
121,1,-246.34787,406.16238,1057.32654,-306.45578,424.06894,958.15863,-241.41858,416.81113,887.00189
122,1.008,-240.51758,405.91006,1056.98596,-299.23389,424.02927,957.64423,-234.74478,416.41806,886.75
123,1.017,-232.39836,407.02139,1056.40662,-291.8317,425.03442,958.05975,-227.88943,417.48236,886.24719
124,1.025,-226.03242,408.42587,1055.87793,-284.18823,427.6568,956.65057,-219.47435,417.74722,885.80908
125,1.033,-217.52367,408.76688,1055.31238,-276.30908,428.18201,956.07001,-211.83264,418.49493,886.41473
126,1.042,-209.98785,409.83179,1056.06763,-269.11389,429.74036,956.72888,-203.48105,418.77893,885.51105
127,1.05,-203.51881,410.30759,1056.34033,-260.66351,430.58578,957.16931,-194.87001,419.46805,886.09027
128,1.058,-195.06229,411.57648,1057.16541,-251.87666,431.44516,957.64612,-187.77832,418.57217,886.8764
129,1.067,-187.18262,411.59412,1057.20691,-244.19698,431.34439,957.79303,-179.20003,419.33008,887.2735
130,1.075,-178.35509,412.92264,1057.78503,-235.87708,432.11163,958.43018,-171.19803,420.76025,887.79565
131,1.083,-170.70163,412.22174,1058.35327,-227.17551,434.31323,958.38599,-161.46332,422.18146,888.83173
132,1.092,-163.32191,413.18481,1059.27515,-217.90053,434.60327,958.71381,-153.16107,423.28741,889.1637
133,1.1,-155.0791,414.58356,1059.85071,-209.78337,434.64325,959.19354,-143.82162,423.63297,889.61218
134,1.108,-146.37709,414.33145,1061.08508,-200.71404,436.31143,959.87823,-135.45213,423.25351,890.30865
135,1.117,-137.817,415.05688,1061.20166,-191.27351,436.81839,960.54987,-126.34968,423.29834,891.12402
136,1.125,-129.6599,416.03278,1062.52112,-182.73253,437.93365,960.737,-116.68105,422.9819,891.61725
137,1.133,-121.04559,416.84552,1063.46375,-174.19318,439.01849,961.66089,-107.30438,423.92761,893.93066
138,1.142,-113.56541,416.70786,1064.0708,-165.10924,439.41724,962.15771,-99.15858,423.6828,893.94543
139,1.15,-104.30251,417.17783,1064.73328,-156.01997,439.94888,962.74915,-88.74014,424.28711,894.91223
140,1.158,-95.87746,417.9245,1065.8092,-146.7516,440.58011,963.65942,-78.82329,425.40717,896.61969
141,1.167,-86.6046,417.99817,1065.9281,-137.74687,441.49503,963.69928,-69.53395,426.50168,897.13086
142,1.175,-78.28151,418.38712,1067.01563,-127.7375,441.54916,964.88715,-59.95921,425.67874,897.57654
143,1.183,-69.34434,418.33429,1067.76721,-118.33142,443.48233,965.10199,-49.43454,425.09866,898.53314
144,1.192,-61.21112,417.99075,1067.78564,-109.07282,442.70236,965.07446,-39.43699,425.17346,899.33655
145,1.2,-51.95492,418.33337,1069.12842,-99.63995,443.88141,965.71466,-30.4552,426.95886,900.69446
146,1.208,-42.43888,419.28436,1069.75464,-89.38892,444.60544,965.82507,-20.59181,427.05145,900.85815
147,1.217,-33.93769,418.90192,1070.34326,-79.95575,444.43607,966.57446,-9.56715,426.94043,901.78265
148,1.225,-25.21422,419.30707,1071.43408,-69.99007,445.01514,966.95892,0.74743,426.00989,902.52167
149,1.233,-15.80909,419.46371,1072.26294,-59.87427,446.01202,967.5705,10.34416,425.86652,903.19598
150,1.242,-6.74853,419.10916,1072.12598,-49.80671,446.60001,967.81995,20.11891,426.8793,904.08392
151,1.25,1.8071,418.75641,1073.32153,-39.93385,446.9151,968.34521,28.95274,424.46881,905.70245
152,1.258,10.84942,418.62048,1074.11841,-30.49191,446.38159,969.29449,39.58815,423.86057,906.05292
153,1.267,20.23907,417.90234,1075.2688,-19.85394,446.82175,970.24872,49.77412,423.99329,907.93896
154,1.275,29.62242,417.79568,1076.16113,-9.78188,447.09076,971.3374,60.51089,423.12943,908.44336
155,1.283,38.11379,417.22675,1076.68372,0.38758,447.67435,971.06476,69.80707,420.57199,908.61243
156,1.292,47.92432,417.48734,1077.80383,10.6446,448.25897,972.67566,79.75617,419.59488,910.5
157,1.3,57.01353,416.59946,1078.56702,20.9838,449.03409,973.91144,89.51096,418.61096,911.58911
158,1.308,66.09156,416.03018,1079.61987,31.31261,448.33392,974.33502,100.09151,419.26489,914.05792
159,1.317,73.88609,415.42886,1081.2937,41.22668,447.62808,974.45563,110.60679,417.72656,914.69092
160,1.325,82.84425,413.7709,1082.23474,52.02999,448.03546,976.15924,120.28969,415.82605,916.12091
161,1.333,92.21083,413.13095,1083.7998,61.30708,447.93216,976.76141,130.04126,413.54745,917.12842
162,1.342,100.97523,412.35452,1084.29602,72.77893,448.41687,978.04358,141.02939,414.12659,918.49445
163,1.35,109.2406,410.54727,1085.09546,82.97693,447.13831,978.22467,150.4287,411.12149,920.30811
164,1.358,117.9578,409.91693,1086.11951,92.84606,446.96848,979.44196,159.64935,409.41248,921.73334
165,1.367,126.26746,409.15482,1086.77844,103.22091,447.16196,979.92999,169.74493,408.42911,923.11517
166,1.375,134.43874,407.98605,1087.547,112.07536,446.6228,980.63727,180.159,407.40521,924.56866
167,1.383,142.22809,406.95938,1088.63855,122.22421,445.70795,981.76862,188.93881,404.4975,926.10785
168,1.392,150.33948,406.19873,1088.81812,131.41786,445.19226,982.41821,198.19485,403.06284,926.93195
169,1.4,159.14484,406.63058,1089.9491,140.58046,444.41812,983.1156,207.61639,402.73859,927.72076
170,1.408,165.53326,404.45166,1091.00867,149.6808,442.84476,983.3678,217.22049,400.98883,929.54504
171,1.417,173.50975,403.23547,1091.46484,159.07587,442.46649,984.29633,226.08305,398.66574,931.03595
172,1.425,182.45656,402.16281,1092.29626,167.43581,441.46991,984.14832,235.8885,397.9213,931.96222
173,1.433,188.88261,402.0737,1092.27966,176.31616,439.81622,984.6286,245.1082,396.42978,932.45288
174,1.442,197.1297,400.50171,1092.22864,184.2852,439.03958,985.2702,253.30827,394.81781,934.23297
175,1.45,204.23743,398.8649,1093.66467,192.8846,437.42587,985.33276,263.04977,393.45584,935.27905
176,1.458,211.86919,398.14304,1093.86633,200.93173,436.51666,985.31146,271.82339,391.41794,935.70343
177,1.467,218.77776,398.03424,1094.08435,209.37556,435.63632,985.52777,281.01306,390.63797,937.01587
178,1.475,225.66524,396.12833,1094.34265,217.43918,433.1666,985.44452,289.4819,388.38376,938.26062
179,1.483,233.48558,394.8605,1094.25037,225.05295,432.06317,985.78052,297.81476,387.01038,938.17529
180,1.492,241.10109,394.19635,1094.87439,233.44696,430.28851,985.46497,306.33713,385.59149,939.17499
181,1.5,247.64375,393.39166,1094.19189,241.47801,428.54767,985.36407,314.32269,384.15115,939.7381
182,1.508,254.45392,391.67853,1094.78259,250.01701,426.78433,985.94537,322.60892,382.25598,941.18463
183,1.517,262.29413,390.97638,1094.90515,258.065,425.38062,985.17761,330.65433,380.53073,940.75189
184,1.525,268.83069,388.78656,1094.90344,264.33533,423.54596,984.76355,338.4693,377.81604,941.27435
185,1.533,276.922,387.59885,1095.00574,273.22003,422.59692,985.40656,346.30692,376.19739,941.15424
186,1.542,283.1604,385.43488,1094.0304,280.03683,420.23187,984.44958,353.51779,374.81342,941.10938
187,1.55,289.96768,385.18088,1094.39697,286.68375,418.61301,984.18756,361.05881,373.08206,941.54028
188,1.558,296.44635,382.85611,1094.3042,294.46783,418.00018,984.52142,367.97305,370.19293,942.21191
189,1.567,303.8244,381.07208,1093.95105,301.96494,414.60236,983.84479,375.75784,369.69247,941.52625
190,1.575,310.0751,378.98108,1093.5365,308.79437,414.09485,983.3421,382.82803,367.20663,941.8606
191,1.583,317.19916,377.01523,1092.79565,315.03513,411.56628,982.84833,389.15186,365.70956,941.18005
192,1.592,323.05466,376.5271,1093.75171,322.83685,410.89395,982.0332,396.14105,362.99374,941.37579
193,1.6,329.89316,375.27017,1093.23462,329.11996,407.98801,981.92737,402.84677,361.86429,941.72125
194,1.608,335.6413,372.67371,1092.41199,334.94608,407.7529,982.15063,409.46683,360.00323,941.5495
195,1.617,341.85745,372.44781,1092.02393,341.9241,404.63632,981.81818,415.51782,357.97736,941.07758
196,1.625,347.6622,369.58295,1091.64148,347.9725,403.78925,980.68201,421.95401,355.96069,940.75452
