Frame#,Time,L.Forearm.x,L.Forearm.y,L.Forearm.z,L.Ulna.x,L.Ulna.y,L.Ulna.z,L.Radius.x,L.Radius.y,L.Radius.z
1,0,377.50729,318.7012,995.33453,352.35849,354.06451,913.14697,430.47906,322.32596,850.31201
2,0.008,377.50729,318.7012,995.33453,352.36685,354.13892,913.05896,430.47906,322.32596,850.31201
3,0.017,377.50729,318.7012,995.33453,352.36685,354.13892,913.05896,430.47906,322.32596,850.31201
4,0.025,377.50729,318.7012,995.33453,352.35849,354.06451,913.14697,430.58618,322.42307,850.05273
5,0.033,377.50729,318.7012,995.33453,352.35849,354.06451,913.14697,430.47906,322.32596,850.31201
6,0.042,377.50729,318.7012,995.33453,352.4845,353.56537,913.16724,430.47906,322.32596,850.31201
7,0.05,377.50729,318.7012,995.33453,352.35849,354.06451,913.14697,430.58618,322.42307,850.05273
8,0.058,377.50729,318.7012,995.33453,352.35849,354.06451,913.14697,430.58618,322.42307,850.05273
9,0.067,377.50729,318.7012,995.33453,352.49283,353.6398,913.07922,430.58618,322.42307,850.05273
10,0.075,377.50729,318.7012,995.33453,352.4845,353.56537,913.16724,430.47906,322.32596,850.31201
11,0.083,377.50729,318.7012,995.33453,352.4845,353.56537,913.16724,430.47906,322.32596,850.31201
12,0.092,377.50729,318.7012,995.33453,352.4845,353.56537,913.16724,430.58618,322.42307,850.05273
13,0.1,377.50729,318.7012,995.33453,352.4845,353.56537,913.16724,430.47906,322.32596,850.31201
14,0.108,377.50729,318.7012,995.33453,352.4845,353.56537,913.16724,430.47906,322.32596,850.31201
15,0.117,377.50729,318.7012,995.33453,352.4845,353.56537,913.16724,430.47906,322.32596,850.31201
16,0.125,377.50729,318.7012,995.33453,352.4845,353.56537,913.16724,430.47906,322.32596,850.31201
17,0.133,377.50729,318.7012,995.33453,352.63278,353.82828,912.90112,430.47906,322.32596,850.31201
18,0.142,377.50729,318.7012,995.33453,352.35849,354.06451,913.14697,430.77707,322.31177,850.56079
19,0.15,377.50729,318.7012,995.33453,352.35849,354.06451,913.14697,430.77707,322.31177,850.56079
20,0.158,377.50729,318.7012,995.33453,352.35849,354.06451,913.14697,430.77707,322.31177,850.56079
21,0.167,377.50729,318.7012,995.33453,352.35849,354.06451,913.14697,430.88422,322.40891,850.30157
22,0.175,377.50729,318.7012,995.33453,352.36685,354.13892,913.05896,430.88422,322.40891,850.30157
23,0.183,377.50729,318.7012,995.33453,352.51511,354.34647,912.79376,429.77881,321.27213,850.51703
24,0.192,377.50729,318.7012,995.33453,352.36685,354.13892,913.05896,429.68811,321.30023,850.492
25,0.2,377.50729,318.7012,995.33453,352.51511,354.34647,912.79376,429.68811,321.30023,850.492
26,0.208,377.50729,318.7012,995.33453,352.09842,354.63956,912.78552,429.23605,321.68497,850.63312
27,0.217,377.50729,318.7012,995.33453,352.10541,355.41241,912.68402,429.44,321.64569,850.66711
28,0.225,377.53595,319.19461,995.3042,351.80896,355.47879,912.78052,429.44,321.64569,850.66711
29,0.233,377.53595,319.19461,995.3042,351.80896,355.47879,912.78052,429.29193,321.99011,850.66382
30,0.242,377.53595,319.19461,995.3042,351.64886,355.39337,913.0647,429.08798,322.02936,850.62988
31,0.25,377.53595,319.19461,995.3042,351.47635,356.10342,913.08972,429.27423,322.38278,850.84796
32,0.258,377.53595,319.19461,995.3042,351.5719,355.58783,913.00049,429.29193,321.99011,850.66382
33,0.267,377.80557,319.49246,995.27844,351.86047,356.22873,912.63806,429.29193,321.99011,850.66382
34,0.275,377.79617,319.43405,995.35114,351.56409,356.29507,912.73456,429.29193,321.99011,850.66382
35,0.283,377.88538,319.54263,995.18658,351.86047,356.22873,912.63806,429.29193,321.99011,850.66382
36,0.292,377.49103,319.32709,995.16656,351.56409,356.29507,912.73456,429.08798,322.02936,850.62988
37,0.3,377.49103,319.32709,995.16656,351.56409,356.29507,912.73456,429.1102,322.17599,850.47546
38,0.308,377.49103,319.32709,995.16656,351.60257,356.02872,912.47009,429.1102,322.17599,850.47546
39,0.317,377.38159,319.53784,995.05237,351.56409,356.29507,912.73456,428.87012,322.10263,850.23633
40,0.325,377.49103,319.32709,995.16656,351.60257,356.02872,912.47009,428.87012,322.10263,850.23633
41,0.333,377.51022,319.48734,994.8764,351.69946,356.23087,912.39069,428.87012,322.10263,850.23633
42,0.342,377.51022,319.48734,994.8764,351.12729,356.04227,912.29303,429.90399,323.40375,850.11029
43,0.35,377.54196,319.53055,994.81256,351.27988,356.10791,911.94391,429.85718,323.34109,849.85718
44,0.358,377.61258,319.44876,994.3465,351.27988,356.10791,911.94391,428.8226,322.00516,849.95123
45,0.367,377.61258,319.44876,994.3465,351.24939,355.94547,911.58282,428.8226,322.00516,849.95123
46,0.375,377.3494,319.29245,994.19934,351.24939,355.94547,911.58282,428.8226,322.00516,849.95123
47,0.383,377.4559,319.24881,993.98578,351.35254,355.49216,911.44202,428.96698,321.8566,849.80817
48,0.392,376.7049,319.42328,993.90527,351.52966,355.39038,911.16321,428.96698,321.8566,849.80817
49,0.4,376.88257,319.33545,993.63458,351.52966,355.39038,911.16321,430.43323,323.36682,849.47351
50,0.408,376.88257,319.33545,993.63458,351.39349,355.45236,911.11731,430.43323,323.36682,849.47351
51,0.417,376.8006,319.42505,993.53809,351.59692,355.36295,910.84766,429.07025,321.94995,849.72083
52,0.425,376.8006,319.42505,993.53809,351.59692,355.36295,910.84766,430.23929,323.13794,849.47943
53,0.433,376.8006,319.42505,993.53809,351.59692,355.36295,910.84766,429.07025,321.94995,849.72083
54,0.442,376.95581,318.65073,993.55695,351.59692,355.36295,910.84766,429.39453,321.90057,849.54919
55,0.45,376.95581,318.65073,993.55695,351.62656,354.95959,910.73901,429.05133,321.6604,849.15222
56,0.458,377.06287,318.60693,993.34351,351.47089,355.0007,910.72284,430.4635,322.50214,848.91101
57,0.467,376.60492,318.54089,993.53748,351.47089,355.0007,910.72284,430.4635,322.50214,848.91101
58,0.475,376.71198,318.49707,993.32404,351.54614,354.2637,910.38489,430.21548,322.18738,848.89618
59,0.483,377.00943,318.53369,992.92853,351.24573,354.11212,910.31152,429.89487,321.96823,848.67303
60,0.492,377.00943,318.53369,992.92853,351.44128,353.7709,910.06012,429.5415,321.61615,848.71246
61,0.5,376.53119,318.3967,992.9494,351.44128,353.7709,910.06012,429.53134,321.66571,848.77673
62,0.508,376.31238,318.23328,992.84613,351.62442,352.75421,910.21918,429.21552,321.64227,848.51691
63,0.517,376.61063,318.12674,992.8371,351.19757,352.72153,910.02277,429.21552,321.64227,848.51691
64,0.525,376.72311,317.94208,992.87634,351.39288,352.27695,910.19421,428.12952,320.49792,848.69904
65,0.533,376.69427,317.50516,992.89258,351.13303,351.97452,909.89307,427.69873,320.55005,848.48407
66,0.542,376.62119,317.33508,992.83942,350.8725,352.00476,909.8725,427.81473,319.83304,848.45422
67,0.55,376.79208,316.85693,992.72876,350.8725,352.00476,909.8725,427.33737,318.25018,847.55707
68,0.558,377.22415,316.01132,992.28534,350.8725,352.00476,909.8725,427.04425,317.32471,847.35468
69,0.567,377.31958,315.74554,992.24945,351.05032,351.79022,909.80389,427.02921,315.91977,846.82397
70,0.575,377.62338,315.18948,992.36206,350.98734,351.5192,909.99591,426.89426,315.8667,846.54779
71,0.583,377.78546,314.87634,992.20367,351.17331,351.38586,909.8446,426.85852,315.6424,846.75415
72,0.592,378.07233,314.2565,992.20825,350.9118,350.74371,909.79919,426.77774,315.79852,846.33618
73,0.6,378.53409,313.91077,992.09161,351.43423,350.72906,909.99646,426.72891,314.34799,846.59302
74,0.608,378.71921,313.68585,992.04846,351.6658,350.24683,909.78229,426.72836,313.92154,846.22272
75,0.617,379.20264,313.58371,992.24066,352.04166,349.73096,909.77625,426.79834,313.60715,846.7995
76,0.625,378.99243,313.14413,992.06079,351.638,349.25131,909.94324,426.79834,313.60715,846.7995
77,0.633,378.99243,313.14413,992.06079,351.638,349.25131,909.94324,427.40973,313.21854,846.74908
78,0.642,379.06967,313.06528,992.12177,352.01035,348.90799,909.9873,427.6691,312.9064,846.65601
79,0.65,379.21313,312.84308,992.15381,352.52603,348.88336,909.66614,427.37509,311.50247,847.01013
80,0.658,379.22522,312.78033,992.22266,352.77036,348.39963,909.513,427.37509,311.50247,847.01013
81,0.667,379.22522,312.78033,992.22266,353.28943,348.53183,909.69482,427.94547,311.48532,847.06396
82,0.675,379.22522,312.78033,992.22266,353.0513,348.00146,909.88,428.0415,310.92914,847.08081
83,0.683,379.16617,312.74316,992.29059,353.02124,347.75241,909.72784,428.0415,310.92914,847.08081
84,0.692,379.16617,312.74316,992.29059,353.0513,348.00146,909.88,428.10474,310.98779,847.40277
85,0.7,379.16617,312.74316,992.29059,353.15491,347.92404,909.94452,428.43597,310.54523,847.73163
86,0.708,379.15323,313.2923,992.56531,353.37015,348.04572,910.0752,428.20145,310.85809,847.78998
87,0.717,379.0098,313.51443,992.5332,353.37015,348.04572,910.0752,429.02579,311.48663,848.20435
88,0.725,379.0098,313.51443,992.5332,353.6517,348.66946,910.05945,429.02579,311.48663,848.20435
89,0.733,379.0098,313.51443,992.5332,353.6517,348.66946,910.05945,429.38657,311.52097,848.47052
90,0.742,378.87161,313.74063,992.72717,353.6517,348.66946,910.05945,429.24203,312.24844,848.35223
91,0.75,378.80786,314.08041,993.16547,353.86923,349.71091,910.4245,429.14606,313.29465,848.99335
92,0.758,378.49622,314.26352,993.23627,353.74628,349.93158,910.40472,429.14606,313.29465,848.99335
93,0.767,378.49622,314.26352,993.23627,353.78479,350.00247,910.31335,429.36661,313.37222,849.54407
94,0.775,378.6597,314.564,993.69604,354.25491,350.39264,910.33978,429.5625,313.95328,849.27588
95,0.783,378.81082,314.43048,993.53345,354.25491,350.39264,910.33978,429.85132,313.88748,849.133
96,0.792,378.87503,314.47241,993.45184,354.21808,351.08411,910.40088,430.13062,314.103,849.2323
97,0.8,379.23703,314.77347,993.67792,354.10431,351.16193,910.33838,430.13062,314.103,849.2323
98,0.808,379.95428,314.31317,993.58453,354.25314,351.19183,910.50916,430.13062,314.103,849.2323
99,0.817,380.20169,314.6153,993.54565,354.43729,351.20795,910.64948,430.48389,314.45456,849.19305
100,0.825,380.20169,314.6153,993.54565,354.43729,351.20795,910.64948,431.05917,314.72507,849.51672
101,0.833,380.20169,314.6153,993.54565,354.43729,351.20795,910.64948,431.0322,316.0011,849.28705
102,0.842,380.09598,315.29645,993.32361,354.66608,351.38531,910.55994,430.86646,316.42065,849.22693
103,0.85,380.27643,315.35788,993.44598,355.06241,351.61649,910.70245,430.86646,316.42065,849.22693
104,0.858,380.09598,315.29645,993.32361,355.06241,351.61649,910.70245,430.86646,316.42065,849.22693
105,0.867,380.13083,315.62585,993.32184,354.66565,351.90027,910.90234,430.86646,316.42065,849.22693
106,0.875,380.27902,316.81625,992.9519,354.7915,351.93073,910.83655,431.31827,316.979,849.16968
107,0.883,380.69156,317.45218,992.91772,354.41824,351.95334,910.96588,431.56821,318.22281,849.16418
108,0.892,380.57074,318.19568,992.91382,354.47305,352.38861,910.86169,431.638,318.00241,849.00903
109,0.9,380.84521,318.00613,992.89777,354.13422,351.98584,910.94299,431.20135,320.03949,849.43353
110,0.908,380.57074,318.19568,992.91382,354.19116,352.41858,910.83521,431.6235,320.34396,849.6944
111,0.917,380.88431,318.39667,993.02869,354.0199,352.48868,911.00372,432.23315,322.08963,849.37885
112,0.925,380.48416,318.54346,992.60339,354.0199,352.48868,911.00372,432.20605,321.69592,849.47083
113,0.933,380.63843,318.39624,992.82892,353.89578,353.12418,911.12,432.20605,321.69592,849.47083
114,0.942,380.69321,318.59186,993.04822,353.86655,353.52768,911.22845,432.21039,321.82974,849.32776
115,0.95,380.24182,318.37634,992.89545,353.7348,353.59454,911.17572,432.21039,321.82974,849.32776
116,0.958,380.43665,318.50089,992.77521,354.3511,354.37289,911.2879,431.88852,321.83395,849.17065
117,0.967,380.66754,318.5495,993.15497,354.3703,354.6409,911.42218,432.46094,321.69357,849.27069
118,0.975,380.01779,318.45032,993.31396,354.2359,354.26538,911.47534,432.15085,321.76025,849.39258
119,0.983,380.06274,318.48627,993.25336,353.75394,353.86261,911.31,432.15085,321.76025,849.39258
120,0.992,379.73517,318.57642,993.10309,353.75394,353.86261,911.31,432.15085,321.76025,849.39258
121,1,379.68289,318.54779,993.15808,353.65704,353.66025,911.38934,432.15085,321.76025,849.39258
122,1.008,379.68289,318.54779,993.15808,353.75394,353.86261,911.31,432.15085,321.76025,849.39258
123,1.017,379.54681,318.58936,993.16498,353.47742,353.70343,911.37579,429.86893,320.58218,849.78015
124,1.025,379.54681,318.58936,993.16498,353.45828,353.43536,911.24158,429.86893,320.58218,849.78015
125,1.033,379.28094,318.66525,993.11755,353.30548,353.40973,911.078,429.64136,321.06433,849.81122
126,1.042,379.28094,318.66525,993.11755,353.32465,353.67783,911.21228,429.64136,321.06433,849.81122
127,1.05,379.32126,318.85873,993.04584,352.85367,353.04654,910.88458,429.64136,321.06433,849.81122
128,1.058,379.28094,318.66525,993.11755,352.73392,353.27316,910.77979,429.71823,321.1265,849.75293
129,1.067,378.68341,318.80948,992.89166,352.57425,353.28217,910.80341,430.6008,322.09143,849.06097
130,1.075,378.79282,318.59879,993.00568,352.45358,353.07578,910.86572,430.6008,322.09143,849.06097
131,1.083,378.4234,318.5701,992.8446,352.32742,353.75,910.92279,428.55737,320.11673,849.14746
132,1.092,378.4234,318.5701,992.8446,352.33389,353.30237,910.76099,429.65439,321.24854,848.93805
133,1.1,378.4234,318.5701,992.8446,352.33389,353.30237,910.76099,429.65439,321.24854,848.93805
134,1.108,378.46725,318.6637,992.71674,352.33389,353.30237,910.76099,429.64423,321.29813,849.00232
135,1.117,378.40533,318.64212,992.76733,352.33389,353.30237,910.76099,429.65439,321.24854,848.93805
136,1.125,378.40533,318.64212,992.76733,352.33389,353.30237,910.76099,429.64423,321.29813,849.00232
137,1.133,378.29276,318.82672,992.72809,352.15253,354.19684,910.80853,429.31821,321.32428,848.8067
138,1.142,378.4234,318.5701,992.8446,352.15253,354.19684,910.80853,429.20535,321.69186,848.58118
139,1.15,378.29276,318.82672,992.72809,351.99921,354.27832,910.95221,428.30386,321.84988,848.67029
140,1.158,378.27066,319.05649,992.91351,351.85361,354.9007,911.01141,428.30386,321.84988,848.67029
141,1.167,378.32574,319.02173,993.24371,351.73309,355.30093,910.89349,428.30386,321.84988,848.67029
142,1.175,378.30768,319.09378,993.16638,351.73309,355.30093,910.89349,428.30386,321.84988,848.67029
143,1.183,378.20065,319.1376,993.37976,351.73309,355.30093,910.89349,428.30386,321.84988,848.67029
144,1.192,378.49545,319.46991,993.25964,351.62665,355.59259,911.08386,428.04684,322.1911,848.68262
145,1.2,378.24655,319.56107,993.64435,351.16522,356.17059,911.29724,428.04684,322.1911,848.68262
146,1.208,378.58789,319.88116,993.64648,351.00961,356.21164,911.28107,428.04684,322.1911,848.68262
147,1.217,378.37921,320.02945,993.86853,350.6434,356.49356,912.15558,427.86456,322.32413,848.80688
148,1.225,378.37921,320.02945,993.86853,350.78882,356.47961,911.89893,426.67758,321.08408,849.0166
149,1.233,378.85117,320.80438,993.80322,350.63623,356.41397,912.24805,426.23813,321.13394,849.16058
150,1.242,378.58502,320.91772,994.00006,350.63623,356.41397,912.24805,426.681,321.59128,849.11853
151,1.25,378.42175,320.76578,994.29877,350.63623,356.41397,912.24805,428.01236,323.06287,848.96777
152,1.258,378.5744,321.24753,994.336,350.88412,357.57895,912.35461,428.01236,323.06287,848.96777
153,1.267,378.31201,321.72043,994.49072,350.83521,357.8765,912.63702,428.06067,324.26056,849.12183
154,1.275,378.06033,322.01154,994.75635,351.18277,358.39856,912.75293,428.06067,324.26056,849.12183
155,1.283,378.06033,322.01154,994.75635,351.18277,358.39856,912.75293,426.87567,324.91382,849.19769
156,1.292,377.94495,322.01102,994.80408,351.18277,358.39856,912.75293,426.95917,326.35419,849.16498
157,1.3,378.08249,322.1871,994.86859,351.18277,358.39856,912.75293,426.79877,326.6965,849.09827
158,1.308,378.06787,322.33926,995.09369,351.13336,358.46381,912.94946,426.79877,326.6965,849.09827
159,1.317,377.93549,322.42685,995.04504,351.13336,358.46381,912.94946,426.79877,326.6965,849.09827
160,1.325,378.05234,322.84711,995.08588,350.95575,358.67795,913.01788,426.79877,326.6965,849.09827
161,1.333,377.81918,322.92905,995.08502,350.95575,358.67795,913.01788,426.79877,326.6965,849.09827
162,1.342,377.91248,323.19125,995.08405,350.95575,358.67795,913.01788,427.25058,326.57861,849.69073
163,1.35,377.91248,323.19125,995.08405,350.95575,358.67795,913.01788,427.25058,326.57861,849.69073
164,1.358,378.0051,323.42471,995.25128,351.10162,358.96051,913.21729,427.25058,326.57861,849.69073
165,1.367,377.63687,323.50076,995.00336,350.95575,358.67795,913.01788,427.14713,326.63095,849.93317
166,1.375,377.86185,323.64664,995.21918,351.10162,358.96051,913.21729,427.39349,326.62115,849.9472
167,1.383,377.86185,323.64664,995.21918,351.10162,358.96051,913.21729,427.28687,326.66574,850.14807
168,1.392,377.86185,323.64664,995.21918,351.10162,358.96051,913.21729,427.39349,326.62115,849.9472
169,1.4,378.27008,323.51886,995.32623,351.10162,358.96051,913.21729,427.28687,326.66574,850.14807
170,1.408,378.27008,323.51886,995.32623,351.0531,359.25797,913.49969,427.39349,326.62115,849.9472
171,1.417,378.27008,323.51886,995.32623,351.20093,358.95367,913.24084,426.9407,326.39914,850.15802
172,1.425,378.63986,323.19235,995.28223,351.52686,359.24518,913.67834,426.9407,326.39914,850.15802
173,1.433,378.63986,323.19235,995.28223,351.52686,359.24518,913.67834,427.16461,326.39926,850.15497
174,1.442,378.9075,323.13596,995.38861,351.59521,359.13995,913.84369,427.16461,326.39926,850.15497
175,1.45,379.04742,322.79184,995.39056,351.66443,359.17316,913.98743,427.47037,326.3616,850.08563
176,1.458,379.04742,322.79184,995.39056,351.82111,359.12808,914.00153,427.85437,326.36798,850.15179
177,1.467,379.04742,322.79184,995.39056,351.99878,358.91397,913.93317,427.85437,326.36798,850.15179
178,1.475,379.04742,322.79184,995.39056,351.92957,358.88074,913.78943,427.96875,326.06085,850.18652
179,1.483,379.2699,322.68259,995.29614,351.92957,358.88074,913.78943,427.96875,326.06085,850.18652
180,1.492,379.54977,322.51746,995.15466,352.21106,358.44873,913.37421,428.11716,325.48767,850.41339
181,1.5,379.54977,322.51746,995.15466,352.68134,358.49731,913.37915,428.11716,325.48767,850.41339
182,1.508,379.54977,322.51746,995.15466,352.68134,358.49731,913.37915,428.2778,325.51801,850.38324
183,1.517,379.74814,322.22354,995.18719,352.98404,358.42346,913.27155,428.38428,325.41782,850.47437
184,1.525,379.99249,321.92157,994.79688,352.98404,358.42346,913.27155,428.56238,325.37354,850.51306
185,1.533,380.19095,321.62759,994.82941,353.14587,358.41354,913.24371,428.66217,324.64902,850.28375
186,1.542,380.32193,321.59018,994.8197,353.32364,358.19934,913.17535,428.7525,323.8613,850.32922
187,1.55,380.47644,321.51654,994.84296,353.68347,358.14587,913.16315,428.80505,322.39801,850.1355
188,1.558,380.47644,321.51654,994.84296,353.68347,358.14587,913.16315,429.009,322.35883,850.16949
189,1.567,380.47644,321.51654,994.84296,353.68347,358.14587,913.16315,429.009,322.35883,850.16949
190,1.575,380.55557,321.4393,995.06921,353.71869,357.81589,912.97449,429.51395,322.34659,850.19708
191,1.583,380.55557,321.4393,995.06921,353.71869,357.81589,912.97449,429.51395,322.34659,850.19708
192,1.592,380.55557,321.4393,995.06921,353.71869,357.81589,912.97449,429.67596,321.80518,849.86981
193,1.6,380.67838,321.35886,995.11353,353.71869,357.81589,912.97449,429.67596,321.80518,849.86981
194,1.608,380.78647,321.26917,995.17474,354.21005,357.68921,913.01532,429.85742,321.46027,849.8136
195,1.617,380.78647,321.26917,995.17474,354.21005,357.68921,913.01532,430.67047,321.13458,850.13885
196,1.625,380.78647,321.26917,995.17474,354.42737,357.38474,913.01666,430.67047,321.13458,850.13885
197,1.633,380.59476,321.06912,995.54175,354.74469,357.49942,913.4176,430.67047,321.13458,850.13885
198,1.642,380.59476,321.06912,995.54175,354.42215,357.7966,913.48035,430.77756,321.20969,850.3667
199,1.65,380.71567,321.35089,995.64099,354.57907,357.63788,913.20612,430.69849,321.27631,850.54736
200,1.658,380.68726,321.30289,995.70905,354.8761,357.2948,913.54913,430.8334,321.35803,850.47034
201,1.667,380.68726,321.30289,995.70905,354.66006,357.45105,913.76459,430.8334,321.35803,850.47034
202,1.675,380.61002,321.17462,995.85986,354.78741,357.83713,913.65759,430.81561,321.75067,850.65442
203,1.683,380.68726,321.30289,995.70905,354.9537,357.11902,913.612,430.73651,321.81741,850.83508
