Frame#,Time,R.Forearm.x,R.Forearm.y,R.Forearm.z,R.Ulna.x,R.Ulna.y,R.Ulna.z,R.Radius.x,R.Radius.y,R.Radius.z
1,0,194.30289,-226.10446,862.84424,283.79053,-241.62784,823.41754,303.00137,-155.77458,850.87994
2,0.008,193.3598,-228.06219,860.55609,283.10107,-242.8602,821.80914,303.70062,-156.7045,847.21777
3,0.017,192.82436,-229.17918,859.3067,283.05133,-243.40428,817.65015,304.29984,-159.90829,845.68457
4,0.025,192.50368,-229.21489,857.83954,282.70853,-244.36957,817.34149,304.65509,-162.85524,843.38843
5,0.033,192.05173,-230.39461,856.31238,280.86893,-249.00975,815.08856,304.34085,-164.73906,841.01404
6,0.042,192.66296,-231.75656,854.43622,280.24203,-249.83437,812.27185,304.49112,-168.08458,839.10571
7,0.05,192.45987,-232.78569,853.77246,279.5033,-251.18839,809.88617,305.57867,-168.76648,836.87817
8,0.058,192.55731,-235.34991,852.49896,278.42877,-253.68181,808.12366,305.38361,-171.71974,835.01599
9,0.067,192.01622,-237.18512,851.211,278.13788,-256.57498,806.38776,306.14816,-174.03458,833.01917
10,0.075,192.3439,-238.00131,849.54285,278.48935,-258.29648,804.48926,306.27539,-176.79387,832.53778
11,0.083,191.92212,-238.44788,848.43256,277.2547,-260.93915,803.12848,306.51721,-179.03596,829.98755
12,0.092,191.96745,-238.99094,847.35138,275.95297,-262.53537,800.46716,306.97043,-181.44847,829.23975
13,0.1,191.76143,-242.93069,846.82495,276.65585,-264.84906,799.04425,307.49896,-186.19057,828.76959
14,0.108,191.38692,-244.16064,846.21167,276.73907,-266.27667,798.71631,308.45813,-187.8627,828.16254
15,0.117,192.53575,-246.15141,845.90546,274.87457,-270.02841,796.61786,308.91617,-190.02348,826.2616
16,0.125,192.27892,-248.28543,844.4682,275.58838,-271.7301,794.77301,309.20294,-194.74437,824.82239
17,0.133,192.37823,-249.78003,844.35645,274.57953,-273.73999,793.38165,310.17923,-195.65437,823.01117
18,0.142,191.52003,-251.25978,844.02283,272.72211,-277.82687,792.92413,309.66769,-199.21356,822.86658
19,0.15,190.5896,-253.7982,843.27325,272.90588,-279.35104,792.70074,310.71259,-203.07272,822.62787
20,0.158,191.48645,-255.70473,843.22229,271.6644,-281.69424,790.68109,311.03348,-205.72493,821.38031
21,0.167,192.08542,-256.59644,842.73993,271.4313,-285.29962,789.01715,312.55811,-207.96626,821.0144
22,0.175,192.42467,-258.75104,841.68701,271.01184,-286.26605,788.31598,312.26611,-212.70508,821.20618
23,0.183,191.73393,-260.89545,840.87189,271.78989,-287.5296,787.48663,312.55322,-215.85844,820.3418
24,0.192,192.29688,-263.06561,840.74493,269.78845,-292.45615,787.36584,313.0737,-220.32634,820.68231
25,0.2,192.78952,-264.47354,840.83301,269.67029,-293.64359,786.56616,313.47687,-222.76335,820.62567
26,0.208,192.75876,-264.97882,840.25708,269.32211,-296.96362,786.38348,313.74503,-227.09641,820.91614
27,0.217,192.18953,-270.54138,840.9101,268.41751,-299.93588,786.23779,315.3927,-228.86559,821.22583
28,0.225,191.96506,-272.13531,841.35126,269.19757,-301.03229,783.98218,317.53781,-230.61919,820.17462
29,0.233,191.81198,-272.81235,841.08124,267.52362,-306.24234,784.98328,317.8172,-234.13596,821.09485
30,0.242,191.89694,-275.00433,840.35352,267.42343,-306.99335,784.4187,317.82318,-238.08562,821.31281
31,0.25,191.23042,-277.9386,840.9809,267.56982,-308.30777,784.37842,317.92694,-241.56058,821.70966
32,0.258,191.47014,-278.89984,842.14246,264.89246,-312.45605,783.98419,317.94449,-245.08568,821.65686
33,0.267,190.90059,-281.01965,842.89545,265.71753,-314.07974,784.77887,318.05106,-248.45137,822.55109
34,0.275,190.74054,-282.87592,842.6709,265.78549,-316.25427,784.42944,317.46939,-252.44574,822.90607
35,0.283,190.70416,-286.58127,843.9494,264.20395,-319.82278,785.38983,317.741,-254.35672,823.86414
36,0.292,190.59892,-287.06357,844.22113,262.95853,-321.18219,785.46454,317.26733,-257.11096,824.75409
37,0.3,190.83771,-287.76715,844.6817,263.12411,-323.78555,786.23401,317.6481,-262.00146,825.18286
38,0.308,190.6373,-289.0741,844.50336,263.34906,-326.4212,786.48029,317.45673,-264.30045,826.99969
39,0.317,189.98749,-293.60318,845.41486,262.81949,-328.47147,787.2821,317.62097,-268.65762,827.5907
40,0.325,189.11853,-295.7684,846.07373,262.72247,-329.67554,787.18756,318.35739,-272.8869,828.4024
41,0.333,189.58015,-296.31973,846.47852,261.82404,-334.82501,789.74658,317.74643,-276.91504,829.60883
42,0.342,189.53886,-299.10379,847.64539,261.82404,-334.82501,789.74658,318.26248,-279.66809,832.30872
43,0.35,188.71259,-301.27301,849.88794,261.75082,-336.29553,790.14813,318.88388,-282.8833,834.11658
44,0.358,189.26077,-301.59851,849.93909,260.68396,-338.83408,791.21027,319.45859,-287.23831,835.37213
45,0.367,189.05513,-303.32986,851.61938,260.74646,-341.45175,791.62158,320.11172,-288.22696,836.86676
46,0.375,187.87842,-307.36691,851.49847,261.07843,-343.61942,791.70441,319.91061,-289.73251,838.85181
47,0.383,187.94568,-308.99475,853.29865,260.69724,-345.6481,794.01599,319.74203,-294.38586,839.98346
48,0.392,188.52849,-309.73254,854.15948,260.23663,-346.4198,794.40088,320.34924,-296.8898,842.23383
49,0.4,188.43929,-310.25101,854.79706,259.8331,-349.84479,795.60211,319.45087,-299.43396,844.04431
50,0.408,187.65854,-313.65054,856.39392,260.24692,-351.09653,796.3902,319.9223,-300.56989,846.00726
51,0.417,188.24028,-315.03406,858.27393,259.78494,-354.28638,799.14581,319.94839,-303.66519,847.8222
52,0.425,187.84627,-315.76404,859.24036,259.20236,-354.87424,800.05011,318.87012,-306.75391,849.685
53,0.433,188.00365,-316.17923,859.94415,259.59692,-355.51413,802.09589,319.94931,-308.07275,852.20416
54,0.442,186.45543,-317.96994,861.23059,259.90826,-357.70575,803.61804,319.86163,-310.88016,853.7276
55,0.45,187.87004,-320.40442,863.94006,258.47906,-359.59888,805.27887,319.80789,-312.52936,855.61652
56,0.458,186.32393,-322.61017,864.99976,258.88116,-360.00305,806.31592,318.91849,-315.57806,858.77319
57,0.467,185.82854,-323.07797,865.58118,258.99637,-361.27191,809.63239,318.27481,-316.83084,861.25928
58,0.475,185.71202,-323.93341,867.11078,259.60962,-363.08212,810.88635,318.30093,-318.52509,863.20441
59,0.483,185.31204,-325.1485,869.56494,259.21375,-365.0209,811.47266,317.11563,-320.11026,865.96912
60,0.492,184.23743,-327.0762,871.06531,258.7627,-366.26468,813.17944,316.75293,-322.25879,867.08032
61,0.5,184.04205,-327.23984,871.52313,258.64557,-366.82758,817.00238,316.8222,-324.53418,870.71655
62,0.508,184.06087,-328.01727,871.81372,259.11166,-366.54257,818.15125,316.55524,-324.02753,873.14526
63,0.517,183.70863,-328.80768,874.58649,258.65079,-368.69315,821.33234,316.37228,-325.55972,875.25262
64,0.525,183.66724,-328.63474,876.61389,258.91449,-369.7059,822.82227,316.1098,-325.62177,878.15424
65,0.533,183.9099,-328.6243,878.12476,258.93567,-369.96478,824.57135,316.00027,-325.86508,880.22534
66,0.542,183.61929,-330.18994,879.41412,258.90656,-369.76743,826.87939,316.37955,-325.28162,883.44928
67,0.55,183.31114,-330.3223,880.72546,258.85876,-370.18243,829.68231,314.99997,-326.79822,885.67969
68,0.558,182.29227,-330.63199,882.56244,259.03647,-370.25455,831.21149,315.09134,-327.10818,888.59747
69,0.567,181.94017,-331.61615,884.32208,258.72241,-372.32303,834.97345,315.11148,-326.9628,891.83539
70,0.575,181.96506,-331.85703,885.65283,258.36295,-372.25528,836.3548,315.02438,-326.11578,892.99054
71,0.583,181.79982,-331.63416,886.45599,259.866,-370.71017,838.31763,314.26315,-326.58459,896.26068
72,0.592,182.00623,-331.51166,888.69678,259.97205,-371.38977,841.9021,314.08395,-326.18915,899.66248
73,0.6,181.79134,-331.2897,889.64288,259.41461,-371.94751,842.81799,313.50693,-325.5202,902.16431
74,0.608,181.76959,-332.08737,891.57343,258.93433,-371.25595,845.8996,313.23926,-324.12,905.2583
75,0.617,181.36725,-331.26462,892.23615,260.39954,-371.77103,848.76477,311.32111,-325.29727,907.83044
76,0.625,180.69974,-332.42026,895.16919,261.91562,-368.6387,850.07526,311.65659,-323.88342,910.64044
77,0.633,180.85527,-330.4584,896.02075,262.39969,-370.74268,853.55597,311.49292,-321.82318,913.81396
78,0.642,180.52969,-329.9509,896.98737,261.97818,-369.19412,855.52374,310.85535,-322.42014,916.6087
79,0.65,180.82507,-330.04874,898.50256,263.74252,-368.91342,858.6488,310.96069,-320.72568,919.10284
80,0.658,180.26796,-328.86783,901.86194,262.83847,-367.92816,860.92944,309.33682,-319.94519,921.5744
81,0.667,180.17543,-328.19449,902.66425,263.65335,-368.47079,864.48492,309.38043,-317.9614,924.81335
82,0.675,179.7973,-327.11835,903.69739,262.68527,-367.1257,866.914,309.26276,-315.96921,927.31458
83,0.683,179.26559,-325.77924,904.93085,263.10928,-366.2757,868.76141,308.6474,-315.03317,930.53143
84,0.692,180.32069,-324.37491,905.92633,264.32034,-364.97736,872.28705,308.39438,-311.69366,933.33417
85,0.7,180.25124,-323.64468,907.7193,265.49387,-362.58896,874.15454,308.06598,-309.97565,936.01782
86,0.708,179.18199,-322.61636,909.89069,265.97211,-360.70264,877.06805,307.71863,-307.56833,938.29657
87,0.717,179.4921,-322.10162,911.21442,265.82962,-361.04694,879.06824,307.02344,-307.15814,940.61481
88,0.725,178.79428,-320.7132,912.4422,266.44507,-360.31079,881.82788,306.55804,-304.55304,942.78827
89,0.733,178.855,-320.1756,913.78546,266.23285,-359.02673,884.33374,305.35748,-303.87012,944.60748
90,0.742,179.2995,-318.91867,914.4209,269.12714,-354.40094,885.18274,305.49936,-300.17734,947.90833
91,0.75,179.72665,-317.29251,916.42291,268.75485,-353.51727,889.20923,305.29898,-298.24875,949.42725
92,0.758,180.2379,-315.72644,917.3208,268.48087,-352.24646,890.53717,303.95486,-296.4754,950.9679
93,0.767,179.70473,-313.90503,918.01617,269.53354,-352.32315,895.21088,304.90042,-292.92581,954.79584
94,0.775,180.15884,-312.4281,919.19568,270.64285,-347.30362,895.50562,304.83585,-289.42096,955.59528
95,0.783,181.10959,-310.97778,921.26227,270.01965,-345.60941,896.97955,304.67889,-287.67554,956.35394
96,0.792,180.59242,-310.24042,922.57465,270.82465,-345.09912,900.90991,302.90039,-283.60809,960.42621
97,0.8,181.13271,-307.65073,923.88885,270.40921,-344.95703,903.65063,303.05341,-280.85422,960.99768
98,0.808,181.48328,-306.29739,924.51733,272.5954,-339.4823,904.78638,302.9032,-279.15863,963.35571
99,0.817,181.37872,-304.77347,925.5202,272.58072,-338.54471,906.57343,302.84174,-276.64633,965.35986
100,0.825,181.24934,-302.44745,926.91614,272.4068,-336.73398,909.1604,302.25772,-272.77673,967.39923
101,0.833,181.05003,-301.57574,928.50812,274.1712,-332.29855,909.65326,301.75842,-269.58844,968.49677
102,0.842,181.84309,-298.49841,929.34955,274.88638,-330.89993,912.46008,301.23093,-266.77026,968.84174
103,0.85,181.95206,-297.33649,929.90558,274.62833,-330.75034,913.87885,300.69528,-265.58923,970.74243
104,0.858,182.00928,-296.40012,930.34491,276.41876,-326.33511,916.50037,300.96536,-260.89392,972.20618
105,0.867,182.25478,-294.92627,931.46637,276.28101,-324.16464,917.62061,301.02332,-257.32941,974.18909
106,0.875,182.52948,-292.84485,931.75433,276.29346,-322.81693,919.8045,300.5235,-254.35934,974.63495
107,0.883,183.14731,-290.54382,933.25128,277.71085,-317.02594,919.56702,299.92563,-250.56068,976.64111
108,0.892,183.65208,-288.47876,934.42371,277.86313,-316.55051,922.74146,299.96326,-247.00301,977.46332
109,0.9,183.36432,-286.2785,935.24719,279.03839,-312.63266,924.55414,299.49313,-242.597,978.43719
110,0.908,184.19287,-284.3439,935.77765,278.52164,-309.23801,925.98431,299.92358,-238.85078,979.02277
111,0.917,184.35054,-281.99396,936.04272,280.1413,-307.10092,926.79706,298.49722,-235.20049,979.6601
112,0.925,184.59286,-280.1167,937.98749,280.60245,-304.23944,928.69446,298.66754,-230.85475,980.62457
113,0.933,185.88899,-277.82782,937.3866,280.79514,-300.88223,931.50061,298.92221,-228.61523,981.44073
114,0.942,185.51579,-275.10751,939.17328,282.11722,-296.98303,932.39734,298.59454,-223.02017,981.88745
115,0.95,185.69011,-273.05017,940.01508,283.21899,-292.84036,932.30139,298.02875,-221.16379,982.62476
116,0.958,186.25183,-270.3924,940.93298,282.9649,-292.20627,932.729,298.01813,-216.34451,982.77283
117,0.967,187.43124,-268.7117,941.71259,284.07925,-289.48904,933.90552,296.93167,-214.02948,983.86707
118,0.975,187.77036,-267.04529,941.98297,283.4632,-287.16995,937.38159,297.1376,-209.95142,983.94257
119,0.983,188.73903,-265.00549,942.55798,285.246,-282.67819,939.16046,297.1572,-206.53662,984.09027
120,0.992,189.11189,-261.79428,943.07874,284.91611,-280.95786,939.97888,296.44708,-203.59955,984.35364
121,1,189.17039,-259.44626,943.65271,285.03113,-278.17252,941.82715,296.48318,-199.19392,985.42999
122,1.008,189.53743,-258.36176,944.17468,285.96472,-273.77872,942.724,295.68954,-196.57687,986.02417
123,1.017,190.33466,-255.7449,944.61896,286.6777,-271.82263,943.29523,295.28189,-192.09062,985.46484
124,1.025,190.2632,-253.26167,945.8194,288.30948,-266.99606,943.85626,295.41431,-188.46796,986.45337
125,1.033,190.08284,-250.70461,946.31036,287.88016,-265.09015,946.12494,295.85861,-184.13322,985.45886
126,1.042,191.19258,-248.40643,947.02777,289.02264,-262.32599,946.68958,295.3407,-181.77707,985.6958
127,1.05,191.1487,-245.72594,947.20557,287.57675,-258.39804,948.16364,295.13724,-177.17032,985.65454
128,1.058,191.40721,-243.49849,947.52478,288.58057,-256.0784,948.07373,294.56177,-175.60275,985.49823
129,1.067,191.40514,-241.47421,947.61115,289.60904,-252.43929,948.30701,293.59448,-171.36436,985.1142
130,1.075,191.33192,-240.31194,947.50623,288.79483,-250.98184,949.203,292.78891,-169.0177,984.58325
131,1.083,192.30794,-236.70717,947.68085,288.35489,-248.52689,949.64941,291.18494,-165.36285,985.14856
132,1.092,191.45139,-235.47218,948.30084,290.21603,-243.85951,950.30249,291.47369,-162.19151,984.36334
133,1.1,191.64285,-234.40546,947.99323,288.58801,-242.15988,951.15863,290.15985,-158.65536,984.61713
134,1.108,191.98027,-234.18938,948.04291,289.77158,-240.83253,951.15198,289.53052,-155.43727,984.36267
135,1.117,192.08731,-230.63663,947.47015,290.33237,-235.5994,950.7793,289.39267,-152.74304,984.17981
136,1.125,193.03989,-228.11133,947.83923,290.13971,-234.56401,951.22186,288.36438,-147.85129,982.70483
137,1.133,192.76373,-226.73161,947.60822,288.97461,-234.16656,951.94708,287.00589,-146.795,982.62903
138,1.142,192.37833,-225.32068,947.62213,290.57883,-230.02061,951.34424,286.33655,-144.84677,982.6554
139,1.15,192.5507,-223.97528,947.77881,290.12903,-226.98434,951.57019,286.66208,-142.65257,982.25171
140,1.158,192.99454,-222.56812,947.94269,289.30222,-226.02875,951.46918,286.46463,-141.55684,980.88458
141,1.167,192.20096,-220.64578,947.96136,289.7793,-222.07333,952.33545,285.11124,-137.2708,978.89813
142,1.175,191.76288,-218.73416,947.854,291.02948,-220.81233,952.38928,284.60553,-135.31412,979.1496
143,1.183,192.05524,-217.49654,947.69537,290.04297,-217.04958,952.33997,284.30383,-131.23026,978.7005
144,1.192,192.565,-215.67717,947.64355,289.75558,-215.26167,952.06281,282.78711,-130.09763,978.08813
145,1.2,192.74771,-213.7574,947.883,290.31717,-212.69109,951.60217,282.45313,-126.88747,976.92981
146,1.208,193.0719,-211.87112,945.25262,289.06271,-209.5547,949.16626,282.10022,-125.74802,975.46027
147,1.217,193.26619,-210.36563,944.7796,289.19455,-207.87502,949.03912,281.79602,-123.60704,972.65698
148,1.225,192.59119,-209.11569,944.026,289.48044,-207.6241,947.85541,280.98584,-121.71346,971.90216
149,1.233,191.10542,-208.0983,943.51929,291.16205,-204.51559,947.35284,281.17023,-119.22742,969.57544
150,1.242,190.95276,-207.77728,943.30475,290.59723,-201.63437,946.39313,280.30997,-118.77836,967.96008
151,1.25,191.79982,-205.6581,942.72412,289.4324,-201.2067,946.09589,279.84412,-116.21491,966.28357
152,1.258,190.91142,-205.84839,942.78107,290.10278,-200.82971,943.44995,278.29938,-114.59227,965.4903
153,1.267,191.23106,-204.6149,939.51685,289.96524,-200.16098,942.42566,278.49808,-112.54559,963.20099
154,1.275,191.1098,-203.12128,938.81238,289.49731,-195.31444,941.04156,278.72333,-110.9942,961.50287
155,1.283,191.19965,-201.9792,937.98962,290.12079,-194.82455,939.94299,278.20325,-110.44329,959.65289
156,1.292,190.91118,-202.02589,937.5036,290.39966,-195.38075,938.62476,277.48056,-107.15629,956.81787
157,1.3,191.00381,-201.40932,935.48352,290.15143,-192.92075,935.91309,278.28735,-106.22233,955.66284
158,1.308,190.83287,-200.21298,933.1391,289.29672,-193.86023,934.05096,277.79483,-107.38671,952.32434
159,1.317,191.74138,-199.75555,932.43103,289.1051,-193.02588,933.0863,277.58966,-105.48976,950.67822
160,1.325,190.7903,-198.78299,931.59802,290.28241,-188.64494,929.36133,276.85904,-105.62506,947.09772
161,1.333,190.96448,-198.60574,930.73126,290.40579,-187.93021,927.39502,277.47961,-102.76091,945.34277
162,1.342,191.18472,-196.32864,927.66229,290.61667,-187.2627,924.91156,278.14877,-103.6741,941.66333
163,1.35,191.34322,-195.73082,926.63934,291.10663,-187.67189,921.98901,277.83408,-102.25399,939.62115
164,1.358,191.38582,-196.90495,925.00378,290.67554,-187.56886,920.24347,278.43271,-101.66204,935.63385
165,1.367,193.31331,-194.71742,922.92035,290.53299,-187.35657,915.89117,279.01749,-100.75944,933.71576
166,1.375,192.38683,-194.09407,921.29266,290.66479,-187.83702,915.14636,280.04538,-101.02733,930.41144
167,1.383,193.63528,-193.93369,920.50513,291.74548,-185.47911,911.05328,280.1557,-99.88868,927.8512
168,1.392,193.72984,-193.6277,917.74817,291.14496,-186.88684,908.93939,281.3251,-98.78703,925.09717
169,1.4,193.39024,-194.4128,916.75232,291.62064,-186.20543,904.99829,282.08517,-99.74433,921.10675
170,1.408,193.93233,-193.27975,914.34485,292.17944,-185.9335,903.3999,282.82507,-98.80516,917.96082
171,1.417,194.65669,-192.80095,912.80865,292.68472,-185.21893,900.43134,282.29889,-98.08366,916.19513
172,1.425,195.67108,-192.76141,910.43048,292.57166,-185.70825,897.14624,282.78827,-99.14031,911.83594
173,1.433,195.80428,-191.97398,908.89569,292.30682,-186.13719,894.83972,283.69693,-98.06185,910.17035
174,1.442,196.33676,-191.41423,906.50867,292.63489,-185.71985,890.83826,284.01257,-97.61256,908.11224
175,1.45,196.86012,-192.12592,904.86108,292.50964,-186.28352,888.77936,285.40924,-97.27383,902.91302
176,1.458,197.15187,-191.39906,903.43658,293.73975,-185.65564,885.23444,287.3212,-98.47312,900.82977
177,1.467,197.32353,-191.49786,900.88538,294.10782,-186.58713,882.40167,287.3111,-97.44933,898.3114
178,1.475,197.5293,-191.62895,899.64795,293.30524,-186.80583,879.13593,289.13715,-98.77689,893.41266
179,1.483,198.60588,-190.65121,898.47351,294.92651,-187.11632,876.88043,289.35132,-95.92486,892.92395
180,1.492,199.27596,-190.86829,895.80652,294.50778,-187.61266,873.41608,291.24307,-98.84414,886.80963
181,1.5,199.54584,-191.0883,893.57788,294.44675,-187.11203,870.83429,291.97928,-98.61578,883.90607
182,1.508,199.72661,-191.08095,892.23645,295.52811,-187.2899,868.1134,292.69275,-97.92636,882.06104
183,1.517,200.26567,-190.59042,889.55402,294.90851,-188.4025,864.28296,294.01324,-97.52132,877.38135
184,1.525,200.51189,-191.11957,888.09369,296.59436,-189.89084,862.35199,293.77191,-98.95419,875.18848
185,1.533,201.30244,-190.81508,885.89343,295.9498,-190.64073,858.53564,296.33755,-98.47234,871.72675
186,1.542,202.29393,-189.69646,883.92871,295.80237,-191.21062,857.27979,297.56226,-101.76723,866.98425
187,1.55,202.12122,-188.92485,882.3457,297.33694,-191.79028,853.07507,298.06641,-102.31397,865.08942
188,1.558,202.37512,-190.00204,880.90161,296.1167,-192.00435,850.9834,298.78305,-103.40455,861.91284
189,1.567,202.64163,-190.6066,878.927,297.94629,-193.02214,847.61078,299.47369,-104.54392,857.84772
190,1.575,203.8719,-190.73769,876.96967,298.10574,-193.23817,845.1059,301.22583,-104.66609,855.46307
191,1.583,205.2774,-190.67952,875.97546,297.99252,-193.34222,842.2276,302.78156,-104.82189,854.61157
192,1.592,205.51875,-190.08299,873.74304,298.509,-195.64497,839.53839,303.81738,-107.20245,849.73865
193,1.6,206.6368,-191.84715,871.94464,298.26227,-197.01273,838.17419,302.89874,-108.73808,847.74048
194,1.608,206.57436,-192.74812,871.27161,298.44229,-196.96069,833.68591,304.62091,-109.44193,844.28088
195,1.617,206.41536,-191.42538,868.4812,298.73969,-198.31795,832.12439,305.78271,-109.94595,842.58643
196,1.625,206.93384,-191.65079,866.9209,298.71063,-202.3304,829.63959,305.54031,-112.49879,838.07715
