Frame#,Time,R.Forearm.x,R.Forearm.y,R.Forearm.z,R.Ulna.x,R.Ulna.y,R.Ulna.z,R.Radius.x,R.Radius.y,R.Radius.z
1,0,-1037.6842,-317.90274,1119.3363,-1070.54541,-361.66339,1020.87616,-999.28729,-355.47055,955.06201
2,0.008,-1028.12817,-319.07184,1118.57776,-1060.97266,-362.99677,1021.18256,-986.94684,-357.89197,955.93762
3,0.017,-1017.43152,-319.98407,1119.05139,-1049.19946,-363.99869,1021.54968,-975.82831,-357.18137,957.70447
4,0.025,-1007.9469,-320.36157,1120.27539,-1038.25854,-365.08472,1021.41577,-965.05334,-359.5997,957.94427
5,0.033,-999.245,-321.30258,1119.28955,-1027.09863,-365.6243,1021.62592,-955.65625,-362.03555,958.92163
6,0.042,-987.99127,-321.4498,1120.12744,-1017.33484,-366.68875,1020.85278,-943.22974,-358.99182,958.40979
7,0.05,-979.86896,-322.74484,1119.3761,-1006.90399,-367.49924,1021.37585,-932.55267,-362.12888,958.37366
8,0.058,-971.05286,-323.17624,1119.34229,-997.02148,-369.13364,1020.58447,-921.61414,-361.0267,958.15741
9,0.067,-961.06488,-325.27011,1119.20911,-987.71851,-370.74692,1020.32184,-910.70135,-360.58289,958.58649
10,0.075,-951.76343,-325.66196,1119.37866,-976.66467,-370.42334,1019.67688,-900.01495,-362.56662,959.71039
11,0.083,-942.67896,-324.90308,1118.89453,-966.42114,-370.09406,1020.17438,-889.46497,-362.24432,959.04785
12,0.092,-935.17859,-325.99298,1118.53906,-956.2735,-371.01218,1018.68262,-879.38739,-362.82755,959.5553
13,0.1,-923.97552,-326.80118,1118.4646,-946.47937,-371.46375,1018.46619,-869.43597,-363.10205,958.8595
14,0.108,-914.86548,-326.77353,1117.68433,-936.52875,-371.98438,1017.80878,-857.51294,-360.97534,959.88684
15,0.117,-906.09546,-326.78885,1116.9917,-925.37805,-372.72678,1017.00397,-848.9646,-363.82211,959.94769
16,0.125,-898.71283,-328.21243,1117.1073,-915.82251,-371.28253,1016.20465,-838.27502,-362.48041,959.26788
17,0.133,-888.00781,-327.11118,1116.28381,-908.1579,-373.45468,1016.02118,-827.43542,-360.0137,959.19305
18,0.142,-879.1073,-326.55316,1115.45093,-897.01434,-372.6546,1014.6123,-818.36108,-363.25455,957.97784
19,0.15,-871.60846,-329.09006,1114.67261,-888.77216,-373.26196,1013.34503,-808.00342,-360.495,958.99561
20,0.158,-862.05566,-327.13507,1114.28113,-879.02673,-372.18954,1012.48712,-798.87067,-360.08798,958.34918
21,0.167,-852.18976,-327.146,1113.1604,-868.08246,-370.96964,1012.03217,-787.45959,-358.15094,957.82507
22,0.175,-843.7597,-327.1424,1112.84766,-858.09827,-370.99228,1010.86432,-779.31598,-360.36365,957.50494
23,0.183,-834.73431,-327.41891,1111.35266,-850.04785,-370.88385,1010.49438,-770.09918,-359.22638,957.18384
24,0.192,-826.45746,-326.3028,1110.7738,-840.38916,-370.87979,1009.33801,-761.18604,-357.04764,955.8089
25,0.2,-818.63141,-326.01505,1109.80042,-831.56024,-372.21356,1009.81757,-750.8139,-355.08618,955.76825
26,0.208,-809.9043,-324.03082,1109.23389,-822.64502,-369.96667,1008.11829,-742.21362,-357.65271,954.97174
27,0.217,-801.44623,-325.19962,1108.64673,-814.51099,-370.82526,1007.65112,-733.62433,-355.6185,955.08636
28,0.225,-792.81848,-323.96695,1107.06567,-805.04462,-370.91064,1006.35565,-724.88361,-354.18875,954.82416
29,0.233,-784.08759,-321.58273,1106.64368,-796.74652,-368.79861,1005.29999,-716.16425,-354.49545,954.14838
30,0.242,-777.9281,-322.98404,1106.03674,-789.50006,-370.90836,1005.38446,-706.75574,-352.92267,953.62012
31,0.25,-769.30072,-321.44672,1106.01208,-781.37756,-368.1676,1004.41248,-699.29041,-354.61273,953.40546
32,0.258,-761.96002,-320.9187,1105.74902,-771.99017,-366.72906,1004.9986,-692.31073,-353.43704,952.70081
33,0.267,-754.68488,-320.0202,1104.7782,-765.39594,-367.75891,1004.32007,-684.07715,-352.61154,952.15363
34,0.275,-747.02222,-319.49478,1104.67725,-757.44446,-366.49506,1004.01245,-677.14984,-351.77225,950.86133
35,0.283,-740.11816,-319.29877,1103.90344,-750.83301,-367.19437,1003.99774,-667.91064,-352.26047,950.47736
36,0.292,-732.66803,-318.19498,1103.24377,-743.49316,-365.03412,1002.17084,-662.12494,-352.20496,951.26147
37,0.3,-726.45972,-318.04938,1102.80945,-737.14063,-364.4624,1002.68372,-653.88678,-350.80524,950.65729
38,0.308,-718.07074,-316.91196,1102.33923,-729.97009,-363.96686,1001.77802,-647.73456,-350.25397,950.40302
39,0.317,-711.75916,-316.18268,1102.9989,-723.00299,-362.16306,1001.31982,-641.03595,-350.0755,949.53156
40,0.325,-704.66272,-315.86148,1102.45178,-716.28094,-362.3873,1000.88501,-635.44977,-348.82959,949.72162
41,0.333,-697.35138,-313.83414,1102.24194,-709.77081,-359.85245,1002.40924,-629.9967,-349.00894,949.61389
42,0.342,-691.06122,-313.57538,1102.53174,-704.28815,-359.76828,1002.23395,-623.04187,-348.03201,949.49182
43,0.35,-683.68683,-312.37183,1103.00342,-698.43268,-358.52487,1002.71002,-617.80286,-347.47052,949.9317
44,0.358,-676.10931,-311.22183,1103.84766,-691.81573,-356.46622,1002.55847,-611.33685,-346.12857,949.82776
45,0.367,-669.80249,-311.13992,1105.08057,-686.32013,-356.05746,1004.28333,-607.70758,-346.16183,950.0224
46,0.375,-662.15649,-308.35309,1105.61389,-680.85242,-354.47516,1006.22327,-600.86578,-343.61734,950.1062
47,0.383,-655.44263,-308.75531,1107.35645,-674.73584,-354.052,1005.81024,-596.19537,-342.94614,950.15894
48,0.392,-648.03711,-306.93637,1106.8042,-669.70264,-353.73633,1007.2226,-589.78534,-341.64844,950.92383
49,0.4,-641.41663,-306.6304,1108.8147,-663.8371,-351.55786,1009.33234,-586.10858,-340.94739,950.8609
50,0.408,-635.07617,-305.5603,1110.23022,-657.8266,-351.48425,1010.11615,-580.23297,-338.37878,951.17896
51,0.417,-627.27509,-303.70758,1110.67651,-651.95837,-349.98923,1011.021,-575.66656,-338.9407,952.14044
52,0.425,-621.84088,-304.00864,1110.85986,-647.19275,-350.68069,1013.59113,-570.67401,-339.95313,952.13367
53,0.433,-614.64691,-302.8168,1112.30408,-640.75305,-348.84528,1013.87817,-565.90649,-338.11456,951.4472
54,0.442,-608.75085,-303.15152,1112.26953,-636.23657,-348.24979,1014.04541,-560.35071,-338.02252,951.58051
55,0.45,-601.73431,-300.84445,1113.16345,-630.39252,-346.54691,1014.42255,-555.04932,-337.27347,951.53931
56,0.458,-595.9892,-301.55362,1113.74182,-624.87543,-346.76282,1015.04749,-551.9964,-336.84467,951.22711
57,0.467,-590.99609,-300.6861,1113.6377,-620.43506,-346.4502,1016.44836,-547.25238,-336.69321,950.99683
58,0.475,-584.98273,-299.50433,1114.12305,-614.99408,-345.41202,1016.7854,-541.21246,-335.42844,951.50897
59,0.483,-578.23376,-298.97781,1114.08728,-610.73511,-343.96756,1016.33514,-537.15173,-335.03992,951.22461
60,0.492,-573.10541,-298.39987,1114.16577,-605.1145,-342.42715,1016.16785,-532.48871,-334.80408,951.23285
61,0.5,-567.61523,-297.14352,1114.30713,-598.94104,-340.77496,1016.263,-527.78424,-336.31689,951.43909
62,0.508,-561.30487,-295.93076,1115.08191,-594.53894,-341.61124,1018.13556,-523.78107,-334.76337,951.6875
63,0.517,-555.4668,-295.5094,1115.90479,-589.82318,-339.50177,1018.53802,-519.12213,-334.32068,951.50092
64,0.525,-550.00629,-293.61801,1115.46155,-585.41772,-339.03406,1018.38684,-514.0788,-332.55685,951.66376
65,0.533,-544.72473,-293.82935,1115.7124,-581.31158,-336.61649,1018.88269,-509.7113,-332.26779,952.17706
66,0.542,-540.48053,-292.38608,1115.94641,-575.94409,-336.24164,1019.38959,-505.96094,-330.98715,951.8609
67,0.55,-534.59369,-291.53638,1117.12927,-572.06317,-336.66235,1020.47021,-500.87842,-329.63968,951.69464
68,0.558,-530.23438,-290.87921,1117.10535,-567.00928,-333.58685,1020.21863,-497.04178,-330.06448,952.40662
69,0.567,-524.62421,-289.79028,1117.21948,-562.90839,-334.06845,1021.08752,-492.49548,-328.53979,952.40674
70,0.575,-520.15344,-290.93912,1117.66907,-559.12421,-333.37753,1021.03088,-488.21317,-327.63892,952.8006
71,0.583,-514.80627,-289.81845,1117.94458,-554.39838,-332.14334,1020.67804,-483.97482,-326.1586,953.4953
72,0.592,-510.30701,-288.57724,1118.0769,-548.55005,-329.80957,1021.56378,-478.48505,-326.14355,953.70538
73,0.6,-504.83035,-288.60837,1119.25232,-544.4093,-329.36298,1021.6319,-474.45267,-326.44211,953.29059
74,0.608,-499.52374,-287.802,1118.7052,-538.83899,-328.66815,1022.30487,-468.9996,-324.48138,953.36401
75,0.617,-494.0192,-288.21112,1118.53003,-535.82147,-328.30145,1022.04065,-465.5528,-324.78949,952.82227
76,0.625,-488.36002,-287.47791,1118.22888,-530.77716,-327.55911,1021.98291,-460.28076,-323.04471,952.1557
77,0.633,-482.85419,-287.65686,1117.85181,-525.54596,-327.31799,1021.86365,-455.42206,-322.52713,951.6911
78,0.642,-476.6124,-286.26938,1117.03723,-519.53003,-325.6937,1021.3985,-450.50803,-320.9483,951.51532
79,0.65,-469.76959,-285.81235,1117.03625,-513.33038,-325.63889,1021.41577,-444.68713,-319.4292,951.35242
80,0.658,-463.84427,-285.11636,1117.92139,-507.2283,-324.84973,1022.13385,-440.2402,-320.46024,951.4635
81,0.667,-457.60153,-284.34845,1117.78552,-501.68097,-324.25455,1021.8819,-434.89914,-317.96902,950.16248
82,0.675,-450.73532,-284.09528,1116.50525,-495.3768,-322.457,1021.93781,-429.8667,-317.99124,950.29236
83,0.683,-444.67273,-282.95227,1116.27722,-490.17963,-322.84528,1021.64172,-424.87631,-316.02441,948.94812
84,0.692,-437.09381,-282.73843,1115.59436,-483.78308,-322.06161,1021.40271,-418.58481,-316.20068,947.9292
85,0.7,-431.42584,-282.09479,1114.64185,-477.8226,-321.69736,1021.34802,-412.45709,-315.6066,947.17566
86,0.708,-424.98428,-282.58133,1114.96619,-471.02121,-320.46066,1020.26691,-406.50839,-315.43201,946.46191
87,0.717,-417.53616,-282.10992,1113.09851,-466.22104,-321.88489,1019.58746,-401.91711,-316.14508,946.06622
88,0.725,-411.39444,-281.70087,1112.76086,-459.61469,-320.68524,1019.15686,-395.75195,-314.69144,944.75635
89,0.733,-403.90906,-281.66626,1111.75232,-453.52863,-321.04935,1018.72919,-389.34482,-315.89362,943.51086
90,0.742,-396.85971,-281.44739,1111.74023,-447.10333,-320.05429,1017.26245,-382.59467,-315.50497,942.24872
91,0.75,-389.99426,-282.88147,1109.85327,-440.62589,-320.11377,1015.61487,-375.87479,-315.56516,941.30212
92,0.758,-383.3288,-282.50665,1109.16272,-434.26224,-319.44284,1014.54083,-369.76849,-313.99054,939.98029
93,0.767,-376.77393,-282.75385,1108.49475,-428.48129,-319.79279,1013.94989,-365.14441,-315.79953,939.26959
94,0.775,-370.18329,-282.50867,1106.59082,-420.56863,-320.96796,1012.83313,-355.46463,-315.91263,937.58051
95,0.783,-363.17389,-282.66391,1104.91858,-413.89499,-320.17123,1011.24701,-350.03403,-316.55255,936.34778
96,0.792,-356.7294,-283.77078,1103.34045,-407.59494,-320.58139,1010.66736,-342.98196,-315.78693,935.34467
97,0.8,-348.85132,-284.06647,1102.17212,-399.40814,-321.33569,1008.75958,-335.11368,-316.98468,933.85803
98,0.808,-340.9342,-284.71375,1100.3175,-392.97202,-321.83981,1007.44336,-328.3826,-316.77808,931.90222
99,0.817,-334.56781,-285.68539,1099.75562,-385.24432,-321.14221,1005.67511,-321.73907,-316.28525,930.74219
100,0.825,-326.0687,-286.40341,1098.50256,-377.29428,-322.67627,1004.6897,-314.04938,-318.90857,929.65308
101,0.833,-318.40833,-287.2106,1097.18152,-370.24518,-323.23447,1002.91071,-305.96667,-318.84183,928.16449
102,0.842,-310.80457,-288.82684,1096.37854,-362.81284,-324.77292,1001.44019,-298.97699,-319.72723,926.70551
103,0.85,-303.73059,-289.01053,1094.87549,-353.63037,-325.76181,1000.05145,-290.87582,-320.27371,925.47668
104,0.858,-294.31461,-290.62729,1093.14148,-347.4397,-326.33545,999.54822,-282.18851,-321.25018,924.44714
105,0.867,-286.32431,-291.77859,1091.89233,-338.41785,-326.86844,997.92065,-274.29028,-322.59549,922.54614
106,0.875,-277.92661,-293.79245,1090.78894,-329.91479,-328.22775,996.40265,-265.39523,-321.82666,921.61432
107,0.883,-270.1958,-294.90634,1089.05762,-320.68225,-329.01163,995.4054,-256.7785,-324.10818,919.95538
108,0.892,-261.27432,-295.86508,1088.59326,-312.35181,-331.51398,994.58075,-247.97975,-324.77878,918.84186
109,0.9,-252.23956,-297.26874,1086.86145,-303.16846,-332.94162,993.40875,-238.81828,-326.07697,918.34595
110,0.908,-241.89775,-299.08469,1087.22559,-293.20856,-333.83118,991.92499,-230.49031,-326.7515,916.97137
111,0.917,-233.07707,-299.96805,1086.5564,-283.23337,-334.7374,992.61438,-220.67569,-328.2475,916.76324
112,0.925,-222.52223,-301.34128,1087.18506,-273.85657,-335.99451,993.01294,-211.94441,-329.58078,916.57666
113,0.933,-213.11436,-302.43991,1087.12354,-265.18054,-337.39905,992.9032,-202.97968,-331.28152,917.46863
114,0.942,-203.37303,-303.91354,1087.92407,-254.64549,-339.55838,994.20398,-192.94565,-332.2764,918.09552
115,0.95,-193.31747,-303.65613,1088.51404,-246.09605,-340.58487,994.99103,-181.67325,-332.06384,919.48541
116,0.958,-184.19113,-305.15338,1089.48206,-235.37025,-341.99484,996.90759,-172.02126,-334.56793,920.59436
117,0.967,-174.73497,-307.60358,1091.2417,-225.27838,-343.5101,997.35242,-162.06325,-335.81686,921.92395
118,0.975,-164.68288,-308.96863,1092.65967,-214.6575,-344.42551,998.68323,-151.35985,-336.94699,923.60675
119,0.983,-155.30243,-309.89194,1094.09619,-205.36032,-346.46997,1000.23444,-141.79813,-339.68976,923.85571
120,0.992,-146.48148,-311.14172,1095.61475,-195.49097,-346.56879,1000.68652,-131.48367,-341.14349,926.72748
121,1,-136.84515,-314.39026,1097.48926,-184.99937,-349.03876,1001.79974,-122.20582,-341.81274,927.82666
122,1.008,-127.16815,-316.21579,1098.19824,-175.15753,-349.67563,1002.06134,-110.80769,-344.47009,929.40552
123,1.017,-118.08221,-318.2562,1098.94104,-164.74942,-353.07983,1003.21722,-99.39908,-345.65814,930.13684
124,1.025,-107.9174,-320.40121,1099.41748,-155.00545,-355.22006,1003.68915,-88.35715,-346.73529,931.69775
125,1.033,-97.55788,-322.41611,1101.02344,-144.93521,-357.28073,1004.8158,-77.30757,-347.78107,931.32764
126,1.042,-88.33801,-325.13745,1101.12073,-133.38824,-358.0632,1004.23724,-68.5054,-350.76501,932.39441
127,1.05,-77.69028,-327.04236,1102.55896,-121.96771,-361.2124,1004.54358,-56.23477,-352.14398,933.53687
128,1.058,-66.91808,-328.68369,1102.61511,-110.73849,-363.55725,1005.7663,-44.81952,-353.1427,932.68738
129,1.067,-56.05505,-330.67709,1103.03442,-99.74333,-364.47394,1005.28979,-32.23415,-354.84467,934.03711
130,1.075,-45.35583,-332.04843,1103.74072,-87.26778,-366.16995,1006.91522,-20.91455,-356.13449,934.32849
131,1.083,-34.33934,-331.57675,1104.02795,-76.09143,-369.97592,1006.26221,-8.2198,-357.02026,935.92389
132,1.092,-23.17638,-333.26953,1103.98218,-64.69127,-371.09705,1006.46686,2.51014,-358.21814,936.62048
133,1.1,-11.68152,-334.50052,1104.65979,-52.07627,-372.53125,1007.45508,13.83843,-358.9054,937.3548
134,1.108,-0.11524,-334.8176,1106.09229,-39.0164,-374.52026,1007.3125,25.91099,-359.3009,938.11401
135,1.117,9.93699,-336.229,1107.17786,-27.25922,-376.09991,1009.1062,38.14604,-361.19916,939.14166
136,1.125,20.72501,-337.35999,1107.75146,-15.76025,-378.23669,1009.54547,51.31432,-361.72214,939.87592
137,1.133,31.74898,-337.95273,1107.82617,-4.49118,-379.31812,1010.23846,62.85,-363.52939,940.57556
138,1.142,42.38241,-339.94128,1108.55066,7.50453,-381.51251,1010.30328,75.36034,-364.66605,941.74451
139,1.15,53.09181,-341.35178,1109.03711,19.32281,-382.45444,1010.56671,86.3094,-364.73434,941.46991
140,1.158,64.61108,-340.86771,1110.29382,29.81867,-384.28397,1011.50494,98.40047,-367.15652,943.41016
141,1.167,74.74448,-342.7655,1110.33716,41.65146,-385.33734,1011.35986,111.27407,-368.0722,944.50751
142,1.175,84.9278,-345.27228,1111.55518,53.44588,-386.1925,1013.06677,122.5446,-368.87323,945.11279
143,1.183,95.6365,-346.86938,1111.70752,65.05582,-387.43304,1012.49823,134.58728,-370.46625,945.99036
144,1.192,106.31699,-345.93091,1112.31555,76.65791,-390.03418,1012.85352,145.81569,-371.85614,947.37018
145,1.2,115.96696,-348.38614,1112.79321,87.25043,-391.12589,1013.34491,158.56091,-372.81531,948.15167
146,1.208,125.85745,-348.25543,1113.64441,99.36172,-390.42133,1012.89105,170.55801,-374.49698,949.33234
147,1.217,136.20732,-349.56317,1113.24194,109.32758,-391.62167,1012.50732,181.83296,-375.46533,949.33325
148,1.225,146.05672,-350.30991,1114.27295,120.73327,-393.7135,1013.10187,193.85287,-376.36935,950.63269
149,1.233,154.8669,-351.10013,1114.43164,132.1637,-394.56448,1013.85474,204.88629,-376.4086,951.37781
150,1.242,164.72849,-352.52032,1114.16528,141.75447,-395.18256,1014.03687,216.74767,-378.07327,952.71289
151,1.25,174.01239,-353.32404,1114.6062,153.96213,-396.73898,1014.06604,227.97408,-377.95956,953.37909
152,1.258,184.42603,-353.6463,1114.80273,163.87805,-396.75885,1013.33453,238.99988,-379.33762,955.19879
153,1.267,193.33054,-354.80777,1114.81042,174.77406,-397.44052,1013.61957,250.51082,-379.92935,955.53918
154,1.275,202.67903,-354.69498,1115.02856,184.5072,-398.39713,1012.75024,261.82419,-379.44794,956.20618
155,1.283,212.98061,-355.54105,1114.80676,195.68703,-398.74368,1012.51276,272.99323,-380.36069,956.3797
156,1.292,221.71747,-357.39307,1114.55811,206.70088,-399.79092,1012.448,284.21701,-379.97546,957.38177
157,1.3,230.9778,-357.0755,1114.83179,217.2196,-400.22736,1011.44299,295.48712,-379.74243,956.94904
158,1.308,241.12965,-358.64688,1113.93555,226.82912,-399.75589,1010.83197,305.80865,-381.32083,957.45465
159,1.317,249.75246,-358.56281,1113.27344,237.5022,-401.17435,1010.74139,317.0914,-379.99573,957.54883
160,1.325,258.42029,-359.67099,1112.98145,247.95107,-401.67194,1009.59998,327.36298,-380.07928,957.35504
161,1.333,267.86032,-359.55573,1112.88708,258.32092,-400.78418,1009.10541,337.81729,-379.25607,957.6214
162,1.342,278.603,-359.65695,1111.42712,268.1626,-402.49496,1008.71277,347.44046,-378.89587,957.48309
163,1.35,287.62375,-359.78247,1111.05481,278.32742,-401.28778,1007.08307,357.95279,-379.0733,956.91968
164,1.358,297.15833,-359.34579,1110.55103,287.57129,-400.94672,1007.07422,368.1304,-378.05478,956.62659
165,1.367,305.45712,-359.81995,1109.76172,298.93869,-402.27451,1007.09375,378.37485,-378.63751,956.06952
166,1.375,315.15317,-359.19846,1108.97131,307.68262,-400.59445,1005.74115,387.80774,-377.96811,955.81921
167,1.383,324.20828,-358.75507,1108.28296,317.67944,-401.62122,1005.40363,397.38022,-378.31897,955.62402
168,1.392,333.26443,-358.12875,1108.41907,326.86517,-400.20966,1005.76184,406.95581,-376.89572,955.33124
169,1.4,342.59021,-356.91946,1107.22961,336.97,-401.34607,1004.35089,416.56442,-377.09985,954.65405
170,1.408,351.92432,-356.30582,1106.77014,345.51538,-400.06937,1003.81689,425.57559,-376.34137,953.63928
171,1.417,360.41183,-355.04218,1105.72327,355.52557,-400.98706,1003.7569,434.82413,-376.78494,953.26233
172,1.425,368.8978,-353.68106,1105.07056,363.46954,-400.21707,1003.82886,443.69687,-375.64178,952.92346
173,1.433,377.41415,-353.69128,1105.25037,371.71936,-399.0007,1002.34216,452.71326,-375.88489,952.63403
174,1.442,384.89734,-352.61075,1104.2677,380.88876,-399.03607,1002.30591,460.42715,-374.92703,952.23175
175,1.45,392.89917,-353.24353,1103.86243,388.76691,-398.19458,1002.41138,469.3721,-376.1272,951.87982
176,1.458,401.57227,-352.41876,1103.22998,396.51181,-398.27255,1002.05066,476.71252,-374.9238,951.36896
177,1.467,409.22769,-351.2222,1102.60242,403.32034,-397.10809,1000.54187,484.83432,-374.828,950.39337
178,1.475,416.91336,-350.37491,1102.24207,410.69412,-396.2597,1000.77783,492.33173,-374.38834,950.7511
179,1.483,424.97379,-349.91782,1101.21252,418.84781,-395.69684,1000.45703,499.6214,-372.99969,949.401
180,1.492,431.90884,-349.32507,1100.41064,425.72052,-395.12491,1000.06702,507.05444,-374.08667,949.02869
181,1.5,439.49084,-348.64075,1101.04529,431.90826,-392.40121,998.3197,513.23053,-374.00186,948.91211
182,1.508,446.22916,-348.06122,1101.27405,438.35617,-393.93231,999.51617,520.37305,-373.69656,948.29443
183,1.517,453.93549,-347.0741,1101.63159,445.94434,-393.50156,999.24188,527.19397,-373.84116,948.69879
184,1.525,459.19144,-346.5509,1102.08374,452.4978,-391.97488,999.34644,533.4693,-371.77597,948.875
185,1.533,467.41693,-345.78918,1102.22021,457.87924,-389.7919,1000.18713,539.2876,-369.93216,948.21808
186,1.542,472.92862,-344.32974,1101.76099,464.19247,-390.36569,1000.53284,544.77808,-369.29871,948.2558
187,1.55,479.91293,-342.52829,1102.9646,469.9996,-388.10938,1001.84937,549.71478,-368.69547,948.34393
188,1.558,486.10052,-341.94199,1103.26147,475.89658,-387.4324,1002.76459,555.67938,-368.73712,948.91699
189,1.567,493.53906,-341.04254,1103.82556,479.85968,-386.10571,1003.22766,560.70355,-367.3721,948.75165
