Frame#,Time,L.Forearm.x,L.Forearm.y,L.Forearm.z,L.Ulna.x,L.Ulna.y,L.Ulna.z,L.Radius.x,L.Radius.y,L.Radius.z
1,0,-1120.54529,329.21725,1041.13721,-1101.30579,366.84488,956.19391,-1056.84973,302.39511,916.00494
2,0.008,-1114.0802,329.27695,1040.12805,-1096.64624,366.6644,955.73615,-1051.35767,302.40427,915.64685
3,0.017,-1109.60901,329.82108,1040.66345,-1091.76318,367.50626,955.19641,-1047.81018,304.48764,916.54407
4,0.025,-1103.33899,330.59128,1039.55908,-1086.31799,366.995,955.28284,-1041.92065,305.16321,916.16046
5,0.033,-1098.23315,329.9617,1039.56799,-1081.31177,367.82715,955.04602,-1034.35437,305.10562,916.26416
6,0.042,-1093.00513,330.6767,1038.2207,-1076.57471,369.6951,954.13928,-1035.43286,304.98462,915.12616
7,0.05,-1087.88733,331.20795,1038.53809,-1070.7771,370.4628,953.91064,-1025.87415,307.8678,915.15411
8,0.058,-1082.27869,332.48645,1037.14148,-1067.44434,371.49295,952.66357,-1019.88715,308.15237,914.20337
9,0.067,-1076.12817,332.61938,1036.82593,-1060.17957,372.22955,951.68073,-1014.88495,309.29984,912.82983
10,0.075,-1069.7384,331.44073,1036.31775,-1054.3418,370.51306,951.28564,-1008.71021,310.43808,912.18274
11,0.083,-1063.02893,333.13406,1035.08984,-1049.44568,372.03903,950.3465,-1003.55615,310.77444,910.59833
12,0.092,-1060.21277,333.84061,1034.89819,-1044.82227,373.62714,949.61206,-996.34576,310.68405,910.29303
13,0.1,-1052.42371,335.18533,1033.40784,-1038.07898,374.3689,948.21515,-992.49316,313.10815,908.36511
14,0.108,-1045.94043,334.33347,1032.80005,-1032.22388,374.73123,947.77246,-986.59033,312.69348,908.39838
15,0.117,-1039.58179,336.03333,1032.11987,-1026.8949,374.91141,945.8847,-979.83276,313.56955,906.16119
16,0.125,-1033.4519,335.20233,1029.97681,-1021.17255,376.6312,944.23492,-971.68512,314.92969,904.33704
17,0.133,-1026.59424,336.82462,1028.59729,-1013.87787,376.57721,943.77197,-964.70331,315.45319,902.12494
18,0.142,-1020.71405,338.37939,1027.47363,-1007.77417,377.18103,943.03003,-961.67712,314.49503,901.245
19,0.15,-1014.07007,338.23236,1026.50391,-1000.49097,377.48929,941.36108,-953.58691,316.73849,900.01349
20,0.158,-1006.10236,340.10556,1024.69373,-993.80957,377.99847,939.3573,-946.53625,319.70932,898.12482
21,0.167,-1000.10284,339.39917,1024.44751,-985.98309,378.53168,937.96808,-940.94458,318.99466,896.4057
22,0.175,-992.10138,340.00162,1022.13647,-979.90765,380.03455,937.0697,-934.08875,319.61624,896.47095
23,0.183,-985.56873,340.2002,1021.12952,-973.41284,381.38364,934.80774,-927.88586,319.70197,894.12598
24,0.192,-977.29144,342.11591,1019.22125,-965.95233,382.13477,934.09088,-918.95514,321.91757,892.39093
25,0.2,-970.09937,343.79697,1018.42096,-958.69202,382.0881,932.26483,-911.88531,323.39615,891.45929
26,0.208,-962.85443,343.18884,1017.28583,-951.29828,383.29932,930.94385,-904.77545,323.60364,890.41101
27,0.217,-955.13733,344.49667,1015.61438,-943.62909,384.1333,930.31946,-896.7962,324.76575,888.9032
28,0.225,-947.33594,346.49399,1013.75122,-936.17291,384.26999,928.34863,-889.69965,325.59064,887.36053
29,0.233,-939.43866,346.21335,1012.94977,-927.98608,386.21301,927.35822,-881.95258,325.55438,886.88153
30,0.242,-932.16449,348.02338,1011.75092,-919.49487,386.98471,925.36731,-873.07635,326.84857,885.56824
31,0.25,-923.76758,349.63882,1010.25439,-911.84747,387.65097,924.95813,-864.45953,327.38782,883.5177
32,0.258,-916.37842,351.54459,1009.50775,-904.11932,389.48706,924.37006,-857.56732,329.03119,883.16443
33,0.267,-907.7334,350.42368,1008.83954,-896.13641,390.53534,922.69885,-848.83423,329.44299,882.34827
34,0.275,-898.90887,351.91772,1007.92133,-887.67444,391.94147,922.1571,-840.99335,331.3996,881.23236
35,0.283,-891.36151,353.62442,1007.2121,-880.21228,391.36713,921.18256,-833.30798,331.36188,880.52063
36,0.292,-882.5517,355.07751,1006.66675,-870.84619,393.90979,920.60455,-824.45972,331.99435,879.82098
37,0.3,-875.06866,355.65491,1006.18268,-862.68274,393.95602,920.54468,-816.33057,332.82925,879.7644
38,0.308,-864.70538,357.41522,1006.33698,-853.89154,396.38983,920.41418,-807.19269,335.16559,879.52704
39,0.317,-856.42633,358.71091,1006.47528,-845.52899,396.69464,919.62091,-799.37756,335.12195,879.32843
40,0.325,-847.47632,359.45709,1006.90729,-837.41388,397.3736,920.29034,-790.30353,335.64148,880.07068
41,0.333,-839.55725,360.68079,1006.99298,-828.22125,399.76569,920.89215,-782.18866,337.89468,880.49481
42,0.342,-830.80896,361.96338,1008.45917,-819.36829,399.89954,921.60223,-772.89941,339.37781,881.14655
43,0.35,-821.1178,363.28769,1009.73016,-810.82617,400.47415,922.69543,-764.42859,339.55814,882.41895
44,0.358,-813.11255,364.04276,1010.82477,-801.76617,402.47363,923.21185,-757.10101,339.98956,883.19403
45,0.367,-803.24414,364.03934,1012.22382,-792.12268,402.92941,924.60358,-745.74365,340.98322,885.02435
46,0.375,-794.59094,365.94684,1013.19226,-782.38916,404.35892,926.02124,-737.36774,343.86011,887.0321
47,0.383,-784.99817,368.08939,1013.86963,-774.70111,404.77811,927.95178,-729.05774,342.26807,887.2157
48,0.392,-776.89172,368.63153,1015.69659,-764.94745,406.27502,928.35236,-719.776,342.90244,888.28479
49,0.4,-767.77637,369.30722,1016.13397,-755.29474,406.67447,929.50006,-709.9505,345.37323,889.85083
50,0.408,-759.37079,372.01526,1017.32556,-745.65039,408.83612,929.56421,-701.3255,346.7663,890.05383
51,0.417,-748.34247,373.16608,1018.02472,-736.22723,409.60373,930.56854,-690.79578,347.17746,890.74792
52,0.425,-739.35559,375.24124,1017.94769,-726.29456,410.50952,931.50269,-680.87909,349.65939,892.4751
53,0.433,-729.98059,375.68304,1018.2937,-716.349,411.0329,931.86096,-671.55554,349.87933,892.40643
54,0.442,-719.43848,376.87839,1018.82599,-706.36469,412.81058,932.73029,-662.14362,350.49884,892.73724
55,0.45,-710.77386,377.37082,1020.08313,-696.18781,413.99124,934.13678,-652.16199,351.07611,893.70898
56,0.458,-701.43359,378.13425,1020.57507,-686.26752,413.93747,934.63922,-642.30554,352.15842,895.19067
57,0.467,-691.18573,378.01666,1021.23376,-676.0528,414.23822,935.70044,-633.26538,352.56903,895.5025
58,0.475,-681.38287,378.83499,1022.46576,-665.64661,416.73343,937.45215,-622.61188,353.25916,896.24463
59,0.483,-671.07367,379.7475,1023.57831,-655.6745,416.67374,938.30896,-613.28473,353.61234,898.10101
60,0.492,-662.88995,379.88113,1025.58374,-645.18536,417.43484,939.95544,-604.13239,353.00177,898.97211
61,0.5,-653.10413,379.05286,1026.59314,-635.93689,416.74304,941.70532,-595.63129,353.29681,900.1474
62,0.508,-643.73175,381.16257,1028.33276,-626.37811,418.79666,942.68274,-584.53558,353.85406,902.41394
63,0.517,-634.13,380.98245,1029.39575,-614.97333,418.77475,945.06982,-576.59064,352.58917,904.33624
64,0.525,-626.23444,381.97986,1030.95337,-606.15076,419.96262,945.67871,-567.28192,353.30045,906.02325
65,0.533,-616.64099,382.44894,1032.42529,-595.92743,419.50107,948.01563,-557.71704,354.06055,906.80042
66,0.542,-608.38513,383.18143,1032.85864,-587.15515,420.42532,949.13281,-548.40125,353.60269,908.86078
67,0.55,-598.68506,383.05212,1034.52173,-577.35956,420.53806,949.91791,-538.80597,354.70486,910.29028
68,0.558,-590.64703,382.9693,1035.95093,-567.48309,420.71576,952.37689,-530.17957,353.92383,912.37494
69,0.567,-581.17291,383.6297,1036.24719,-558.90399,421.79407,952.53961,-518.78253,354.40219,913.27338
70,0.575,-573.32147,385.74026,1037.6261,-549.97083,420.7226,953.3797,-509.63831,355.52649,914.91223
71,0.583,-563.55615,385.56964,1039.19397,-540.08752,422.4296,954.96753,-500.81003,354.85727,917.10846
72,0.592,-555.25885,386.78894,1039.3645,-530.43109,421.75134,955.28577,-491.93307,356.75012,917.47754
73,0.6,-546.21716,386.51373,1039.98242,-521.65491,423.79309,955.56097,-482.1095,356.26282,918.97565
74,0.608,-537.56787,388.3674,1040.27075,-511.67407,423.01849,956.67065,-471.86417,355.10751,919.88287
75,0.617,-529.45636,388.14954,1040.85022,-502.68884,422.75473,957.79724,-463.92923,356.01443,920.38031
76,0.625,-520.40234,388.70328,1041.68323,-493.76559,423.08286,958.12244,-454.75504,355.24207,921.45782
77,0.633,-511.31979,387.79669,1041.95032,-484.10025,423.75555,959.12372,-445.42639,356.11697,921.71997
78,0.642,-502.86124,388.14294,1042.60815,-475.40161,423.6929,958.64728,-435.33148,356.39273,922.20917
79,0.65,-493.92941,386.98672,1042.48755,-466.27621,422.93698,958.74103,-426.09686,354.16534,922.42242
80,0.658,-485.41089,387.23166,1042.17224,-456.21942,422.45685,958.99225,-418.72491,353.4838,922.97491
81,0.667,-476.66492,388.31357,1041.74756,-447.09995,422.59387,959.83466,-410.1308,354.9198,922.3335
82,0.675,-467.68954,385.80081,1042.22156,-437.86362,422.77936,959.72778,-401.15103,354.62561,922.59845
83,0.683,-460.1626,386.7789,1041.80115,-428.84186,421.85941,959.47485,-391.01175,352.15042,922.44836
84,0.692,-451.34027,386.19589,1041.12891,-421.27161,421.65939,959.7757,-383.009,353.59866,921.57336
85,0.7,-443.43039,385.56653,1040.61536,-411.30878,422.09573,959.37518,-373.76746,352.79843,921.98199
86,0.708,-434.4158,386.9035,1039.51904,-403.32092,423.25687,959.92865,-364.65091,350.37161,923.59314
87,0.717,-426.78824,385.53802,1040.05481,-393.30695,418.69125,959.68903,-355.28427,351.1091,923.047
88,0.725,-418.0423,385.22943,1039.48401,-385.68954,419.59061,958.8454,-345.93671,350.39694,923.28961
89,0.733,-410.38489,384.28635,1039.53931,-377.23181,419.2598,958.20966,-337.78308,349.37396,923.34338
90,0.742,-401.72253,384.48279,1039.11829,-368.66031,419.80249,958.09912,-329.69455,350.14224,922.82404
91,0.75,-394.76019,384.66272,1037.49634,-360.95822,419.6282,957.21497,-321.00833,348.1246,923.10718
92,0.758,-386.74051,383.9509,1036.87634,-352.13803,417.92776,956.46381,-312.15784,348.11539,922.84052
93,0.767,-378.98868,382.74561,1035.90344,-344.26227,416.81952,955.85181,-303.78934,347.37943,922.27032
94,0.775,-371.24023,381.69443,1034.99316,-336.38745,416.74664,955.74756,-296.5907,348.29681,921.52649
95,0.783,-363.24451,382.6196,1034.20801,-328.04901,416.74661,954.61951,-287.46799,346.0155,921.33685
96,0.792,-356.64148,382.27423,1033.66064,-320.54205,415.02472,953.7395,-279.98648,345.41922,921.16669
97,0.8,-347.23026,379.51688,1032.24475,-312.14941,413.87198,953.02563,-272.15051,344.94882,920.6275
98,0.808,-341.4462,378.78796,1031.54236,-304.60837,414.39642,952.65295,-265.05121,344.43228,919.85492
99,0.817,-332.96991,379.62082,1030.75244,-296.46609,412.11362,951.44879,-256.7193,342.70197,919.17682
100,0.825,-325.1821,377.6557,1030.49365,-289.99341,413.00793,950.50793,-249.33437,342.37808,918.17188
101,0.833,-318.12805,376.78625,1029.82495,-282.23163,410.72006,950.65997,-241.63184,341.73071,916.59314
102,0.842,-310.10175,375.19724,1029.0282,-275.65323,409.84402,949.1698,-234.91362,339.53955,915.73431
103,0.85,-302.82025,374.5704,1028.34033,-267.87424,408.34442,947.82245,-227.83321,339.33801,914.92291
104,0.858,-295.44785,371.46704,1027.54858,-261.60638,406.85654,947.36957,-220.87761,338.37729,914.2016
105,0.867,-288.36365,371.32202,1027.96118,-254.10304,406.84314,947.90552,-212.94231,338.26422,913.58978
106,0.875,-281.25998,369.12317,1028.48792,-247.7653,404.41965,947.8064,-208.16414,335.72235,913.47833
107,0.883,-274.04071,367.7963,1028.81018,-241.43431,403.92365,948.24603,-200.72415,336.46555,913.13422
108,0.892,-267.15497,367.215,1029.59021,-235.24942,402.42322,948.94043,-195.22595,334.93631,913.21606
109,0.9,-261.74091,363.83871,1030.5144,-229.34982,401.33051,949.21405,-188.59428,332.09808,913.33374
110,0.908,-253.85089,363.07809,1030.94153,-222.94118,399.6694,950.08783,-182.44948,332.22641,913.66809
111,0.917,-247.60149,363.55472,1030.93787,-218.34085,399.07663,951.06506,-176.83919,331.9086,914.75562
112,0.925,-240.46753,361.17154,1031.90186,-212.24767,398.14011,951.79144,-170.63463,332.56454,915.60352
113,0.933,-235.66249,360.83975,1034.09778,-206.77698,398.54614,952.99188,-164.87048,329.27176,916.75342
114,0.942,-230.19434,359.60007,1034.76709,-200.81981,396.23734,953.27161,-159.09511,329.83054,916.98199
115,0.95,-223.4446,359.50165,1035.5918,-194.90417,396.10623,954.21497,-153.49127,329.3215,917.56555
116,0.958,-218.38965,358.7496,1035.7373,-188.57068,395.36652,954.91553,-147.61581,329.45383,917.76746
117,0.967,-213.0002,357.91385,1036.90417,-184.03082,395.73495,954.85687,-141.61276,327.89087,918.72217
118,0.975,-204.85384,357.6698,1037.88025,-178.17297,395.5416,954.47949,-134.96107,328.05875,920.16998
119,0.983,-200.28424,357.4176,1038.13135,-172.67622,394.83432,954.38867,-129.23683,328.49173,920.10632
120,0.992,-194.49794,357.99091,1038.54236,-166.77681,393.61343,955.60522,-123.34886,327.71695,920.63855
121,1,-188.80861,357.50232,1038.18457,-161.14302,393.97064,956.203,-117.07147,328.68741,920.55481
122,1.008,-182.03978,356.35577,1039.02515,-155.71581,393.92642,955.97461,-111.71982,327.4845,919.99005
123,1.017,-175.82344,355.74377,1038.32324,-150.16986,394.23889,956.20331,-105.37782,327.95792,920.76715
124,1.025,-170.41304,355.9454,1038.14685,-145.19597,393.9202,956.0752,-99.37858,326.92783,920.7901
125,1.033,-164.49382,355.931,1038.53015,-139.29286,393.95273,955.94244,-93.4062,327.82217,920.12079
126,1.042,-157.84996,354.81802,1038.21631,-133.57376,391.74609,955.63538,-87.9856,327.50775,920.15881
127,1.05,-152.79376,354.47739,1038.29736,-127.73093,392.35321,955.87122,-81.90759,328.36206,920.19855
128,1.058,-146.01974,354.00034,1038.79932,-122.79206,392.46738,956.32867,-76.03283,328.96475,919.70966
129,1.067,-140.13168,353.95798,1039.2793,-115.93346,391.57095,956.37408,-71.23866,328.80511,919.52081
130,1.075,-134.67578,353.64789,1038.17725,-111.2847,392.80652,956.69934,-65.29565,328.04825,919.31372
131,1.083,-129.00577,352.81229,1039.42664,-106.06496,392.37891,956.22253,-60.53801,327.37317,919.18988
132,1.092,-122.54819,352.8331,1039.17737,-100.40409,392.11194,956.0838,-53.51028,327.84753,918.97333
133,1.1,-117.26094,351.24359,1039.42224,-95.14662,391.08099,956.01062,-48.84859,327.82602,918.49219
134,1.108,-111.4164,352.03403,1039.12622,-89.44553,391.85812,956.40009,-43.21376,328.56189,918.39362
135,1.117,-105.8014,351.44705,1039.17078,-84.3577,391.1586,956.20654,-37.73066,328.90503,918.70612
136,1.125,-99.47533,352.24564,1039.41809,-79.43244,391.42139,955.9967,-31.93744,329.51889,918.34644
137,1.133,-94.5876,350.98016,1039.14844,-74.46344,391.77625,955.66895,-26.8335,329.7272,918.21051
138,1.142,-88.71793,352.63608,1039.50012,-69.28717,391.98206,955.87878,-21.68125,330.32547,917.68469
139,1.15,-83.41801,352.0368,1038.90588,-64.17658,392.36606,955.23846,-15.66701,329.89496,917.62823
140,1.158,-77.14248,352.26147,1038.84509,-58.08534,392.32935,954.87738,-10.27179,330.65924,917.13257
141,1.167,-70.41518,352.03381,1038.77441,-52.6671,392.04916,954.46753,-4.13946,330.53253,916.92322
142,1.175,-64.19318,352.63745,1038.92041,-46.75502,391.35718,953.68079,1.66761,331.08371,915.75098
143,1.183,-57.65119,353.20819,1037.64783,-41.17379,392.48352,953.36737,6.96129,330.03278,915.62274
144,1.192,-51.51173,353.97858,1037.76917,-35.84675,393.07715,953.67401,13.65848,331.23846,915.3894
145,1.2,-46.425,352.90106,1036.75269,-29.97355,394.30594,952.7558,19.37294,332.11041,913.85681
146,1.208,-39.94835,353.66245,1036.28845,-24.44443,393.3912,951.9964,25.17956,332.34323,913.67816
147,1.217,-32.72876,355.4115,1035.61353,-17.61822,393.44241,950.70435,31.55031,333.13007,911.45007
148,1.225,-26.94878,354.39957,1034.6001,-10.49868,394.05927,949.27576,38.32818,335.00763,910.81073
149,1.233,-19.27364,355.50232,1033.48645,-4.42537,394.94943,948.09943,45.48745,336.02753,910.15796
150,1.242,-12.06826,355.03876,1032.38025,1.4107,395.18393,947.05701,50.89063,334.65945,908.96411
151,1.25,-5.38344,355.95636,1031.20581,8.99167,395.8107,946.58575,57.79005,334.3399,906.93994
152,1.258,1.14333,356.08029,1030.51953,16.49538,395.5542,945.01984,64.64432,335.60715,905.4364
153,1.267,9.00334,356.63379,1028.12927,23.01618,395.21564,943.37384,71.48038,336.4082,903.55042
154,1.275,16.67586,356.23492,1027.04785,29.62731,396.0593,941.75909,78.04214,335.35126,902.45844
155,1.283,23.97017,357.47192,1026.0564,36.99345,396.84818,940.49518,85.93507,334.56934,901.33856
156,1.292,31.8576,357.4249,1023.62579,45.58336,397.52802,938.84021,93.00474,335.85434,899.11188
157,1.3,39.04375,358.04956,1022.88623,52.53688,398.54373,937.04822,100.76499,336.40381,897.49835
158,1.308,46.71164,358.53387,1021.17468,61.10512,399.2851,935.93005,107.44208,337.23578,895.80658
159,1.317,54.26761,359.16998,1019.34473,68.22001,399.81982,933.48352,116.37664,337.38351,894.18073
160,1.325,62.75499,359.90906,1017.38092,76.26392,401.05862,932.04358,123.89016,337.87256,892.73993
161,1.333,71.56915,360.49435,1015.78418,84.36414,400.85062,929.60547,131.61282,338.20172,890.38898
162,1.342,79.5277,361.42834,1014.09369,92.69395,401.58914,927.88611,139.62286,339.35971,888.80597
163,1.35,88.1294,362.55118,1012.37274,101.95128,402.80069,926.81335,147.07906,340.61533,886.58044
164,1.358,95.98492,363.42419,1010.45367,109.78738,402.39526,924.80609,156.27193,341.27298,884.82556
165,1.367,105.67509,363.54498,1009.61652,117.85627,404.36487,923.33868,164.22942,340.95337,883.2608
166,1.375,113.81923,365.53375,1008.08606,126.07786,404.30475,921.17377,173.01483,342.49393,881.18811
167,1.383,123.28438,366.13672,1006.69574,135.90945,404.91891,919.8349,182.04813,343.3183,879.7962
168,1.392,132.23276,366.75568,1005.33954,144.2179,406.13278,918.63464,191.03633,344.4155,878.36707
169,1.4,141.55995,367.39966,1003.88202,153.56224,406.1203,917.40247,199.46033,344.02975,877.29688
170,1.408,150.11581,368.43625,1002.19904,162.16853,406.76501,916.87799,208.46057,345.33234,876.55255
171,1.417,159.48364,367.99496,1001.84454,172.21016,407.51865,916.31647,217.43759,345.6868,875.40698
172,1.425,168.88031,368.38257,1002.53088,179.85477,406.94986,915.24469,226.59372,346.25238,874.78882
173,1.433,178.44878,369.11288,1001.78345,189.52161,407.85941,915.26312,235.25287,346.07364,874.45746
174,1.442,187.25821,369.02448,1001.46606,198.71591,408.74533,914.8761,244.33194,346.0621,873.91943
175,1.45,197.02144,370.52667,1002.91718,208.7614,408.3671,916.22723,253.3661,346.47034,875.10461
176,1.458,207.31834,370.92807,1003.25665,217.50276,408.33856,916.46185,263.185,346.31766,875.57526
177,1.467,215.77261,370.10657,1004.68079,226.9651,409.44788,918.14789,272.15518,346.69543,875.99951
178,1.475,224.8369,370.47598,1006.01672,236.20177,409.5813,918.45282,280.77084,346.67932,877.67242
179,1.483,233.36981,371.57819,1005.96655,244.95177,409.40604,919.75861,289.70676,347.60803,878.75836
180,1.492,243.18303,371.66898,1008.20709,253.87003,410.15469,921.57031,299.19159,347.67316,880.57166
181,1.5,251.58086,372.34546,1009.01428,262.53421,411.37225,922.16559,308.08295,348.33612,881.69751
182,1.508,259.66931,372.89886,1009.9267,272.48599,411.79257,923.9281,317.4295,348.79956,883.68091
183,1.517,269.33002,373.12991,1010.94092,282.17462,411.08463,924.72028,327.49326,348.66907,883.75122
184,1.525,279.00323,374.19354,1012.59161,292.26361,412.46274,925.02802,336.95874,349.17764,885.2489
185,1.533,288.16275,375.43503,1012.8576,302.36505,412.47171,925.59436,345.69342,350.01822,886.72168
186,1.542,298.4404,377.48715,1013.39288,311.77429,413.96115,925.784,355.77142,350.50638,887.98755
187,1.55,307.57071,376.95813,1014.71979,322.01724,414.42194,927.65845,366.50888,350.16022,887.87982
188,1.558,317.6557,377.53812,1015.15997,332.23834,414.80759,928.61224,375.81192,350.62946,888.23248
189,1.567,328.22177,378.55811,1015.81378,343.02936,414.87979,929.12653,385.36169,351.35587,889.1947
190,1.575,338.19818,378.18481,1016.07275,353.9201,415.32211,929.95538,395.93878,350.71191,890.61218
191,1.583,349.30432,378.62613,1017.67761,363.62311,415.89655,931.56476,405.60071,350.54883,891.45801
192,1.592,358.53055,378.96982,1018.92041,375.12839,414.79312,932.68146,415.18735,349.64426,892.0296
193,1.6,368.33957,378.20554,1019.74982,385.3187,415.22607,933.53967,424.80057,349.26532,892.37335
194,1.608,378.28766,377.4364,1020.98718,396.06946,415.02808,935.1413,434.98682,348.53748,894.46875
195,1.617,387.4165,376.7912,1021.03717,406.32306,414.97739,936.05774,444.10721,348.33331,894.94543
196,1.625,397.88629,376.53571,1023.39581,416.74573,415.38916,937.8089,452.78754,347.74396,895.47174
