Frame#,Time,L.Forearm.x,L.Forearm.y,L.Forearm.z,L.Ulna.x,L.Ulna.y,L.Ulna.z,L.Radius.x,L.Radius.y,L.Radius.z
1,0,437.36002,244.73251,1352.44043,486.03674,289.1853,1303.36133,533.21606,242.03464,1361.40576
2,0.008,437.36002,244.73251,1352.44043,486.03674,289.1853,1303.36133,533.18829,242.16109,1361.26135
3,0.017,437.1832,244.59473,1352.19653,486.03674,289.1853,1303.36133,534.10303,243.52655,1360.40039
4,0.025,437.1832,244.59473,1352.19653,486.03674,289.1853,1303.36133,534.10303,243.52655,1360.40039
5,0.033,437.36002,244.73251,1352.44043,486.03674,289.1853,1303.36133,533.18829,242.16109,1361.26135
6,0.042,437.25024,244.563,1352.70984,486.03674,289.1853,1303.36133,533.4184,242.20262,1361.45239
7,0.05,437.25024,244.563,1352.70984,486.03674,289.1853,1303.36133,534.10645,243.26656,1359.81909
8,0.058,437.25024,244.563,1352.70984,486.03674,289.1853,1303.36133,533.8728,243.48495,1360.20935
9,0.067,437.36002,244.73251,1352.44043,486.03674,289.1853,1303.36133,533.4184,242.20262,1361.45239
10,0.075,437.06378,244.36954,1352.57629,486.03674,289.1853,1303.36133,533.21606,242.03464,1361.40576
11,0.083,437.1832,244.59473,1352.19653,486.03674,289.1853,1303.36133,533.8382,241.78404,1360.90918
12,0.092,437.46713,244.32539,1352.70764,486.03674,289.1853,1303.36133,533.63245,241.87598,1361.44348
13,0.1,437.06378,244.36954,1352.57629,486.03674,289.1853,1303.36133,533.18579,241.45311,1361.03516
14,0.108,436.88696,244.23178,1352.3324,486.03674,289.1853,1303.36133,533.18579,241.45311,1361.03516
15,0.117,436.51318,243.84708,1352.0658,486.03674,289.1853,1303.36133,533.18579,241.45311,1361.03516
16,0.125,437.06378,244.36954,1352.57629,486.03674,289.1853,1303.36133,533.18579,241.45311,1361.03516
17,0.133,437.39746,244.31197,1353.00513,486.03674,289.1853,1303.36133,533.18579,241.45311,1361.03516
18,0.142,437.39746,244.31197,1353.00513,486.03674,289.1853,1303.36133,533.18579,241.45311,1361.03516
19,0.15,436.51318,243.84708,1352.0658,486.03674,289.1853,1303.36133,533.18579,241.45311,1361.03516
20,0.158,436.9216,243.24132,1352.33594,486.03674,289.1853,1303.36133,533.55463,240.53165,1361.04138
21,0.167,437.48782,243.13297,1353.17554,486.03674,289.1853,1303.36133,533.55463,240.53165,1361.04138
22,0.175,437.48782,243.13297,1353.17554,485.64511,288.65842,1303.54846,533.5166,240.32671,1361.24829
23,0.183,436.68604,242.77696,1352.5387,485.64511,288.65842,1303.54846,533.5166,240.32671,1361.24829
24,0.192,436.68604,242.77696,1352.5387,485.64511,288.65842,1303.54846,533.5166,240.32671,1361.24829
25,0.2,437.21677,242.96661,1352.9906,485.64511,288.65842,1303.54846,533.5166,240.32671,1361.24829
26,0.208,437.39349,243.10429,1353.23425,485.64511,288.65842,1303.54846,533.5166,240.32671,1361.24829
27,0.217,436.68604,242.77696,1352.5387,485.64511,288.65842,1303.54846,533.5166,240.32671,1361.24829
28,0.225,436.64227,242.57556,1352.68481,485.64511,288.65842,1303.54846,533.5166,240.32671,1361.24829
29,0.233,437.34976,242.90291,1353.38037,485.64511,288.65842,1303.54846,533.5166,240.32671,1361.24829
30,0.242,437.34976,242.90291,1353.38037,485.6265,288.55917,1303.6886,533.5166,240.32671,1361.24829
31,0.25,436.46555,242.43791,1352.44092,485.6265,288.55917,1303.6886,533.5166,240.32671,1361.24829
32,0.258,436.44409,242.54039,1352.84729,485.6265,288.55917,1303.6886,533.5166,240.32671,1361.24829
33,0.267,437.32846,243.00481,1353.7865,485.98486,287.73196,1303.64038,533.5166,240.32671,1361.24829
34,0.275,437.32846,243.00481,1353.7865,485.98486,287.73196,1303.64038,533.5166,240.32671,1361.24829
35,0.283,437.32846,243.00481,1353.7865,485.98486,287.73196,1303.64038,533.43243,240.64771,1361.6217
36,0.292,437.7316,242.96062,1353.91772,485.98486,287.73196,1303.64038,533.5166,240.32671,1361.24829
37,0.3,437.36023,242.89101,1353.89966,485.98486,287.73196,1303.64038,533.78516,240.1384,1361.69678
38,0.308,437.4899,242.37766,1353.92432,485.98486,287.73196,1303.64038,533.2251,240.83354,1361.68555
39,0.317,437.41129,242.71271,1354.15869,486.26993,287.81131,1304.00354,533.51904,240.2919,1361.98315
40,0.325,437.31323,242.24004,1353.68079,486.40253,287.73618,1304.09729,533.67456,240.3187,1362.05261
41,0.333,437.54092,242.19943,1354.18323,486.26993,287.81131,1304.00354,533.67456,240.3187,1362.05261
42,0.342,437.54092,242.19943,1354.18323,486.26993,287.81131,1304.00354,533.40302,240.68489,1362.13257
43,0.35,437.36429,242.06177,1353.93982,486.40253,287.73618,1304.09729,533.51904,240.2919,1361.98315
44,0.358,437.54092,242.19943,1354.18323,486.40253,287.73618,1304.09729,533.90442,240.36029,1362.24341
45,0.367,437.36429,242.06177,1353.93982,486.40253,287.73618,1304.09729,533.8396,240.38867,1362.24243
46,0.375,437.92212,242.25905,1354.72095,486.242,287.66254,1304.21387,533.90442,240.36029,1362.24341
47,0.383,437.51913,242.3031,1354.58972,486.40253,287.73618,1304.09729,533.59021,240.63998,1362.4259
48,0.392,437.51913,242.3031,1354.58972,486.242,287.66254,1304.21387,534.0907,240.1602,1362.09021
49,0.4,437.453,242.04475,1354.44385,486.242,287.66254,1304.21387,533.90442,240.36029,1362.24341
50,0.408,437.92212,242.25905,1354.72095,486.242,287.66254,1304.21387,533.90442,240.36029,1362.24341
51,0.417,437.62961,242.18237,1354.68726,486.242,287.66254,1304.21387,534.35791,240.16158,1362.25049
52,0.425,437.453,242.04475,1354.44385,486.242,287.66254,1304.21387,534.21997,239.98682,1362.53137
53,0.433,437.62961,242.18237,1354.68726,486.65698,287.47153,1304.56323,534.38562,240.0352,1362.3949
54,0.442,437.453,242.04475,1354.44385,486.7211,286.63483,1304.55359,533.76642,240.18556,1362.52429
55,0.45,437.62961,242.18237,1354.68726,487.01633,286.64444,1304.51526,534.21997,239.98682,1362.53137
56,0.458,437.453,242.04475,1354.44385,487.10333,286.56104,1304.62463,534.21997,239.98682,1362.53137
57,0.467,438.08188,241.81975,1354.4624,487.10333,286.56104,1304.62463,534.21997,239.98682,1362.53137
58,0.475,437.453,242.04475,1354.44385,487.10333,286.56104,1304.62463,534.21997,239.98682,1362.53137
59,0.483,438.03253,242.13831,1354.81836,487.10333,286.56104,1304.62463,534.21997,239.98682,1362.53137
60,0.492,437.94485,241.74388,1354.65308,487.13025,286.47031,1304.74951,534.21997,239.98682,1362.53137
61,0.5,437.94485,241.74388,1354.65308,487.13025,286.47031,1304.74951,534.21997,239.98682,1362.53137
62,0.508,437.94485,241.74388,1354.65308,487.73685,286.02414,1304.65552,534.21997,239.98682,1362.53137
63,0.517,438.39703,241.38136,1354.42822,487.64066,285.84866,1305.02771,534.35413,239.89522,1362.9314
64,0.525,438.19104,240.96497,1354.37549,487.71375,285.0831,1305.36633,534.35413,239.89522,1362.9314
65,0.533,438.19104,240.96497,1354.37549,487.71375,285.0831,1305.36633,534.35413,239.89522,1362.9314
66,0.542,438.19104,240.96497,1354.37549,488.49567,285.81396,1305.19531,534.36877,239.82385,1362.01331
67,0.55,438.21152,240.85225,1354.49121,488.49567,285.81396,1305.19531,534.76025,239.53958,1362.45032
68,0.558,438.21152,240.85225,1354.49121,488.49567,285.81396,1305.19531,534.76025,239.53958,1362.45032
69,0.567,437.55359,241.09033,1354.53687,488.49567,285.81396,1305.19531,534.76025,239.53958,1362.45032
70,0.575,438.21152,240.85225,1354.49121,488.49567,285.81396,1305.19531,534.98352,239.58974,1362.66614
71,0.583,438.21152,240.85225,1354.49121,488.49567,285.81396,1305.19531,534.97363,239.3958,1362.54285
72,0.592,438.21152,240.85225,1354.49121,488.49567,285.81396,1305.19531,534.97363,239.3958,1362.54285
73,0.6,438.21152,240.85225,1354.49121,488.49567,285.81396,1305.19531,534.97363,239.3958,1362.54285
74,0.608,438.19312,240.83424,1354.54932,488.49567,285.81396,1305.19531,534.97363,239.3958,1362.54285
75,0.617,438.31781,240.69542,1354.64893,488.49567,285.81396,1305.19531,534.97363,239.3958,1362.54285
76,0.625,438.19312,240.83424,1354.54932,488.49567,285.81396,1305.19531,535.22467,239.16733,1362.39063
77,0.633,438.31781,240.69542,1354.64893,488.49567,285.81396,1305.19531,535.22467,239.16733,1362.39063
78,0.642,438.31781,240.69542,1354.64893,488.49567,285.81396,1305.19531,535.22467,239.16733,1362.39063
79,0.65,438.31781,240.69542,1354.64893,488.49567,285.81396,1305.19531,535.38757,239.01669,1362.51184
80,0.658,438.35263,240.57457,1354.22131,488.49567,285.81396,1305.19531,535.38757,239.01669,1362.51184
81,0.667,438.35263,240.57457,1354.22131,488.49567,285.81396,1305.19531,535.38757,239.01669,1362.51184
82,0.675,438.35504,240.62683,1354.17981,488.49567,285.81396,1305.19531,535.12231,239.04422,1362.39063
83,0.683,439.02435,240.27394,1354.22766,488.49567,285.81396,1305.19531,535.38757,239.01669,1362.51184
84,0.692,439.0141,240.36307,1354.19275,488.58826,285.54504,1305.34302,535.53583,238.85434,1362.10327
85,0.7,439.0141,240.36307,1354.19275,488.58826,285.54504,1305.34302,535.79047,238.75984,1362.11914
86,0.708,439.02435,240.27394,1354.22766,489.49338,285.41962,1305.09595,536.25159,238.20564,1362.05774
87,0.717,439.18216,240.35219,1354.15454,489.49338,285.41962,1305.09595,536.71289,237.65181,1361.9967
88,0.725,440.01297,240.09689,1354.51428,489.73572,285.0744,1305.11487,536.44788,237.67923,1361.87561
89,0.733,440.48294,240.40997,1354.98071,489.73572,285.0744,1305.11487,536.79547,237.70985,1361.58484
90,0.742,440.14786,240.09401,1354.474,489.73572,285.0744,1305.11487,536.79547,237.70985,1361.58484
91,0.75,440.14786,240.09401,1354.474,489.73572,285.0744,1305.11487,536.79547,237.70985,1361.58484
92,0.758,440.13187,240.20213,1354.44055,489.73572,285.0744,1305.11487,536.79547,237.70985,1361.58484
93,0.767,440.13187,240.20213,1354.44055,490.30704,285.03287,1305.35559,536.79547,237.70985,1361.58484
94,0.775,440.13187,240.20213,1354.44055,490.30704,285.03287,1305.35559,536.79547,237.70985,1361.58484
95,0.783,440.13187,240.20213,1354.44055,490.30704,285.03287,1305.35559,536.79547,237.70985,1361.58484
96,0.792,440.27505,240.17366,1354.67712,490.30704,285.03287,1305.35559,537.28607,237.47096,1361.56128
97,0.8,440.27505,240.17366,1354.67712,490.30704,285.03287,1305.35559,536.79547,237.70985,1361.58484
98,0.808,440.28754,240.06279,1354.72119,490.45868,284.96094,1305.44397,537.28607,237.47096,1361.56128
99,0.817,440.27505,240.17366,1354.67712,490.45868,284.96094,1305.44397,537.47333,237.55963,1361.68872
100,0.825,440.28754,240.06279,1354.72119,490.45868,284.96094,1305.44397,537.47333,237.55963,1361.68872
101,0.833,440.72028,239.22186,1354.6676,490.45868,284.96094,1305.44397,537.47333,237.55963,1361.68872
102,0.842,440.72028,239.22186,1354.6676,490.45868,284.96094,1305.44397,537.47333,237.55963,1361.68872
103,0.85,440.62152,239.56013,1354.68396,490.45868,284.96094,1305.44397,537.72797,237.46519,1361.70447
104,0.858,440.85999,239.18414,1354.66711,490.45868,284.96094,1305.44397,537.54059,237.16202,1361.84241
105,0.867,441.06522,239.16541,1354.94263,490.45868,284.96094,1305.44397,537.54059,237.16202,1361.84241
106,0.875,441.25177,239.0526,1355.00964,490.45868,284.96094,1305.44397,537.54059,237.16202,1361.84241
107,0.883,441.06522,239.16541,1354.94263,490.84155,284.27625,1305.68848,537.76733,237.14801,1362.11877
108,0.892,441.25177,239.0526,1355.00964,490.84155,284.27625,1305.68848,538.37988,236.59393,1362.33069
109,0.9,441.68396,238.91208,1355.15381,490.84155,284.27625,1305.68848,538.9397,234.5489,1363.40479
110,0.908,442.08685,238.867,1355.28516,490.84155,284.27625,1305.68848,538.9397,234.5489,1363.40479
111,0.917,441.68396,238.91208,1355.15381,490.84155,284.27625,1305.68848,539.10291,234.39793,1363.52625
112,0.925,442.08685,238.867,1355.28516,490.84155,284.27625,1305.68848,539.10291,234.39793,1363.52625
113,0.933,442.08685,238.867,1355.28516,490.84155,284.27625,1305.68848,538.89844,234.19276,1364.04944
114,0.942,442.08685,238.867,1355.28516,490.84155,284.27625,1305.68848,538.89844,234.19276,1364.04944
115,0.95,441.68396,238.91208,1355.15381,491.12564,284.21539,1305.69763,538.89844,234.19276,1364.04944
116,0.958,442.08685,238.867,1355.28516,491.12564,284.21539,1305.69763,539.31415,234.03389,1364.08716
117,0.967,442.08685,238.867,1355.28516,491.51349,284.03003,1305.45264,539.31415,234.03389,1364.08716
118,0.975,442.33075,238.4787,1355.49048,491.51349,284.03003,1305.45264,539.31415,234.03389,1364.08716
119,0.983,442.33075,238.4787,1355.49048,492.21121,283.92694,1305.65588,539.31415,234.03389,1364.08716
120,0.992,442.33075,238.4787,1355.49048,492.21121,283.92694,1305.65588,539.31415,234.03389,1364.08716
121,1,441.92798,238.52371,1355.35925,492.7023,283.21631,1306.21387,539.31415,234.03389,1364.08716
122,1.008,442.47134,238.57671,1355.59204,492.7023,283.21631,1306.21387,539.52789,233.89009,1364.17993
123,1.017,441.92798,238.52371,1355.35925,492.7023,283.21631,1306.21387,539.31415,234.03389,1364.08716
124,1.025,442.0686,238.62166,1355.46082,492.7023,283.21631,1306.21387,539.52789,233.89009,1364.17993
125,1.033,442.33075,238.4787,1355.49048,492.7023,283.21631,1306.21387,539.52789,233.89009,1364.17993
126,1.042,442.0686,238.62166,1355.46082,492.7023,283.21631,1306.21387,539.52789,233.89009,1364.17993
127,1.05,442.47134,238.57671,1355.59204,492.7023,283.21631,1306.21387,539.71533,234.19266,1364.04236
128,1.058,442.47134,238.57671,1355.59204,492.7023,283.21631,1306.21387,539.71533,234.19266,1364.04236
129,1.067,442.47134,238.57671,1355.59204,492.7023,283.21631,1306.21387,539.71533,234.19266,1364.04236
130,1.075,442.47134,238.57671,1355.59204,492.7023,283.21631,1306.21387,539.9585,234.16812,1363.77661
131,1.083,442.47134,238.57671,1355.59204,492.7023,283.21631,1306.21387,539.9585,234.16812,1363.77661
132,1.092,442.47134,238.57671,1355.59204,492.7023,283.21631,1306.21387,539.9585,234.16812,1363.77661
133,1.1,442.47134,238.57671,1355.59204,492.7023,283.21631,1306.21387,539.9585,234.16812,1363.77661
134,1.108,442.47134,238.57671,1355.59204,492.7023,283.21631,1306.21387,539.9585,234.16812,1363.77661
135,1.117,442.47134,238.57671,1355.59204,492.7023,283.21631,1306.21387,539.9585,234.16812,1363.77661
136,1.125,442.47134,238.57671,1355.59204,492.7023,283.21631,1306.21387,539.9585,234.16812,1363.77661
137,1.133,442.47134,238.57671,1355.59204,492.7023,283.21631,1306.21387,539.9585,234.16812,1363.77661
138,1.142,442.47134,238.57671,1355.59204,492.88672,283.26077,1306.13623,540.22552,234.16901,1363.93652
139,1.15,442.47134,238.57671,1355.59204,492.88672,283.26077,1306.13623,540.14142,234.16486,1363.7085
140,1.158,442.47134,238.57671,1355.59204,492.88672,283.26077,1306.13623,539.96924,234.4863,1363.05042
141,1.167,442.47134,238.57671,1355.59204,492.88672,283.26077,1306.13623,539.96924,234.4863,1363.05042
142,1.175,442.47134,238.57671,1355.59204,492.88672,283.26077,1306.13623,540.36969,234.39551,1363.61108
143,1.183,442.47134,238.57671,1355.59204,492.88672,283.26077,1306.13623,540.48914,234.28737,1363.09766
144,1.192,442.47134,238.57671,1355.59204,492.88672,283.26077,1306.13623,540.48914,234.28737,1363.09766
145,1.2,442.90707,238.31935,1355.48621,492.75266,283.24863,1305.67358,540.57605,234.58768,1363.25684
146,1.208,442.90707,238.31935,1355.48621,492.97855,283.27951,1305.61182,540.41016,234.70886,1362.8031
147,1.217,442.47134,238.57671,1355.59204,492.97855,283.27951,1305.61182,540.53186,234.77992,1362.68933
148,1.225,443.35391,238.10953,1355.35901,492.97855,283.27951,1305.61182,540.53186,234.77992,1362.68933
149,1.233,443.81711,237.45956,1355.17603,492.97855,283.27951,1305.61182,540.70703,234.49231,1362.4165
150,1.242,443.28275,237.71532,1355.09802,492.97855,283.27951,1305.61182,540.58521,234.63147,1362.52734
151,1.25,443.51697,237.55887,1354.83081,492.97855,283.27951,1305.61182,540.53186,234.77992,1362.68933
152,1.258,444.14581,237.33179,1354.84985,492.97855,283.27951,1305.61182,540.58521,234.63147,1362.52734
153,1.267,444.70734,237.81622,1355.16809,493.97287,283.18134,1305.55139,540.58521,234.63147,1362.52734
154,1.275,444.50128,237.3992,1355.11536,493.97287,283.18134,1305.55139,540.82019,234.76346,1362.83264
155,1.283,444.32449,237.26282,1354.87183,493.97287,283.18134,1305.55139,540.58521,234.63147,1362.52734
156,1.292,444.50128,237.3992,1355.11536,493.97287,283.18134,1305.55139,540.58521,234.63147,1362.52734
157,1.3,445.11053,237.77014,1355.29968,493.97287,283.18134,1305.55139,540.63477,234.35249,1362.82129
158,1.308,444.70734,237.81622,1355.16809,494.18234,283.12387,1305.61462,541.70508,234.27174,1362.68677
159,1.317,444.70734,237.81622,1355.16809,494.18234,283.12387,1305.61462,540.90179,234.26613,1362.84814
160,1.325,444.70734,237.81622,1355.16809,494.34625,283.05817,1305.69336,540.97986,234.30872,1362.9613
161,1.333,444.70734,237.81622,1355.16809,494.34625,283.05817,1305.69336,541.24689,234.22235,1362.98816
162,1.342,444.53055,237.67981,1354.92456,494.48007,283.07019,1306.15564,541.41272,234.10118,1363.44189
163,1.35,444.70734,237.81622,1355.16809,494.48007,283.07019,1306.15564,541.92029,233.87172,1363.43433
164,1.358,445.11053,237.77014,1355.29968,494.48007,283.07019,1306.15564,541.41272,234.10118,1363.44189
165,1.367,444.70734,237.81622,1355.16809,494.74127,283.05438,1306.15649,541.41272,234.10118,1363.44189
166,1.375,444.91254,237.798,1355.44373,494.70377,282.36664,1306.46167,541.41272,234.10118,1363.44189
167,1.383,445.31573,237.75191,1355.57532,494.74127,283.05438,1306.15649,541.30255,234.27701,1363.60706
168,1.392,444.91254,237.798,1355.44373,495.23135,281.90265,1306.49133,541.30109,233.88979,1363.78918
169,1.4,444.91254,237.798,1355.44373,495.23135,281.90265,1306.49133,541.20813,233.81564,1363.91675
170,1.408,445.25104,236.95067,1355.74463,494.96664,281.92813,1306.48474,541.44727,233.80795,1364.44202
171,1.417,445.13321,237.63002,1356.06567,495.23135,281.90265,1306.49133,541.20813,233.81564,1363.91675
172,1.425,445.01593,237.10437,1355.88184,495.23135,281.90265,1306.49133,541.20813,233.81564,1363.91675
173,1.433,444.18665,237.24057,1355.58276,495.23135,281.90265,1306.49133,541.20813,233.81564,1363.91675
174,1.442,444.97382,237.36232,1356.13562,494.8746,282.02414,1306.72192,541.21661,233.75793,1364.646
175,1.45,445.43097,237.03532,1356.03174,494.8746,282.02414,1306.72192,541.21661,233.75793,1364.646
176,1.458,445.54144,236.96104,1356.3551,494.70316,281.96295,1306.81531,541.0589,233.97887,1364.43567
177,1.467,445.54144,236.96104,1356.3551,494.81509,281.62476,1306.98022,541.21661,233.75793,1364.646
178,1.475,445.49261,237.2782,1356.71106,494.81509,281.62476,1306.98022,541.21661,233.75793,1364.646
179,1.483,445.00278,237.19991,1356.51147,494.81509,281.62476,1306.98022,541.21661,233.75793,1364.646
180,1.492,445.54144,236.96104,1356.3551,494.82339,281.49469,1307.14331,541.25366,233.56165,1364.93616
181,1.5,445.38977,237.25922,1356.76184,494.82339,281.49469,1307.14331,541.18549,233.82816,1365.1886
182,1.508,445.38977,237.25922,1356.76184,494.83261,280.79071,1307.52441,541.18549,233.82816,1365.1886
183,1.517,444.58337,237.35156,1356.49854,494.83261,280.79071,1307.52441,541.18549,233.82816,1365.1886
184,1.525,445.00278,237.19991,1356.51147,494.57501,281.53928,1307.11108,541.18549,233.82816,1365.1886
185,1.533,444.76047,237.4872,1356.74231,494.41684,281.74796,1307.7594,541.18549,233.82816,1365.1886
186,1.542,444.76047,237.4872,1356.74231,495.17239,281.82477,1308.11426,540.93475,234.05655,1365.34021
187,1.55,444.76047,237.4872,1356.74231,495.04178,280.95398,1308.57178,541.0202,233.77986,1365.32471
188,1.558,444.53329,237.6096,1356.87378,495.04178,280.95398,1308.57178,540.39984,234.1992,1365.38635
189,1.567,444.53329,237.6096,1356.87378,495.04178,280.95398,1308.57178,540.76947,234.00829,1365.47644
190,1.575,443.95337,237.51938,1356.49878,494.92581,280.88309,1308.68103,540.76947,234.00829,1365.47644
191,1.583,443.26593,237.5603,1356.65759,494.92581,280.88309,1308.68103,540.39459,234.05681,1365.56409
192,1.592,443.26593,237.5603,1356.65759,494.92581,280.88309,1308.68103,540.35718,233.85146,1365.77039
193,1.6,444.10089,237.75014,1356.72961,494.53387,281.30505,1308.79065,540.16504,233.8969,1365.79016
194,1.608,443.31488,237.24292,1356.30164,494.53387,281.30505,1308.79065,540.16504,233.8969,1365.79016
195,1.617,442.94455,237.52466,1356.38074,494.53387,281.30505,1308.79065,540.16504,233.8969,1365.79016
196,1.625,442.81296,237.99113,1356.84131,494.47388,281.2197,1308.91577,540.16504,233.8969,1365.79016
