Frame#,Time,R.Forearm.x,R.Forearm.y,R.Forearm.z,R.Ulna.x,R.Ulna.y,R.Ulna.z,R.Radius.x,R.Radius.y,R.Radius.z
1,0,108.52551,-345.4068,990.63873,166.25444,-401.67853,937.08838,257.53992,-364.94229,983.30219
2,0.008,109.7113,-345.50333,989.23352,165.70889,-401.95456,935.32495,258.42239,-363.04288,978.82556
3,0.017,109.72777,-343.23724,986.79608,166.17984,-401.46802,932.60077,258.58063,-361.91245,973.95026
4,0.025,110.30393,-341.99994,985.2373,166.55435,-401.0195,931.36639,259.52524,-361.12146,969.6004
5,0.033,111.97564,-341.28256,983.64532,165.67261,-400.87906,929.04736,260.21729,-361.51004,965.95032
6,0.042,112.84776,-339.73074,982.24738,165.90572,-400.79803,926.99139,260.82458,-359.59219,961.95593
7,0.05,113.05553,-338.46484,979.96313,165.76561,-400.74734,925.85596,260.33029,-359.55539,959.16168
8,0.058,113.88793,-338.12881,978.64093,165.26788,-401.36511,924.14063,260.95981,-359.1394,956.57434
9,0.067,114.2079,-337.34402,976.82391,165.06369,-400.30789,922.60895,260.80527,-360.22696,953.45715
10,0.075,114.93591,-336.67578,975.25037,164.70689,-400.16852,921.24316,260.49643,-358.5101,952.29388
11,0.083,114.33283,-336.44125,974.12195,164.36559,-400.96021,919.43317,260.71887,-359.34506,950.45245
12,0.092,114.40801,-337.07007,972.84418,163.88889,-401.43024,918.14124,260.49521,-359.88068,949.25873
13,0.1,113.67366,-338.2579,972.09271,163.98611,-400.51056,916.36395,261.32062,-359.86847,948.52429
14,0.108,113.20329,-338.82602,971.41339,163.60863,-400.93567,914.6192,259.52942,-361.27448,948.88574
15,0.117,112.23656,-339.52206,970.58374,163.03046,-401.55011,913.46838,258.7659,-362.00073,949.17438
16,0.125,111.92091,-340.78833,970.0531,162.77634,-401.7374,912.08215,257.39267,-362.34421,949.23645
17,0.133,111.09528,-341.9754,969.45953,162.61504,-402.43362,911.66724,257.11465,-363.1391,949.35803
18,0.142,110.29432,-342.59601,968.78961,162.18158,-402.29449,910.12738,256.29108,-363.74866,949.06866
19,0.15,109.72435,-344.17337,968.698,162.00185,-401.71918,909.1488,256.32294,-364.29889,948.9632
20,0.158,108.73217,-344.93451,968.4884,162.47627,-402.00845,908.28516,256.26938,-364.75916,949.06653
21,0.167,108.94772,-345.64862,967.33289,162.45084,-402.08176,906.70477,256.22092,-364.88889,947.68677
22,0.175,109.08653,-345.69446,966.75525,162.05174,-402.01523,905.66833,256.98352,-365.1781,945.51727
23,0.183,109.40538,-345.66748,965.73212,162.1308,-401.75473,904.89398,257.50711,-364.21353,942.45697
24,0.192,110.80406,-345.15408,964.16602,162.6268,-400.16888,903.32794,258.50171,-362.30795,938.69049
25,0.2,111.7039,-344.49557,962.07111,163.5498,-399.3989,901.29999,258.66809,-361.22272,935.51025
26,0.208,112.62731,-343.1846,960.84607,163.67719,-398.40146,899.97443,259.05853,-358.98904,930.2572
27,0.217,113.02587,-341.617,959.27478,163.88222,-398.85333,899.18707,259.59778,-357.04831,925.87195
28,0.225,114.82741,-338.79614,957.89508,164.215,-397.62,898.51355,260.0654,-354.59763,923.78052
29,0.233,115.51265,-336.70099,956.17084,164.87666,-397.21478,898.96234,260.0325,-354.49792,922.0647
30,0.242,116.07712,-335.54416,955.86237,165.18219,-397.02225,899.53601,261.12711,-353.54459,921.13983
31,0.25,117.27641,-333.51431,955.47992,164.88057,-396.9433,900.53662,261.62402,-352.60345,921.19476
32,0.258,117.79358,-331.16809,954.66278,164.76761,-396.70792,901.78241,261.28027,-351.99164,922.2713
33,0.267,117.74952,-329.52008,954.64789,165.06555,-396.43353,902.3526,261.31189,-351.03592,923.90863
34,0.275,117.36505,-329.0105,954.76593,165.19247,-396.17996,902.67609,260.88379,-350.76721,924.74878
35,0.283,116.63378,-329.51035,955.05566,165.22577,-396.06253,902.32593,259.93613,-350.65356,927.03918
36,0.292,116.10751,-329.93222,955.20752,165.25352,-396.04294,901.37799,259.87103,-350.55103,928.10883
37,0.3,115.32724,-331.95145,955.29529,165.13129,-394.20908,899.90002,260.21997,-350.88068,929.70721
38,0.308,114.61228,-334.03387,955.12866,165.51111,-394.21506,898.62592,260.3757,-352.03015,930.15735
39,0.317,114.27465,-336.42282,954.55798,166.08723,-393.34958,896.70532,260.55389,-351.33063,929.86566
40,0.325,114.16885,-336.78497,953.9151,166.56027,-393.40939,894.9292,260.87662,-351.15704,929.43701
41,0.333,114.74566,-337.00616,953.1322,167.45735,-391.6398,893.63831,260.66907,-348.92877,927.36658
42,0.342,115.2729,-336.58011,951.92023,168.99977,-390.52689,891.82166,262.08286,-347.18756,925.78772
43,0.35,115.56432,-335.25259,950.34985,169.27776,-389.39136,890.97632,262.60086,-345.53128,923.19788
44,0.358,116.06604,-334.10312,948.95819,169.19513,-388.03201,890.24927,262.24759,-341.48676,919.30524
45,0.367,116.67684,-331.95132,947.47064,170.39522,-387.15582,889.06989,262.93692,-339.25635,916.43707
46,0.375,117.26171,-330.21875,946.46143,171.51901,-385.71841,888.44836,263.68057,-337.23553,913.38239
47,0.383,118.62833,-327.99396,945.15936,171.61969,-384.40839,887.66132,263.64966,-335.91068,910.83105
48,0.392,120.00107,-326.24347,943.90808,172.46149,-383.55786,886.43542,265.1124,-333.67294,907.09869
49,0.4,121.37001,-324.62833,942.39209,172.73216,-382.26105,885.52759,265.0799,-330.74277,904.7403
50,0.408,122.14838,-321.33746,940.65771,173.73097,-381.26443,884.46851,266.52179,-329.96936,901.62073
51,0.417,123.21024,-319.80045,939.41364,174.57646,-379.36957,883.29169,267.73044,-328.13553,899.96582
52,0.425,124.20639,-318.41025,938.43115,174.56398,-379.15436,882.62872,267.7995,-325.70248,896.1842
53,0.433,125.15053,-317.2146,936.9422,175.03098,-376.62817,880.54437,269.20267,-325.42358,895.62799
54,0.442,125.49135,-315.80212,935.90881,175.67676,-375.87408,879.07904,269.22778,-323.3804,894.7229
55,0.45,125.8809,-313.68719,934.34003,176.34479,-374.20493,877.77667,270.1814,-321.29507,893.75989
56,0.458,125.98135,-312.9697,933.15607,176.65326,-373.86118,877.30908,270.17786,-319.44052,892.9093
57,0.467,125.87636,-312.98148,933.03326,176.63695,-373.56744,876.29718,270.39459,-318.7876,893.05121
58,0.475,126.03559,-312.02841,932.63953,177.44926,-371.59851,874.40765,270.7934,-317.80457,893.1355
59,0.483,126.00817,-311.97852,932.52124,178.45494,-371.08749,873.57568,270.59302,-317.85632,894.52448
60,0.492,125.80791,-311.96359,932.34705,178.10942,-369.68634,873.37872,271.31403,-316.31866,895.09979
61,0.5,125.71873,-312.10324,932.28259,178.34431,-368.62112,872.34857,271.5621,-315.75885,895.81427
62,0.508,125.71873,-312.10324,932.28259,178.51746,-367.28458,871.68262,271.28107,-314.58847,895.26764
63,0.517,125.71873,-312.10324,932.28259,179.65056,-366.1568,871.25824,271.39749,-313.65149,895.13586
64,0.525,125.83586,-312.12381,931.35168,180.49702,-363.83649,870.24719,271.17239,-311.88193,894.34528
65,0.533,126.26859,-311.66895,930.42963,180.77425,-364.12112,869.08752,271.88782,-310.81613,892.83282
66,0.542,127.12486,-311.08252,928.59167,181.32809,-363.37387,867.49377,272.53802,-308.314,890.41583
67,0.55,128.56023,-310.28018,927.89758,181.72887,-360.52725,866.78467,272.85608,-307.21625,887.00897
68,0.558,129.45746,-308.38385,925.9458,182.45822,-358.79102,865.18524,273.59857,-304.95963,882.00403
69,0.567,131.12576,-305.43607,924.88525,182.90611,-358.70355,862.89954,274.1311,-302.73462,877.67041
70,0.575,132.41745,-303.61523,922.19647,183.6299,-357.56488,861.6554,274.12833,-301.02545,873.78864
71,0.583,133.02811,-303.0354,920.57074,183.94252,-357.03577,859.76605,274.3371,-300.32678,869.45953
72,0.592,134.15932,-301.4462,918.50037,184.30208,-355.19507,858.36169,274.44312,-298.72321,865.85535
73,0.6,134.55571,-299.42038,916.43268,184.62003,-354.62567,856.1781,274.5463,-297.26053,864.66858
74,0.608,135.05472,-298.39612,914.88373,185.4752,-354.10089,855.9718,274.91122,-296.07153,863.32568
75,0.617,135.6575,-296.6467,913.56488,185.59151,-352.62311,855.67096,275.5585,-294.33151,863.64337
76,0.625,135.37885,-294.58966,913.00635,186.10242,-353.34552,855.01025,275.914,-293.8161,864.85913
77,0.633,135.29192,-294.56049,912.70245,186.03981,-351.71527,855.17896,275.81003,-292.15802,866.03394
78,0.642,134.82503,-293.55865,912.64581,185.8235,-350.07507,854.80072,276.15231,-291.97876,867.8205
79,0.65,134.19647,-293.41959,912.65833,185.9735,-349.93884,854.27649,275.34818,-291.7749,870.07861
80,0.658,133.61298,-294.64279,912.70294,185.87189,-350.00711,853.89294,275.14139,-291.55981,870.68097
81,0.667,131.8862,-296.04721,913.01898,185.41251,-347.55615,852.6748,275.26053,-290.64539,872.52264
82,0.675,132.28273,-296.65311,912.92682,185.47896,-347.82739,850.7348,275.36374,-291.68262,873.4787
83,0.683,131.69138,-298.63354,912.55011,186.53072,-346.94608,849.21515,275.51541,-290.80789,873.43292
84,0.692,132.08925,-299.20679,911.0542,186.49425,-346.78293,847.48486,275.43802,-291.20554,873.35211
85,0.7,132.7462,-299.08099,910.1424,187.37398,-344.33603,844.33173,276.66901,-288.3952,870.54761
86,0.708,132.66286,-298.37625,909.20825,187.69629,-342.92908,843.27936,276.23691,-287.90448,869.08075
87,0.717,133.00905,-296.6366,906.96588,188.46185,-341.2204,841.6925,276.18909,-285.39572,865.44287
88,0.725,134.28172,-295.4985,905.20074,188.68857,-339.69397,840.02667,275.51791,-281.88684,862.45813
89,0.733,134.65871,-292.97208,903.74744,189.2626,-337.83466,838.63458,276.62885,-279.3595,858.4834
90,0.742,135.39711,-291.47424,902.19556,189.22382,-337.28787,837.67456,276.7373,-277.71478,854.38867
91,0.75,135.9823,-288.80835,900.96558,190.07294,-335.44641,836.38519,275.48975,-275.022,849.91772
92,0.758,136.99155,-285.86292,899.6214,190.10043,-333.73318,835.51666,275.79843,-272.77045,846.10248
93,0.767,138.06418,-284.00327,897.57391,190.31645,-332.87106,834.45581,276.6918,-271.07877,842.27209
94,0.775,139.16661,-281.7327,896.64709,190.62697,-331.80121,832.80249,276.72733,-269.66983,839.74384
95,0.783,139.62827,-278.14136,895.34155,191.01582,-330.43744,831.49182,276.81549,-265.9389,835.81946
96,0.792,141.05005,-276.19775,894.26257,191.56114,-328.84262,830.96881,277.71301,-265.19443,833.18994
97,0.8,141.51962,-274.69531,892.33478,192.06387,-328.3595,829.83514,277.67722,-263.94638,831.30103
98,0.808,141.8802,-273.38995,891.40619,192.07661,-326.57175,828.68573,277.11743,-262.53079,829.83875
99,0.817,142.46507,-271.88361,890.5022,192.0748,-326.4263,828.00244,277.53302,-260.53268,829.47931
100,0.825,142.46173,-271.36923,889.95001,192.96124,-325.94449,827.09454,278.2373,-259.36789,829.25012
101,0.833,142.55479,-270.71988,889.04248,193.03131,-324.198,826.16223,278.29761,-258.20602,829.82733
102,0.842,142.55479,-270.71988,889.04248,192.931,-323.49277,825.55005,279.85547,-257.96176,831.664
103,0.85,142.61256,-271.13632,889.54034,193.2077,-322.94049,825.36707,279.76001,-257.91467,833.66968
104,0.858,142.41324,-271.32544,889.86591,194.00751,-322.40289,824.9491,280.11267,-256.40329,834.05219
105,0.867,142.05022,-271.69522,890.09412,194.02364,-321.67969,824.46216,280.358,-256.62579,835.15088
106,0.875,142.14984,-273.40671,890.87128,194.63829,-320.62875,823.56757,280.16638,-256.34702,837.66278
107,0.883,142.21101,-273.54404,891.02521,194.64174,-319.42633,823.48047,280.89563,-256.30655,838.32727
108,0.892,142.27454,-274.59512,891.54181,195.27254,-318.47626,823.14655,281.33707,-255.79182,839.32843
109,0.9,142.95398,-274.6348,891.52203,195.46637,-317.91699,822.71466,281.371,-254.12418,838.75012
110,0.908,143.0302,-274.13098,891.35107,196.24239,-316.54315,822.21057,281.86472,-253.50957,838.02979
111,0.917,143.47823,-272.87692,890.82074,196.70671,-314.9227,821.58038,282.66583,-251.81268,835.29694
112,0.925,144.21094,-271.74619,890.09589,197.1644,-313.87445,820.83569,281.78915,-249.27818,832.68237
113,0.933,145.47975,-269.47528,889.04742,197.29106,-313.35547,820.43335,282.43933,-247.93806,828.35291
114,0.942,146.86942,-267.98993,888.26074,197.25069,-311.71542,819.65289,281.18765,-245.80692,824.00031
115,0.95,147.37819,-264.27429,886.47968,197.91988,-310.82233,819.5332,281.40021,-242.64998,821.47424
116,0.958,148.21419,-261.52844,885.74323,198.57858,-308.995,818.68768,280.82843,-239.90746,818.55084
117,0.967,149.34181,-258.64032,884.29492,199.5824,-307.84363,819.25891,280.95148,-237.5995,816.76849
118,0.975,149.78572,-257.4613,884.0965,200.80931,-307.25519,820.08655,281.24319,-235.46587,816.40039
119,0.983,150.26839,-254.3118,883.93372,201.68677,-306.10828,821.49017,282.33408,-233.94855,816.87177
120,0.992,150.57205,-251.11969,883.73297,201.89314,-305.43546,823.966,282.41776,-232.33322,817.76947
121,1,150.59581,-250.028,884.16907,203.45471,-304.14603,825.23932,283.02124,-230.91064,819.82281
122,1.008,150.97441,-246.03862,884.77863,203.65549,-303.31979,825.99945,283.07126,-230.24251,821.68311
123,1.017,151.06712,-247.01819,886.45563,203.9883,-302.992,826.44977,283.34088,-229.15404,822.82898
124,1.025,151.0405,-247.02478,886.85291,203.52098,-301.67673,826.87854,283.31677,-228.21072,825.93317
125,1.033,151.13548,-247.49275,887.56989,204.01801,-300.86108,826.53741,283.94257,-227.67018,827.05817
126,1.042,151.14789,-248.18204,888.06866,204.50964,-299.34134,826.39233,283.68073,-225.88106,827.65771
127,1.05,151.00961,-248.10484,888.5495,205.19083,-298.00577,826.05194,284.29544,-224.90578,828.98218
128,1.058,151.38127,-248.84296,889.12939,206.41585,-296.36304,825.45581,284.871,-223.6523,828.65118
129,1.067,152.08899,-248.65964,888.94836,206.43402,-294.6438,823.76538,285.58478,-221.85201,828.01654
130,1.075,152.64223,-247.78833,888.5556,206.91852,-293.6951,822.87195,285.0744,-218.71529,826.21967
131,1.083,152.85017,-248.1429,888.46747,208.35411,-291.76859,822.05328,285.38736,-217.81123,825.72845
132,1.092,153.37184,-245.99922,887.63141,208.48901,-290.99307,821.26587,285.64172,-214.59166,822.47137
133,1.1,154.87517,-243.78831,886.03394,208.93399,-287.50104,820.23096,285.85229,-211.29413,820.664
134,1.108,154.78789,-240.39874,885.05524,209.68483,-285.92618,819.86505,285.4917,-208.181,816.91248
135,1.117,155.92238,-237.94592,883.57507,210.30888,-284.48843,819.15149,284.13956,-205.04236,814.00598
136,1.125,155.67177,-235.33109,882.97845,211.52211,-282.0148,818.63965,283.86081,-202.95621,810.44226
137,1.133,156.35097,-232.50154,881.38495,211.87323,-280.34589,818.19995,282.46414,-203.3187,807.42004
138,1.142,156.61404,-229.72607,880.65277,211.95708,-278.47733,817.15326,282.25912,-200.93935,804.07849
139,1.15,156.97479,-227.9865,880.10919,211.86116,-278.13184,817.16888,282.65994,-198.00879,802.50836
140,1.158,158.35812,-224.92476,878.89984,213.52431,-275.31259,816.16931,281.76373,-197.39975,799.40515
141,1.167,158.70076,-222.40781,877.83112,213.90558,-274.19742,815.29761,282.03091,-196.12872,798.38019
142,1.175,158.88795,-220.46158,876.57794,213.2074,-272.76962,815.27252,282.1669,-189.09921,797.22699
143,1.183,159.38649,-219.13512,876.28284,214.25842,-268.75049,814.60449,281.3179,-188.1283,796.95349
144,1.192,159.27536,-218.34915,876.04236,214.90475,-266.96051,814.31299,280.27216,-188.45822,796.86346
145,1.2,158.88957,-216.81956,875.80103,215.20628,-264.63443,814.68622,281.2793,-184.06696,797.81677
146,1.208,160.0007,-215.3492,878.09583,216.41414,-263.01874,814.87463,282.39386,-179.31694,800.33527
147,1.217,158.76166,-212.24854,875.61194,216.78206,-260.49634,814.90692,281.99893,-178.60873,801.7215
148,1.225,158.6916,-211.43152,875.88202,216.91518,-258.68082,815.69696,282.85031,-175.86456,803.31268
149,1.233,158.46295,-211.45041,877.2522,217.95695,-256.24524,816.35406,283.23422,-171.83028,807.76062
150,1.242,158.79575,-211.30038,877.99866,218.69339,-255.19447,816.26093,284.35376,-170.43811,810.79626
151,1.25,159.49161,-210.67221,878.54993,219.17012,-252.79218,816.08038,284.72565,-167.97639,812.24872
152,1.258,159.58325,-210.21094,879.45966,219.61525,-250.54713,815.64642,284.91925,-166.3268,812.52502
153,1.267,160.41365,-209.8237,879.2348,220.3546,-248.0489,814.17554,284.7045,-163.68257,811.5658
154,1.275,160.89278,-209.64456,878.78827,219.95697,-246.91931,813.20544,285.29758,-161.0647,808.30835
155,1.283,161.52522,-206.76419,877.07385,221.28087,-243.62434,811.37183,285.26514,-158.32025,805.72632
156,1.292,161.8582,-204.36417,875.25757,221.85504,-241.81868,810.78754,284.88046,-155.83113,801.25067
157,1.3,162.39417,-202.20764,873.9024,221.80725,-239.36249,810.02545,283.38272,-153.19885,798.30029
158,1.308,162.56787,-198.76012,872.92963,222.48038,-235.92224,809.3468,281.81552,-149.94574,795.15204
159,1.317,163.80862,-196.9922,872.33643,222.90288,-234.66281,809.05872,280.1124,-148.37399,792.56165
160,1.325,163.013,-192.43498,870.27899,223.828,-232.48474,808.8335,280.46945,-144.71812,790.25488
161,1.333,163.57321,-189.90492,868.43237,224.7968,-229.80128,808.15167,279.18753,-143.5051,789.9566
162,1.342,163.54489,-187.82733,867.77484,225.52589,-228.12837,808.35437,279.08859,-140.13623,787.35162
163,1.35,163.22983,-182.97499,866.84943,225.92787,-225.94279,809.63483,279.33469,-136.51065,788.2323
164,1.358,162.34821,-181.24245,866.48389,227.20467,-223.5027,812.03107,279.01563,-134.00798,788.99561
165,1.367,162.1089,-177.85797,867.11426,228.14261,-221.49884,812.93335,279.87277,-131.01689,789.51776
166,1.375,161.64801,-175.58943,867.87573,227.97746,-218.8904,814.17139,278.99026,-126.94973,791.80121
167,1.383,161.28621,-174.26602,869.58392,228.26288,-215.84555,815.06207,279.27539,-123.25478,794.89685
168,1.392,160.90916,-173.00656,870.8266,228.29253,-214.78206,816.77228,277.52875,-122.30081,798.57971
169,1.4,160.16135,-171.88042,871.75037,229.22897,-212.61792,817.59985,277.71036,-116.59609,799.43933
170,1.408,160.72705,-171.18013,873.85828,229.39299,-210.75197,817.961,277.38174,-116.65011,803.96143
171,1.417,161.31833,-171.32748,875.26678,229.52438,-209.31802,818.58051,277.64023,-114.41884,804.79651
172,1.425,161.7413,-171.43332,877.32257,230.33882,-208.1212,818.92615,277.32657,-113.92088,806.94238
173,1.433,162.04303,-171.13916,878.28986,231.5981,-205.62346,818.94464,278.70419,-110.05397,808.54169
174,1.442,162.48529,-170.89677,879.41815,231.83577,-202.80208,819.33588,278.86063,-109.07539,808.89655
175,1.45,163.20293,-170.69029,880.18756,232.13324,-201.39856,819.30231,278.44791,-107.77208,810.82831
176,1.458,163.36552,-170.09799,880.71063,233.02692,-199.96275,819.43494,278.7551,-101.45882,812.63184
177,1.467,164.16574,-168.51091,880.97595,233.17525,-198.55057,819.2608,279.0307,-101.40094,810.71539
178,1.475,164.79134,-167.17697,880.31006,233.59338,-195.87793,819.07343,278.14655,-99.56557,809.70514
179,1.483,164.40411,-164.06311,880.00317,233.60432,-194.24313,819.19904,277.24234,-98.55222,807.11371
180,1.492,164.15091,-162.87305,878.47205,233.57852,-192.08936,817.57642,275.40872,-95.25582,803.47644
181,1.5,164.43709,-160.62646,876.67627,233.65027,-190.75822,817.28717,272.82242,-91.55058,801.09778
182,1.508,163.63797,-158.15927,876.17078,233.87518,-188.0497,816.72522,271.79196,-90.1273,798.26672
183,1.517,163.14546,-155.48843,875.16974,234.46106,-186.72537,817.04565,270.15491,-88.32772,795.38129
184,1.525,163.25537,-154.31412,873.89209,234.28517,-183.89824,817.16748,267.97028,-86.65429,792.94775
185,1.533,162.71785,-151.08588,873.25793,234.20006,-182.37421,816.89319,267.57486,-85.92062,791.45215
186,1.542,162.88715,-148.35609,872.81732,235.49153,-179.87054,817.07684,268.53964,-83.63409,790.65002
187,1.55,162.48726,-146.4817,871.5733,234.75063,-177.18976,817.53497,268.04727,-79.57175,790.21643
188,1.558,161.3672,-143.80789,870.79681,235.29115,-175.68228,817.84552,267.52417,-78.72936,789.97583
189,1.567,160.90962,-141.54286,869.94043,235.28777,-174.13618,818.71753,267.72754,-78.14606,790.8407
190,1.575,160.42581,-138.70799,870.03894,235.73766,-172.24248,820.55817,268.25653,-73.81348,791.36017
191,1.583,160.54335,-137.14745,871.55682,235.76492,-170.71085,820.87573,268.69229,-72.21944,794.11072
192,1.592,160.19994,-136.82144,872.21686,235.77278,-169.57837,821.12225,268.76135,-71.21964,797.23462
193,1.6,160.04633,-136.53639,872.99634,235.60239,-167.62009,821.79199,269.64697,-69.15633,801.07355
194,1.608,160.2614,-136.27971,873.60187,235.73604,-166.92316,821.80109,269.02209,-66.76585,803.8078
195,1.617,160.29428,-136.34448,875.50537,235.5305,-166.27078,821.84485,270.06885,-65.02648,806.86865
196,1.625,161.15143,-136.92854,877.27527,236.11699,-165.43877,821.30267,270.58862,-63.52545,809.87024
197,1.633,163.05756,-137.34175,877.90155,235.84819,-163.04398,819.7865,270.75696,-61.93597,810.25549
