Frame#,Time,L.Forearm.x,L.Forearm.y,L.Forearm.z,L.Ulna.x,L.Ulna.y,L.Ulna.z,L.Radius.x,L.Radius.y,L.Radius.z
1,0,1639.24048,197.08798,1043.51917,1641.87207,153.5148,978.6311,1580.1615,206.37437,974.9776
2,0.008,1631.70984,196.5386,1043.20728,1636.05127,153.01662,978.95538,1572.8573,206.53017,974.13037
3,0.017,1627.5708,195.57355,1042.38904,1628.91199,154.95238,977.12634,1566.90295,206.47887,973.38489
4,0.025,1620.1969,196.05577,1041.71741,1623.16541,154.16666,976.62866,1561.20398,206.45995,972.33014
5,0.033,1612.42004,196.595,1041.40894,1618.58301,154.40215,976.89319,1554.03638,207.07289,972.17303
6,0.042,1606.51721,197.98441,1040.70203,1611.04529,155.18018,976.22021,1547.74438,207.16716,971.04871
7,0.05,1601.26746,195.77319,1039.52454,1605.4873,154.45844,974.45563,1542.4624,205.07576,970.27435
8,0.058,1593.6123,196.96056,1039.80444,1599.9834,154.22563,973.79321,1535.19983,206.09491,967.7099
9,0.067,1586.5697,199.22079,1037.67725,1592.48352,155.19255,973.05835,1528.69666,206.25977,967.1925
10,0.075,1582.01953,196.752,1035.80066,1586.44739,154.10075,972.34778,1522.68494,205.7795,966.24072
11,0.083,1574.53442,197.71985,1035.27112,1578.51038,155.00394,971.54419,1515.80798,206.49951,965.57703
12,0.092,1567.96155,197.53079,1034.41003,1572.55151,154.18117,969.922,1509.07568,205.68388,964.48834
13,0.1,1560.85083,198.50546,1032.53186,1565.53979,154.49832,968.87671,1502.76306,206.29422,963.45001
14,0.108,1553.61292,198.52205,1031.96191,1559.70435,154.35745,967.45972,1496.28516,206.85402,961.26764
15,0.117,1547.35046,197.14223,1030.44312,1552.75134,156.6489,966.24109,1490.07654,206.30833,960.0849
16,0.125,1539.52026,197.74808,1029.49219,1547.2804,154.47192,965.96503,1482.06897,207.00209,959.09485
17,0.133,1533.20581,199.66313,1028.42822,1539.27502,154.95258,964.88037,1475.73621,207.83647,957.92505
18,0.142,1525.96851,198.80991,1028.11829,1532.62415,154.54117,964.28058,1469.81091,207.16821,957.2403
19,0.15,1519.46863,198.26721,1027.60828,1524.38098,155.64667,963.47095,1462.64075,206.7128,956.05487
20,0.158,1512.09265,198.519,1025.06836,1518.10999,155.58524,961.51544,1455.46985,207.22195,955.41193
21,0.167,1505.31702,199.63919,1024.52539,1511.36902,155.93399,961.26648,1448.19812,207.81041,953.82684
22,0.175,1496.78369,199.64021,1022.95215,1505.35571,155.06972,960.9046,1440.19312,208.17482,953.50916
23,0.183,1489.8147,200.83453,1023.00171,1496.31384,154.80983,959.42578,1433.79895,208.31598,952.28235
24,0.192,1485.80798,201.66785,1023.19293,1488.64587,155.60875,958.64099,1425.83948,208.58405,949.66663
25,0.2,1475.60889,200.13272,1020.41962,1482.1405,156.48633,957.40668,1418.39929,208.09454,948.65894
26,0.208,1468.91431,199.06516,1018.75098,1474.10071,156.1489,956.50146,1410.99451,206.90552,948.71069
27,0.217,1460.52173,199.54584,1019.3548,1467.2478,157.23006,953.38477,1403.44482,207.22466,947.58978
28,0.225,1452.04895,199.52936,1017.77692,1458.39722,157.56665,954.13617,1395.04639,207.85365,946.99854
29,0.233,1443.69678,200.29646,1016.77942,1451.26807,158.03764,953.44073,1387.34766,209.00137,945.41077
30,0.242,1435.09985,199.79968,1015.742,1442.01245,158.55124,953.33765,1379.14148,209.45808,944.95508
31,0.25,1428.67163,202.60794,1014.97522,1433.05811,157.733,952.47668,1370.86902,209.14368,944.91351
32,0.258,1418.59485,202.25607,1015.72412,1425.77478,157.44012,952.74133,1362.95544,210.14183,944.29175
33,0.267,1411.88318,203.52786,1015.05103,1417.74878,158.02332,952.9826,1354.37659,209.52896,943.66742
34,0.275,1405.24829,203.813,1016.58655,1409.24219,157.69014,951.86078,1345.53772,209.30762,943.62317
35,0.283,1394.83533,204.07771,1014.94263,1399.45142,158.77928,952.64368,1336.96692,210.19958,943.05481
36,0.292,1386.51404,204.4304,1015.64404,1390.96143,159.32523,952.6153,1329.05872,211.61357,943.01782
37,0.3,1376.8916,205.42287,1014.42609,1381.54407,159.39154,952.90747,1318.70886,212.27156,943.53693
38,0.308,1368.26306,205.86952,1015.87604,1374.65405,161.30681,953.31232,1311.64404,212.70036,943.06384
39,0.317,1358.61829,207.10004,1016.15393,1364.86389,161.12402,953.5163,1300.74438,212.84698,943.98969
40,0.325,1349.24219,207.86282,1016.36591,1357.05786,160.92206,954.91461,1293.62402,212.12057,944.54126
41,0.333,1339.08582,208.73633,1017.05786,1347.38208,161.11688,956.01874,1284.59412,212.11353,945.37158
42,0.342,1333.17249,209.35434,1019.12158,1339.08862,160.74951,957.22015,1274.73682,212.68736,946.65851
43,0.35,1322.11853,208.25175,1019.07831,1329.86267,159.96204,958.11017,1266.88904,212.9688,947.06653
44,0.358,1314.41003,208.47531,1020.28522,1320.45972,162.16295,960.40985,1258.0957,213.37,948.63861
45,0.367,1305.84583,210.314,1023.96729,1312.41858,162.37746,961.1308,1250.40027,213.16309,950.94281
46,0.375,1298.20679,210.81044,1023.84259,1302.59607,161.66965,963.27002,1241.03821,213.5388,952.74316
47,0.383,1288.90649,211.33737,1026.62048,1293.29187,163.26689,964.66656,1232.24524,213.8479,954.59161
48,0.392,1279.63611,212.2637,1028.98816,1284.45776,163.21088,968.52582,1224.22461,213.74979,956.2301
49,0.4,1271.76208,212.34285,1029.599,1275.54126,163.89896,970.09583,1214.91113,214.80136,958.98511
50,0.408,1263.20667,211.95256,1032.51367,1266.58777,164.43826,972.01093,1206.66821,215.0157,961.08649
51,0.417,1254.94849,212.87724,1034.43787,1258.59839,164.52249,974.22815,1197.07422,215.67712,962.96161
52,0.425,1246.92932,212.92146,1035.83484,1249.49585,164.10422,975.92999,1188.89185,215.13823,965.41772
53,0.433,1239.62,213.17038,1036.77563,1240.44678,163.63768,977.66156,1180.83911,216.2341,966.68915
54,0.442,1232.25916,212.0712,1039.67822,1232.36511,163.70944,980.56006,1172.52576,217.04736,969.85992
55,0.45,1222.68237,214.29936,1040.48975,1224.51587,164.04121,982.16699,1164.14258,216.26904,971.66199
56,0.458,1216.09839,214.39655,1041.77588,1216.04871,163.48032,983.8208,1155.89038,217.50783,973.55151
57,0.467,1208.00012,213.20723,1043.578,1208.54578,163.28465,985.00671,1146.68237,216.70915,975.6629
58,0.475,1199.0437,214.20882,1046.08972,1197.97717,163.22264,987.21863,1138.72009,218.22215,977.44379
59,0.483,1191.98328,213.78653,1047.39331,1190.62305,162.96507,987.62555,1130.37354,217.22855,979.26917
60,0.492,1183.90186,214.57266,1048.86169,1183.16589,163.36694,989.31763,1122.80981,217.52283,981.14447
61,0.5,1175.51892,213.431,1052.00757,1174.70776,162.99313,990.47559,1114.40002,218.02339,983.22339
62,0.508,1168.02161,213.41127,1052.07043,1166.90283,162.3399,991.95209,1107.21643,217.5036,984.34387
63,0.517,1159.94263,212.93954,1053.28369,1158.51465,163.20578,993.87354,1098.50806,218.46017,985.83179
64,0.525,1151.79602,213.69537,1054.81995,1151.65601,163.29507,994.83234,1091.59143,216.50293,987.39532
65,0.533,1144.64221,213.30154,1057.41101,1144.16064,162.67825,995.98962,1083.78613,216.23024,988.55072
66,0.542,1137.87366,213.13675,1057.71301,1135.65588,162.92091,998.63,1076.13794,216.57944,990.09039
67,0.55,1129.59741,212.86581,1058.62708,1126.96228,162.2459,998.52393,1068.61572,217.22221,991.39801
68,0.558,1122.88049,212.63283,1059.2948,1120.82227,163.8569,999.33325,1061.63831,217.10864,993.06036
69,0.567,1116.4104,213.72328,1059.02515,1113.00061,164.26302,1001.05347,1053.22949,217.83247,994.66455
70,0.575,1109.9165,212.48665,1060.81763,1105.96936,164.87582,1002.10699,1046.6532,217.13539,994.79993
71,0.583,1102.52405,213.33742,1061.24243,1097.88647,163.76939,1001.38367,1040.11755,217.85162,995.54358
72,0.592,1095.85156,213.65456,1060.81091,1091.1886,164.0713,1001.39142,1031.9812,217.34979,996.08575
73,0.6,1088.89795,212.58279,1061.92249,1084.06909,162.17836,1002.6665,1025.83179,218.01283,996.14886
74,0.608,1080.70776,212.26393,1061.4281,1077.05103,162.75,1003.06854,1017.19617,217.75435,996.5426
75,0.617,1073.92957,212.7715,1061.57446,1070.44385,162.30566,1003.62231,1011.09137,217.69225,997.21002
76,0.625,1065.92542,212.82672,1061.18689,1063.58069,162.6082,1003.1181,1002.37091,217.2964,998.36224
77,0.633,1060.48633,212.19984,1061.04956,1055.5614,162.59987,1002.15106,996.18823,217.5779,997.79669
78,0.642,1052.94434,211.76166,1060.44666,1048.18701,162.79521,1001.56091,988.34894,216.06151,997.58795
79,0.65,1046.04175,211.93987,1060.08813,1042.11816,162.90569,1001.8042,981.30054,216.63089,996.66132
80,0.658,1037.62085,211.65976,1059.86133,1034.60681,162.3028,1001.09955,973.87573,215.18918,997.11206
81,0.667,1031.53662,211.42659,1059.54456,1027.68469,162.34999,1000.83337,966.20886,214.91272,996.11786
82,0.675,1023.75854,211.41432,1059.10339,1018.57544,161.8461,999.1228,958.54077,215.18491,996.05536
83,0.683,1016.68524,209.90785,1058.62,1012.80164,161.68834,998.77856,951.41907,214.4308,995.24432
84,0.692,1008.51434,208.74796,1057.17957,1004.50818,161.58612,997.32281,943.32172,213.60809,994.8382
85,0.7,1001.0329,208.61584,1056.81787,998.05707,161.89964,996.95947,936.07593,213.69609,993.94904
86,0.708,993.74463,208.82036,1055.74146,989.65753,160.98328,995.80383,927.7774,213.0072,992.43561
87,0.717,985.22864,208.60823,1055.104,981.15289,160.62479,994.88495,919.7854,211.68146,991.6156
88,0.725,977.42706,208.04758,1054.177,973.45239,160.3943,993.63525,912.59967,211.40881,990.60461
89,0.733,969.42719,207.46953,1053.21851,965.91266,159.49608,992.37408,903.74542,211.34328,989.68719
90,0.742,961.19269,205.81186,1051.71814,957.90771,159.72766,990.43921,895.92816,210.39774,988.92096
91,0.75,952.87012,206.44237,1050.81946,949.71448,158.27742,989.1438,887.43817,210.61992,987.34222
92,0.758,944.03406,204.04013,1048.51904,943.2951,159.80624,988.28772,878.75226,209.02066,985.9361
93,0.767,935.5683,203.66989,1047.42676,932.78058,156.80226,988.10602,870.35693,207.44385,985.6922
94,0.775,927.40369,203.562,1046.28882,924.97955,156.29514,986.0639,862.05396,207.01984,985.00146
95,0.783,919.53271,204.03886,1046.08167,918.04315,155.4993,984.95215,853.52545,207.36311,983.32837
96,0.792,910.8371,203.75659,1045.46045,910.90802,157.00975,984.62659,845.00549,205.90674,981.42542
97,0.8,900.57587,200.52505,1043.98242,900.29559,154.93842,982.90387,836.13611,205.82054,981.10278
98,0.808,893.24805,199.23961,1043.06067,890.95453,153.62633,982.64734,827.47168,204.29922,980.13055
99,0.817,884.16962,199.52174,1042.38245,880.77692,151.90039,980.80658,818.06677,202.65729,979.75745
100,0.825,876.30426,199.41435,1042.25793,872.33484,151.5125,980.5058,810.66089,201.84052,978.84436
101,0.833,865.42096,196.20193,1041.14539,865.72552,151.41454,980.53033,801.48444,201.33862,977.84082
102,0.842,857.66425,195.90793,1041.11133,858.12207,151.60451,979.39209,792.74896,200.51825,977.86682
103,0.85,848.51941,194.75117,1040.5321,849.77545,150.25101,979.53943,784.73633,199.04393,977.92017
104,0.858,840.08954,193.53105,1040.2384,839.18073,146.99997,978.82031,774.53656,197.33308,978.33466
105,0.867,831.40546,194.29189,1040.2854,830.66827,148.02573,979.92883,766.1181,196.59848,977.92615
106,0.875,823.56628,190.65936,1040.39453,821.39551,146.45763,978.43036,757.95038,196.63913,977.6637
107,0.883,814.54767,190.05357,1040.05029,814.13599,145.62541,979.16742,748.79626,193.8566,978.07288
108,0.892,805.67731,187.92923,1041.29529,805.69983,145.36478,979.01624,740.51959,192.7841,978.9455
109,0.9,797.82111,187.71431,1042.2843,797.63739,143.97296,979.2392,732.09082,192.06454,978.51801
110,0.908,790.43359,186.36711,1042.19995,788.82697,142.25566,979.79163,723.5799,191.89546,979.4223
111,0.917,781.12427,185.25961,1042.28174,780.71777,141.74179,980.7334,715.57617,189.66594,979.54175
112,0.925,772.70972,183.91093,1042.48145,772.74146,140.31473,980.77661,707.07965,187.42389,980.87323
113,0.933,763.19733,181.5885,1043.43494,762.45599,137.45274,980.56036,698.42444,187.64215,981.64825
114,0.942,757.5907,181.61748,1043.04553,756.29419,137.28033,981.6026,690.88379,185.90155,981.79053
115,0.95,747.81,180.49046,1044.0498,748.16016,135.68626,982.88019,682.09857,184.80617,983.01361
116,0.958,739.85822,178.08299,1045.76941,741.36047,135.99612,983.11047,674.70319,183.82713,983.49176
117,0.967,732.59943,177.15683,1045.97766,731.72382,132.56908,982.17841,666.75873,183.52353,983.86273
118,0.975,725.07251,177.58258,1046.00195,722.26947,133.02403,983.30664,659.68311,182.99916,984.20758
119,0.983,717.30951,176.89294,1046.41602,717.10175,133.19907,984.06976,651.89191,181.67581,984.69788
120,0.992,709.74591,175.98692,1046.54065,708.57922,130.94342,984.12115,645.18842,182.15056,985.20746
121,1,704.19586,176.4352,1046.88794,702.75128,132.24637,985.17041,637.53687,181.74809,984.46698
122,1.008,695.52161,175.74777,1046.75452,693.263,129.52931,984.45721,630.64343,181.08009,983.90546
123,1.017,687.4671,174.51158,1046.9209,685.36121,130.12068,984.72137,623.086,180.35593,983.82318
124,1.025,681.57465,174.20071,1046.97986,678.99652,130.26111,985.73712,616.59595,180.89693,983.98633
125,1.033,673.78833,174.16786,1047.28345,671.64587,128.61473,985.08661,609.38434,180.56425,982.66315
126,1.042,666.54199,174.43307,1046.98279,666.52551,129.58434,985.76202,602.2356,179.06577,982.42151
127,1.05,659.40582,174.18782,1047.2356,659.59674,128.99863,985.76764,596.14954,179.92017,982.21057
128,1.058,651.18463,173.00293,1047.80664,650.14063,127.54773,985.73004,589.15033,179.1407,982.61462
129,1.067,645.66754,173.61093,1048.08105,645.20874,127.68972,985.35944,582.87549,179.00433,982.30359
130,1.075,637.47052,172.45494,1048.52014,636.77277,127.22198,985.16364,575.96503,178.76685,982.67413
131,1.083,629.44812,170.40457,1048.33557,632.16638,128.08423,986.32422,569.1748,178.09772,982.69238
132,1.092,624.21832,171.39107,1048.2229,626.83252,129.26677,986.54486,562.75916,178.40181,982.92059
133,1.1,616.91125,171.314,1049.72998,618.98938,128.15208,987.01855,556.0199,177.85213,982.80676
134,1.108,611.0069,171.63586,1049.09546,612.5957,127.84104,987.67157,549.50745,178.10187,982.50702
135,1.117,603.29987,171.87149,1049.91028,605.35864,127.67105,987.37158,543.66589,177.8828,982.80981
136,1.125,596.77643,170.91801,1050.41882,599.93024,127.40848,988.33746,536.14386,177.97594,983.45526
137,1.133,591.10834,171.53442,1050.59998,593.10803,127.21146,988.20758,530.54004,176.92992,983.93884
138,1.142,582.46564,169.81551,1050.87134,586.39856,126.47592,988.9054,523.40399,177.73523,983.78503
139,1.15,578.23328,171.25764,1050.79919,579.59174,127.21973,988.40149,516.84198,178.00732,983.927
140,1.158,569.87982,169.34866,1050.92224,573.5199,126.45857,988.60791,509.95667,176.41824,983.44067
141,1.167,563.73163,170.57768,1050.21155,566.54767,126.64309,988.27789,502.60043,176.56076,983.03784
142,1.175,556.4798,169.72531,1050.60938,560.46674,125.81451,988.13116,496.86566,177.8586,982.4256
143,1.183,549.72443,170.01811,1050.5498,553.30511,125.79523,987.42981,490.18716,176.92097,981.42957
144,1.192,543.00403,170.31781,1048.73901,546.92963,125.47557,986.58008,482.89041,176.94162,980.66809
145,1.2,535.26239,170.19591,1048.22742,539.39063,125.67738,985.18549,476.00369,177.62881,980.24915
146,1.208,528.44586,169.45306,1048.44971,533.14349,125.92696,985.05127,469.98145,175.80315,979.31384
147,1.217,522.11755,168.46582,1047.59619,525.63702,125.87814,984.2276,463.49081,176.78279,978.29382
148,1.225,514.56238,168.4111,1046.87366,519.03284,126.0198,983.0426,456.50455,176.71793,977.32733
149,1.233,508.45966,170.02637,1045.755,512.98096,126.17154,982.25403,449.96689,176.50481,976.7204
150,1.242,501.41806,168.05496,1045.67847,505.84912,125.79334,982.46924,442.47458,177.14929,974.74274
151,1.25,493.99991,170.94379,1044.08264,497.00482,124.06339,980.61676,435.56119,177.58994,974.04712
152,1.258,486.19992,169.64967,1044.08618,490.44144,126.38419,979.93921,429.00461,176.81487,973.81104
153,1.267,478.85611,170.01213,1042.61169,484.37112,125.81458,979.21716,421.93323,177.79468,972.28345
154,1.275,472.85837,170.13208,1041.5354,476.02609,127.16806,978.72858,414.87164,177.86995,971.6756
155,1.283,464.94772,169.52597,1040.94885,470.42337,125.6544,978.08569,407.7507,178.06865,970.9079
156,1.292,458.0296,170.3714,1039.93127,462.00449,127.30559,976.93689,401.09348,177.97455,969.95392
157,1.3,450.0296,171.01418,1038.98389,454.30118,126.4183,976.41156,392.33026,177.74178,968.70764
158,1.308,442.51324,170.85864,1037.55859,447.17538,127.25726,974.8468,384.99506,177.77919,967.72083
159,1.317,435.83798,171.38573,1036.95923,438.41833,124.74294,974.74323,378.12988,179.50659,967.32886
160,1.325,427.31699,172.33525,1035.66882,429.83334,125.21865,973.94733,370.09912,179.37192,966.39148
161,1.333,419.38455,171.73074,1035.63855,424.14847,126.19776,972.64581,362.03171,178.63336,965.37018
162,1.342,412.27936,171.82187,1034.46155,416.74622,127.60258,971.37482,354.81519,179.3114,963.81012
163,1.35,403.59756,173.11159,1032.96387,407.98654,127.31798,969.72125,346.44122,179.74356,961.83606
164,1.358,395.29504,172.47639,1032.27136,399.88974,127.54786,968.77301,338.68936,179.95508,961.20276
165,1.367,387.02722,173.23056,1030.1355,392.32983,127.89979,966.86542,329.98981,179.99292,959.83667
166,1.375,378.34662,173.96007,1029.2135,383.80603,127.93707,966.83472,322.19727,179.9111,957.75238
167,1.383,370.04276,173.40587,1028.2865,375.28137,129.22807,964.26355,313.71817,179.82376,956.95148
168,1.392,361.58047,174.01852,1027.14294,366.51419,127.76482,963.81909,305.27985,180.10085,955.23615
169,1.4,353.64694,174.66977,1026.05212,358.77725,129.51218,962.66077,297.21405,180.59171,954.40857
170,1.408,344.6077,175.51346,1024.44214,349.89661,129.41869,961.26819,288.90393,180.93407,953.12646
171,1.417,336.0639,174.92836,1023.63824,341.48575,129.91179,960.64764,279.61807,181.44937,951.84631
172,1.425,326.9263,176.30438,1022.8031,333.25339,130.11116,960.69623,271.28079,181.4503,950.99597
173,1.433,318.30499,176.43219,1022.16388,323.52649,131.05113,959.27838,262.38626,182.66486,950.58862
174,1.442,308.56885,177.55054,1021.04639,314.90646,131.52158,957.71747,253.18398,182.96422,949.87836
175,1.45,299.61807,178.81996,1020.06616,305.54178,131.71989,958.44305,244.0218,183.21187,949.24072
176,1.458,290.98688,180.16446,1019.37891,296.38956,131.91431,958.6543,235.03769,184.04466,948.20551
177,1.467,282.14755,180.7709,1019.20636,287.11154,133.83601,957.96735,226.27028,184.25786,947.63428
178,1.475,272.37595,181.7906,1019.37231,277.4122,134.24901,957.62311,217.03801,186.30064,948.05249
179,1.483,263.34387,182.08723,1020.33435,267.47485,133.23541,959.17493,207.48425,187.17238,948.4054
180,1.492,254.01089,183.44955,1020.26703,257.43539,133.41954,959.30286,197.89482,187.23047,948.72437
181,1.5,244.7318,183.80144,1020.02112,249.64857,134.8535,958.89471,188.71339,187.08751,948.60425
182,1.508,235.48326,184.60658,1021.7851,239.02881,135.93004,960.12988,178.77045,187.60988,950.36902
183,1.517,226.49818,186.11821,1022.54254,230.74072,136.77547,961.72491,170.0188,188.94495,951.54047
184,1.525,216.47769,186.34193,1024.1571,222.46196,137.46649,962.88062,160.82442,189.57257,953.26514
185,1.533,207.33377,186.96844,1025.60999,212.60229,136.53108,966.85468,151.89816,190.20621,954.84637
186,1.542,198.99553,188.08821,1028.34192,203.94121,139.56339,967.26422,142.77502,190.16003,957.01227
187,1.55,189.66505,188.69629,1029.89539,193.93288,138.6507,968.87555,133.13277,190.71548,958.93152
188,1.558,180.08818,188.72401,1032.19202,185.77829,140.19966,970.62762,123.48681,191.24446,961.04608
189,1.567,171.56297,189.25314,1033.0033,176.77576,140.85326,972.87421,114.55822,191.09682,962.87341
190,1.575,161.43913,189.89612,1035.77515,167.43712,141.31648,974.69666,105.18656,191.11058,964.60602
191,1.583,152.85085,189.80104,1037.52246,158.43134,141.85098,977.29901,95.47006,192.06462,966.74554
192,1.592,143.64859,190.72971,1039.57947,149.38002,140.72905,978.97479,86.36653,192.06453,968.76355
193,1.6,135.39133,191.27989,1041.8446,140.14015,142.57599,980.47217,77.65379,193.34976,971.10706
194,1.608,126.89957,192.07489,1042.94836,130.33044,142.96411,981.90973,68.18988,193.56087,973.29852
195,1.617,117.34621,192.0369,1044.30237,121.19554,142.83017,983.80957,58.97083,192.84509,974.7074
196,1.625,108.45756,192.35878,1045.80029,111.03062,144.22501,985.367,49.85381,193.81258,977.02997
197,1.633,99.59476,192.15019,1047.97034,103.90195,144.61292,986.42297,40.92112,193.68335,978.2146
198,1.642,91.49509,193.60898,1048.53149,94.73907,144.4335,987.55438,32.54399,194.95549,980.62512
