Frame#,Time,R.Forearm.x,R.Forearm.y,R.Forearm.z,R.Ulna.x,R.Ulna.y,R.Ulna.z,R.Radius.x,R.Radius.y,R.Radius.z
1,0,202.694,-305.20993,1101.89893,244.24521,-254.4841,1047.94592,271.96973,-203.02757,1113.98413
2,0.008,201.77205,-304.48972,1101.67236,243.75714,-254.02832,1048.21643,271.73108,-203.10126,1113.96313
3,0.017,201.161,-304.75894,1101.67688,243.75714,-254.02832,1048.21643,268.80823,-202.27637,1114.93066
4,0.025,200.71048,-304.94977,1101.77991,242.54872,-253.7771,1048.39783,268.41232,-202.66649,1114.90039
5,0.033,200.66707,-305.08047,1101.84851,241.76555,-254.0574,1048.51917,267.79211,-202.92624,1115.09192
6,0.042,198.6853,-304.15369,1101.70972,241.25217,-254.56584,1048.34192,269.08667,-203.62062,1114.32141
7,0.05,198.73128,-304.31238,1102.24084,241.20082,-254.46202,1048.47742,268.62296,-203.91116,1114.26624
8,0.058,198.62744,-305.98166,1102.26135,241.39653,-255.60167,1048.93713,267.95071,-204.2477,1114.43164
9,0.067,198.06851,-307.01245,1102.88599,240.69215,-255.60219,1049.28467,267.95071,-204.2477,1114.43164
10,0.075,197.52931,-307.198,1103.02673,240.60059,-255.75044,1049.12817,267.9476,-204.39731,1114.63904
11,0.083,196.38179,-306.33145,1102.98682,239.93893,-255.87721,1049.5625,267.43301,-204.77661,1114.45642
12,0.092,196.13936,-306.62128,1103.2533,239.5175,-256.5921,1049.87488,267.1145,-205.18826,1114.6615
13,0.1,195.37703,-306.26221,1103.25854,239.57857,-256.99133,1050.22021,267.32047,-205.47708,1115.07104
14,0.108,195.0811,-306.10864,1103.3269,239.60355,-257.49722,1050.26379,266.87033,-205.98877,1115.17969
15,0.117,194.93877,-306.06989,1103.42151,239.32651,-257.73672,1049.95972,267.08722,-206.3378,1114.94788
16,0.125,194.93877,-306.06989,1103.42151,238.61478,-257.98743,1049.82214,267.21246,-206.49509,1114.89026
17,0.133,194.80359,-306.00894,1103.33105,238.24867,-258.23071,1050.01343,266.2428,-206.30858,1114.90051
18,0.142,194.80727,-306.10989,1103.24377,238.35324,-258.20032,1049.71362,266.62213,-206.62407,1114.93433
19,0.15,194.80727,-306.10989,1103.24377,238.35324,-258.20032,1049.71362,266.29169,-206.52039,1114.84473
20,0.158,194.80727,-306.10989,1103.24377,238.35324,-258.20032,1049.71362,266.2428,-206.30858,1114.90051
21,0.167,194.60884,-306.1817,1102.98376,238.35324,-258.20032,1049.71362,266.2428,-206.30858,1114.90051
22,0.175,194.60884,-306.1817,1102.98376,238.23059,-257.98999,1049.58252,266.2475,-206.28975,1114.92578
23,0.183,195.13484,-306.9541,1102.69971,238.23059,-257.98999,1049.58252,266.08774,-206.01366,1114.69849
24,0.192,195.30286,-307.08838,1102.8468,238.23059,-257.98999,1049.58252,266.02023,-205.76314,1114.83569
25,0.2,194.98401,-306.87787,1102.58911,238.23059,-257.98999,1049.58252,265.74387,-205.8381,1114.797
26,0.208,195.15201,-307.01215,1102.73621,237.54424,-257.81787,1049.28564,265.58444,-206.23338,1114.37842
27,0.217,194.9603,-307.00427,1102.43201,237.54424,-257.81787,1049.28564,264.84009,-206.46449,1114.41504
28,0.225,194.75728,-307.10693,1102.40027,237.54424,-257.81787,1049.28564,264.16681,-206.3515,1114.29443
29,0.233,194.75728,-307.10693,1102.40027,237.24896,-258.07092,1049.6073,264.16681,-206.3515,1114.29443
30,0.242,194.25769,-307.08032,1102.43262,237.35355,-258.0405,1049.3075,264.27533,-206.65251,1114.13953
31,0.25,193.6571,-307.30023,1102.35046,237.09735,-258.32544,1049.33923,264.20001,-207.24957,1114.30713
32,0.258,193.60019,-307.6908,1102.27893,236.1201,-258.57993,1048.96997,264.20001,-207.24957,1114.30713
33,0.267,193.60019,-307.6908,1102.27893,236.0439,-258.55493,1049.01709,264.04065,-207.18607,1114.00122
34,0.275,193.3345,-308.11298,1102.22021,235.74672,-258.85361,1048.79968,264.04065,-207.18607,1114.00122
35,0.283,193.08519,-308.19559,1102.23401,235.74672,-258.85361,1048.79968,263.89429,-207.45668,1113.95251
36,0.292,193.08519,-308.19559,1102.23401,235.45038,-259.21185,1048.52563,263.89429,-207.45668,1113.95251
37,0.3,193.08319,-308.30731,1102.1134,235.45038,-259.21185,1048.52563,264.35864,-208.6834,1114.4248
38,0.308,193.08319,-308.30731,1102.1134,235.60124,-259.45575,1048.73218,263.91272,-207.49718,1113.92322
39,0.317,193.08319,-308.30731,1102.1134,235.60124,-259.45575,1048.73218,263.91272,-207.49718,1113.92322
40,0.325,193.02538,-308.35303,1101.99963,235.45038,-259.21185,1048.52563,263.89429,-207.45668,1113.95251
41,0.333,193.24753,-308.40158,1101.85449,235.45038,-259.21185,1048.52563,263.89429,-207.45668,1113.95251
42,0.342,193.12805,-308.2514,1101.95972,235.45038,-259.21185,1048.52563,263.89429,-207.45668,1113.95251
43,0.35,193.34726,-308.49734,1101.80457,235.60124,-259.45575,1048.73218,263.89429,-207.45668,1113.95251
44,0.358,193.17839,-308.36456,1101.97327,235.89754,-259.09747,1049.00623,263.89429,-207.45668,1113.95251
45,0.367,193.2493,-308.28128,1102.02649,235.89754,-259.09747,1049.00623,264.04065,-207.18607,1114.00122
46,0.375,193.2493,-308.28128,1102.02649,235.89754,-259.09747,1049.00623,264.04065,-207.18607,1114.00122
47,0.383,193.2493,-308.28128,1102.02649,236.26756,-259.36786,1049.32861,264.04065,-207.18607,1114.00122
48,0.392,193.49568,-308.30179,1101.98218,236.18881,-259.53256,1049.22131,264.04065,-207.18607,1114.00122
49,0.4,192.66257,-307.93326,1102.15686,236.52937,-259.59973,1049.57312,264.05368,-207.52019,1114.2583
50,0.408,192.68231,-308.19281,1102.28748,236.45062,-259.76443,1049.46582,264.05368,-207.52019,1114.2583
51,0.417,192.61607,-308.85785,1102.66357,236.18916,-259.97742,1049.3573,264.32428,-207.91577,1114.55383
52,0.425,192.62144,-308.46817,1102.66907,236.18916,-259.97742,1049.3573,264.32428,-207.91577,1114.55383
53,0.433,192.60635,-308.67383,1102.90808,236.10915,-260.1441,1049.50806,264.0274,-208.248,1114.71814
54,0.442,192.15437,-308.90344,1102.84167,236.10915,-260.1441,1049.50806,264.22061,-209.02036,1114.84705
55,0.45,191.93164,-309.36853,1103.01477,236.10915,-260.1441,1049.50806,264.0274,-208.248,1114.71814
56,0.458,191.81357,-309.60321,1102.96973,236.10915,-260.1441,1049.50806,264.26132,-209.18785,1115.0835
57,0.467,191.77676,-309.55234,1103.1073,236.10915,-260.1441,1049.50806,264.26132,-209.18785,1115.0835
58,0.475,191.93533,-309.63663,1103.07031,236.10915,-260.1441,1049.50806,264.26132,-209.18785,1115.0835
59,0.483,191.78076,-309.64752,1103.24768,236.10915,-260.1441,1049.50806,264.26132,-209.18785,1115.0835
60,0.492,191.90253,-309.68091,1103.34827,235.98035,-260.34662,1049.43982,264.06866,-208.44576,1114.97827
61,0.5,191.90253,-309.68091,1103.34827,236.10915,-260.1441,1049.50806,263.81241,-209.18842,1115.08179
62,0.508,192.07335,-309.68378,1103.61096,236.02925,-260.31085,1049.65881,264.26132,-209.18785,1115.0835
63,0.517,192.07335,-309.68378,1103.61096,236.10915,-260.1441,1049.50806,263.78323,-208.33925,1115.11804
64,0.525,192.07335,-309.68378,1103.61096,236.02925,-260.31085,1049.65881,263.78323,-208.33925,1115.11804
65,0.533,192.26405,-309.4285,1103.74377,236.10915,-260.1441,1049.50806,263.78323,-208.33925,1115.11804
66,0.542,192.26405,-309.4285,1103.74377,235.6256,-260.19037,1050.20715,263.78323,-208.33925,1115.11804
67,0.55,192.26405,-309.4285,1103.74377,235.40204,-259.8819,1050.45911,263.78323,-208.33925,1115.11804
68,0.558,192.26405,-309.4285,1103.74377,235.64064,-259.71643,1050.61084,263.77744,-208.33484,1115.12378
69,0.567,192.20111,-309.40781,1103.89832,235.8817,-259.99274,1051.0498,263.77744,-208.33484,1115.12378
70,0.575,193.43869,-311.1745,1104.73206,235.8817,-259.99274,1051.0498,263.67065,-207.86317,1115.70911
71,0.583,192.39497,-310.45746,1104.53186,235.8817,-259.99274,1051.0498,263.67065,-207.86317,1115.70911
72,0.592,192.14531,-309.95618,1104.34106,235.8817,-259.99274,1051.0498,266.90393,-208.63481,1114.4458
73,0.6,192.5273,-310.51868,1104.60449,235.8817,-259.99274,1051.0498,263.98874,-207.89647,1115.88245
74,0.608,192.28906,-310.039,1104.42078,235.8817,-259.99274,1051.0498,263.98874,-207.89647,1115.88245
75,0.617,192.28906,-310.039,1104.42078,235.8817,-259.99274,1051.0498,263.83609,-207.94203,1115.71838
76,0.625,192.42432,-310.70728,1104.55078,235.8817,-259.99274,1051.0498,263.83609,-207.94203,1115.71838
77,0.633,192.28906,-310.039,1104.42078,235.8817,-259.99274,1051.0498,263.98874,-207.89647,1115.88245
78,0.642,192.28906,-310.039,1104.42078,235.8817,-259.99274,1051.0498,263.83609,-207.94203,1115.71838
79,0.65,192.62077,-310.3588,1104.5376,235.8817,-259.99274,1051.0498,263.83609,-207.94203,1115.71838
80,0.658,193.39378,-311.10657,1104.81018,235.8817,-259.99274,1051.0498,262.39594,-207.90067,1117.18628
81,0.667,193.51648,-310.96036,1104.48779,236.38965,-259.94168,1050.84814,262.52499,-207.83383,1117.31934
82,0.675,194.47856,-311.43948,1104.32495,236.60796,-259.80789,1050.95825,262.39594,-207.90067,1117.18628
83,0.683,195.31412,-311.10306,1104.22375,236.7798,-259.86743,1050.84778,262.96204,-207.90779,1116.93152
84,0.692,195.5392,-311.10336,1104.23413,236.90686,-259.95862,1050.70984,262.96204,-207.90779,1116.93152
85,0.7,195.6467,-310.90891,1104.11182,236.90686,-259.95862,1050.70984,262.96204,-207.90779,1116.93152
86,0.708,195.6467,-310.90891,1104.11182,237.07169,-259.76138,1050.22144,262.87189,-207.70985,1117.02759
87,0.717,195.6467,-310.90891,1104.11182,237.07169,-259.76138,1050.22144,263.1207,-207.33324,1117.0658
88,0.725,195.69962,-310.9288,1103.97327,236.81009,-259.52933,1049.97693,263.47351,-207.49178,1116.50952
89,0.733,195.71141,-311.26865,1103.73193,236.81009,-259.52933,1049.97693,263.44278,-207.50516,1116.13318
90,0.742,196.31003,-310.56491,1103.92944,236.74768,-259.46579,1049.68323,263.29675,-207.2285,1115.9187
91,0.75,196.3792,-310.56897,1103.6886,237.16049,-259.39059,1049.67908,263.44278,-207.50516,1116.13318
92,0.758,196.58081,-310.3067,1103.67358,236.76672,-259.71689,1049.45056,263.18015,-207.22081,1115.67944
93,0.767,196.67491,-310.46295,1103.5188,236.76698,-259.8429,1049.30029,263.18015,-207.22081,1115.67944
94,0.775,196.47906,-310.67206,1103.43713,236.76698,-259.8429,1049.30029,263.02005,-207.48077,1115.62817
95,0.783,196.67491,-310.46295,1103.5188,236.76698,-259.8429,1049.30029,263.02094,-207.65656,1115.46106
96,0.792,196.71591,-310.59155,1103.45239,236.71794,-260.25125,1049.16602,263.02094,-207.65656,1115.46106
97,0.8,196.43617,-310.81598,1103.28088,236.71794,-260.25125,1049.16602,264.159,-207.23039,1113.51147
98,0.808,196.5143,-310.85379,1103.46741,236.71794,-260.25125,1049.16602,264.01093,-207.50383,1113.71863
99,0.817,196.2095,-311.0058,1103.18372,236.71794,-260.25125,1049.16602,264.159,-207.23039,1113.51147
100,0.825,196.41179,-310.73685,1103.15662,236.71794,-260.25125,1049.16602,264.159,-207.23039,1113.51147
101,0.833,195.64983,-310.04016,1102.82666,236.97934,-260.03827,1049.27466,264.159,-207.23039,1113.51147
102,0.842,195.64983,-310.04016,1102.82666,237.1918,-260.23358,1049.24902,264.06082,-207.22375,1113.71619
103,0.85,195.64983,-310.04016,1102.82666,236.97934,-260.03827,1049.27466,264.15707,-206.89407,1113.77625
104,0.858,195.64101,-309.77408,1102.56995,237.28242,-259.91763,1049.34961,264.15707,-206.89407,1113.77625
105,0.867,195.90666,-309.69458,1102.48181,237.843,-259.9368,1049.29468,264.04065,-207.18607,1114.00122
106,0.875,195.37221,-309.5788,1102.04761,237.63072,-259.74149,1049.32043,264.15707,-206.89407,1113.77625
107,0.883,195.39388,-309.65396,1101.95703,237.843,-259.9368,1049.29468,264.15707,-206.89407,1113.77625
108,0.892,195.58971,-309.44479,1102.0387,237.72101,-259.29697,1049.14148,264.15707,-206.89407,1113.77625
109,0.9,195.58971,-309.44479,1102.0387,237.157,-258.92114,1049.04187,264.15707,-206.89407,1113.77625
110,0.908,195.58971,-309.44479,1102.0387,237.157,-258.92114,1049.04187,264.15707,-206.89407,1113.77625
111,0.917,195.58971,-309.44479,1102.0387,237.47923,-259.02124,1048.70215,264.15707,-206.89407,1113.77625
112,0.925,195.58971,-309.44479,1102.0387,237.74745,-259.18491,1048.93384,264.15707,-206.89407,1113.77625
113,0.933,195.39388,-309.65396,1101.95703,237.52074,-259.75162,1048.78491,264.27438,-207.01384,1113.56604
114,0.942,195.39388,-309.65396,1101.95703,237.03969,-259.90659,1048.69043,264.159,-207.23039,1113.51147
115,0.95,195.59296,-309.90802,1102.20337,237.13304,-259.87561,1048.50378,264.159,-207.23039,1113.51147
116,0.958,195.45575,-310.56897,1102.42285,237.02008,-260.39508,1049.02112,264.159,-207.23039,1113.51147
117,0.967,195.37976,-310.63727,1102.52576,237.10378,-260.79282,1048.92737,264.159,-207.23039,1113.51147
118,0.975,195.93942,-311.60257,1102.88281,237.10378,-260.79282,1048.92737,264.41617,-207.57048,1113.1427
119,0.983,195.81221,-311.88953,1103.0271,237.10378,-260.79282,1048.92737,264.41617,-207.57048,1113.1427
120,0.992,195.88383,-311.92975,1103.13086,237.10378,-260.79282,1048.92737,265.26697,-209.75449,1113.65723
121,1,195.84984,-311.89865,1103.31262,237.64713,-261.21289,1049.22168,265.08902,-210.27679,1113.68237
122,1.008,195.9519,-312.01938,1103.50562,237.64713,-261.21289,1049.22168,265.35522,-210.07597,1113.76416
123,1.017,195.76039,-312.84387,1103.74646,237.56709,-261.37943,1049.37231,265.35522,-210.07597,1113.76416
124,1.025,195.76039,-312.84387,1103.74646,237.56709,-261.37943,1049.37231,265.35522,-210.07597,1113.76416
125,1.033,195.87144,-312.91125,1103.79456,237.56709,-261.37943,1049.37231,265.35522,-210.07597,1113.76416
126,1.042,195.93074,-312.79462,1103.89673,237.56709,-261.37943,1049.37231,265.56177,-210.15883,1113.9021
127,1.05,194.7946,-312.0592,1103.65479,237.56709,-261.37943,1049.37231,265.35522,-210.07597,1113.76416
128,1.058,195.16866,-312.09933,1103.56714,237.48718,-261.54602,1049.52307,265.56177,-210.15883,1113.9021
129,1.067,195.16866,-312.09933,1103.56714,237.56709,-261.37943,1049.37231,265.5712,-210.03308,1114.07617
130,1.075,195.16866,-312.09933,1103.56714,237.56709,-261.37943,1049.37231,265.5712,-210.03308,1114.07617
131,1.083,195.57208,-311.90512,1103.42786,237.56709,-261.37943,1049.37231,265.36948,-209.84332,1114.08484
132,1.092,195.57208,-311.90512,1103.42786,237.56709,-261.37943,1049.37231,265.27841,-209.83488,1114.27307
133,1.1,195.95813,-312.19211,1103.43176,237.56709,-261.37943,1049.37231,265.27841,-209.83488,1114.27307
134,1.108,196.0873,-312.07269,1103.21899,237.56709,-261.37943,1049.37231,265.27841,-209.83488,1114.27307
135,1.117,196.0873,-312.07269,1103.21899,237.56709,-261.37943,1049.37231,265.36948,-209.84332,1114.08484
136,1.125,196.17094,-312.13516,1103.02686,237.56709,-261.37943,1049.37231,265.36948,-209.84332,1114.08484
137,1.133,196.14886,-311.99515,1103.10071,237.56709,-261.37943,1049.37231,265.50018,-210.12195,1113.87695
138,1.142,196.14886,-311.99515,1103.10071,237.64713,-261.21289,1049.22168,265.50018,-210.12195,1113.87695
139,1.15,196.19157,-311.6936,1103.00598,237.64713,-261.21289,1049.22168,265.35522,-210.07597,1113.76416
140,1.158,196.20671,-311.98083,1102.93909,237.64713,-261.21289,1049.22168,265.56177,-210.15883,1113.9021
141,1.167,196.20671,-311.98083,1102.93909,237.86185,-261.24905,1049.12976,265.55759,-210.13307,1113.63538
142,1.175,196.20671,-311.98083,1102.93909,238.13896,-261.25803,1049.05615,265.76413,-210.21591,1113.77332
143,1.183,196.20671,-311.98083,1102.93909,238.28714,-261.3175,1048.74304,266.12036,-210.1494,1113.78064
144,1.192,196.20671,-311.98083,1102.93909,238.1739,-261.31079,1048.90283,266.12036,-210.1494,1113.78064
145,1.2,196.35834,-311.77298,1102.91919,238.28714,-261.3175,1048.74304,266.12036,-210.1494,1113.78064
146,1.208,196.35834,-311.77298,1102.91919,238.28714,-261.3175,1048.74304,266.12036,-210.1494,1113.78064
147,1.217,196.40892,-311.71179,1102.91187,238.54549,-261.19287,1048.83313,266.12036,-210.1494,1113.78064
148,1.225,196.56053,-311.50391,1102.89209,238.84866,-261.07242,1048.90808,266.12036,-210.1494,1113.78064
149,1.233,196.56053,-311.50391,1102.89209,238.84866,-261.07242,1048.90808,266.19186,-210.02252,1113.94116
150,1.242,197.34477,-311.88431,1102.64954,239.27185,-260.93848,1048.89282,266.19186,-210.02252,1113.94116
151,1.25,197.61848,-312.07492,1102.4541,239.43332,-260.70599,1048.94397,266.19186,-210.02252,1113.94116
152,1.258,197.69112,-311.97253,1102.37439,239.43332,-260.70599,1048.94397,266.19186,-210.02252,1113.94116
153,1.267,197.69112,-311.97253,1102.37439,239.43332,-260.70599,1048.94397,266.19186,-210.02252,1113.94116
154,1.275,198.29553,-311.6319,1102.20422,239.43332,-260.70599,1048.94397,265.94672,-209.9848,1114.05322
155,1.283,198.41751,-311.69809,1102.09302,239.71648,-260.4191,1048.84192,265.94672,-209.9848,1114.05322
156,1.292,198.41751,-311.69809,1102.09302,239.71648,-260.4191,1048.84192,265.94672,-209.9848,1114.05322
157,1.3,198.41751,-311.69809,1102.09302,239.71648,-260.4191,1048.84192,265.76547,-209.47108,1114.14551
158,1.308,198.41751,-311.69809,1102.09302,239.71648,-260.4191,1048.84192,264.8493,-208.96698,1114.12048
159,1.317,198.41751,-311.69809,1102.09302,239.71648,-260.4191,1048.84192,264.8493,-208.96698,1114.12048
160,1.325,198.41751,-311.69809,1102.09302,239.71648,-260.4191,1048.84192,264.81744,-208.29971,1113.93652
161,1.333,198.29553,-311.6319,1102.20422,239.71648,-260.4191,1048.84192,264.81744,-208.29971,1113.93652
162,1.342,197.89374,-311.69785,1102.33167,239.43332,-260.70599,1048.94397,264.81744,-208.29971,1113.93652
163,1.35,197.69917,-311.77176,1102.30664,239.27144,-260.62698,1049.06775,264.8493,-208.96698,1114.12048
164,1.358,197.49655,-312.04642,1102.34937,238.84866,-261.07242,1048.90808,265.49942,-209.83743,1113.5791
165,1.367,197.04384,-311.73132,1102.14465,238.84866,-261.07242,1048.90808,265.56177,-210.15883,1113.9021
166,1.375,196.93393,-312.25247,1102.5387,238.54549,-261.19287,1048.83313,265.76413,-210.21591,1113.77332
167,1.383,196.66795,-312.59949,1102.70349,238.28714,-261.3175,1048.74304,265.35522,-210.07597,1113.76416
168,1.392,195.94473,-312.09607,1102.78271,238.1739,-261.31079,1048.90283,265.56177,-210.15883,1113.9021
169,1.4,195.94473,-312.09607,1102.78271,238.1739,-261.31079,1048.90283,265.29556,-210.35965,1113.82031
170,1.408,195.75739,-312.45837,1102.89038,238.13896,-261.25803,1049.05615,265.07681,-210.59225,1113.89685
171,1.417,195.75739,-312.45837,1102.89038,237.60565,-261.63245,1049.23267,265.07681,-210.59225,1113.89685
172,1.425,195.65034,-312.89526,1103.22778,237.60565,-261.63245,1049.23267,265.07681,-210.59225,1113.89685
173,1.433,195.65034,-312.89526,1103.22778,237.60565,-261.63245,1049.23267,264.90836,-210.64001,1114.15125
174,1.442,195.65034,-312.89526,1103.22778,237.26442,-262.01208,1049.27478,264.86926,-210.83293,1114.72729
175,1.45,195.52095,-313.02328,1103.31531,237.26442,-262.01208,1049.27478,264.66907,-211.13263,1114.62805
176,1.458,195.52095,-313.02328,1103.31531,237.26442,-262.01208,1049.27478,264.52054,-211.06491,1114.56506
177,1.467,195.54317,-313.1633,1103.24158,237.26442,-262.01208,1049.27478,264.66907,-211.13263,1114.62805
178,1.475,195.41113,-312.76416,1102.97803,237.26442,-262.01208,1049.27478,264.45416,-211.24327,1114.52478
179,1.483,195.57094,-312.38434,1102.81946,237.38698,-261.798,1049.11877,264.62671,-211.10992,1114.04993
180,1.492,195.51178,-312.79135,1102.62354,237.42191,-261.8508,1048.96545,264.41174,-211.22055,1113.94666
181,1.5,195.20992,-312.64819,1102.47742,237.48216,-261.68411,1048.77698,264.34763,-211.07191,1113.63196
182,1.508,195.21992,-312.14499,1102.47034,237.42191,-261.8508,1048.96545,264.17291,-211.1982,1113.49707
183,1.517,195.02867,-312.36041,1102.38867,237.42191,-261.8508,1048.96545,264.17291,-211.1982,1113.49707
184,1.525,195.94038,-312.65207,1102.31824,237.48216,-261.68411,1048.77698,264.21103,-211.01576,1113.23755
185,1.533,195.94038,-312.65207,1102.31824,237.48216,-261.68411,1048.77698,264.21103,-211.01576,1113.23755
186,1.542,194.50662,-311.36337,1102.03467,237.13104,-261.75098,1048.7771,264.21103,-211.01576,1113.23755
187,1.55,195.90108,-312.93079,1102.5083,237.24428,-261.75769,1048.61731,264.19955,-211.04895,1113.18018
188,1.558,195.92305,-312.75763,1102.39868,237.20938,-261.90277,1048.45215,264.21103,-211.01576,1113.23755
189,1.567,195.92305,-312.75763,1102.39868,237.20938,-261.90277,1048.45215,263.72256,-210.58374,1113.09351
190,1.575,196.00574,-312.68576,1102.27441,236.66612,-261.48285,1048.15771,264.19955,-211.04895,1113.18018
191,1.583,194.71744,-311.63388,1102.02795,236.701,-261.33771,1048.323,263.72256,-210.58374,1113.09351
