Frame#,Time,R.Forearm.x,R.Forearm.y,R.Forearm.z,R.Ulna.x,R.Ulna.y,R.Ulna.z,R.Radius.x,R.Radius.y,R.Radius.z
1,0,-104.70106,-261.78607,943.96893,-22.44165,-228.61569,919.63,-32.90385,-158.1747,961.49054
2,0.008,-104.63445,-261.87665,943.78589,-24.05927,-229.14223,919.67676,-33.24463,-158.51237,961.76062
3,0.017,-104.70106,-261.78607,943.96893,-24.05927,-229.14223,919.67676,-33.24463,-158.51237,961.76062
4,0.025,-105.07806,-261.94852,943.75146,-23.99378,-228.84383,919.36578,-35.10486,-157.31618,961.76538
5,0.033,-105.07806,-261.94852,943.75146,-23.99378,-228.84383,919.36578,-33.24463,-158.51237,961.76062
6,0.042,-105.07806,-261.94852,943.75146,-23.99378,-228.84383,919.36578,-33.24463,-158.51237,961.76062
7,0.05,-105.07806,-261.94852,943.75146,-24.05927,-229.14223,919.67676,-33.24463,-158.51237,961.76062
8,0.058,-104.77982,-262.08682,943.6535,-23.69064,-228.99034,919.18427,-33.24463,-158.51237,961.76062
9,0.067,-104.71917,-262.14984,943.48297,-23.69064,-228.99034,919.18427,-33.24463,-158.51237,961.76062
10,0.075,-104.77982,-262.08682,943.6535,-23.62332,-229.29572,918.75812,-33.24463,-158.51237,961.76062
11,0.083,-104.62865,-262.12906,943.55597,-23.62332,-229.29572,918.75812,-33.24463,-158.51237,961.76062
12,0.092,-104.62865,-262.12906,943.55597,-23.62332,-229.29572,918.75812,-32.89858,-158.69595,961.55157
13,0.1,-104.62865,-262.12906,943.55597,-23.62332,-229.29572,918.75812,-32.89858,-158.69595,961.55157
14,0.108,-103.99764,-262.18073,942.92456,-22.82438,-229.39456,918.53833,-34.58086,-157.08455,961.38739
15,0.117,-104.12855,-262.18768,943.43048,-22.82438,-229.39456,918.53833,-32.55784,-158.35823,961.28143
16,0.125,-104.07454,-262.2374,943.2774,-22.82438,-229.39456,918.53833,-32.55784,-158.35823,961.28143
17,0.133,-104.12855,-262.18768,943.43048,-22.43439,-230.12317,918.44995,-32.86372,-157.92572,961.02252
18,0.142,-104.12855,-262.18768,943.43048,-22.82438,-229.39456,918.53833,-32.80686,-157.61525,960.68848
19,0.15,-103.87339,-262.16449,943.2536,-22.27847,-229.3902,918.53876,-32.80686,-157.61525,960.68848
20,0.158,-104.07454,-262.2374,943.2774,-22.39958,-229.29185,918.65979,-32.80686,-157.61525,960.68848
21,0.167,-104.07454,-262.2374,943.2774,-22.82438,-229.39456,918.53833,-32.51887,-157.75679,960.45026
22,0.175,-103.87339,-262.16449,943.2536,-22.27847,-229.3902,918.53876,-32.80686,-157.61525,960.68848
23,0.183,-103.87339,-262.16449,943.2536,-22.82438,-229.39456,918.53833,-32.80686,-157.61525,960.68848
24,0.192,-103.87339,-262.16449,943.2536,-22.82438,-229.39456,918.53833,-32.80686,-157.61525,960.68848
25,0.2,-103.87339,-262.16449,943.2536,-22.82438,-229.39456,918.53833,-32.51887,-157.75679,960.45026
26,0.208,-104.07454,-262.2374,943.2774,-22.82438,-229.39456,918.53833,-32.80686,-157.61525,960.68848
27,0.217,-103.97837,-262.30841,943.14996,-22.82438,-229.39456,918.53833,-32.80686,-157.61525,960.68848
28,0.225,-103.93784,-262.2388,942.77692,-22.82438,-229.39456,918.53833,-34.62637,-156.51752,960.96069
29,0.233,-104.07454,-262.2374,943.2774,-22.82438,-229.39456,918.53833,-32.80686,-157.61525,960.68848
30,0.242,-103.97837,-262.30841,943.14996,-22.82438,-229.39456,918.53833,-32.80686,-157.61525,960.68848
31,0.25,-104.07454,-262.2374,943.2774,-22.82438,-229.39456,918.53833,-32.86372,-157.92572,961.02252
32,0.258,-104.12855,-262.18768,943.43048,-22.39958,-229.29185,918.65979,-32.86372,-157.92572,961.02252
33,0.267,-104.07454,-262.2374,943.2774,-22.39958,-229.29185,918.65979,-32.80686,-157.61525,960.68848
34,0.275,-103.92657,-262.10849,943.40302,-21.86885,-229.27528,918.67535,-32.80686,-157.61525,960.68848
35,0.283,-103.87339,-262.16449,943.2536,-21.86885,-229.27528,918.67535,-32.86372,-157.92572,961.02252
36,0.292,-103.27431,-262.08301,943.54047,-21.86885,-229.27528,918.67535,-32.86372,-157.92572,961.02252
37,0.3,-103.17788,-261.86191,943.75165,-21.93609,-228.97002,919.10138,-32.86372,-157.92572,961.02252
38,0.308,-102.9171,-261.99362,943.28589,-21.93609,-228.97002,919.10138,-34.94141,-156.66893,961.38538
39,0.317,-103.17788,-261.86191,943.75165,-22.15339,-228.68037,919.54858,-33.1529,-157.43172,960.89764
40,0.325,-103.1215,-261.93616,943.59625,-22.15339,-228.68037,919.54858,-32.86372,-157.92572,961.02252
41,0.333,-102.6972,-261.33197,943.87427,-21.61632,-228.44159,919.74438,-32.86372,-157.92572,961.02252
42,0.342,-102.6972,-261.33197,943.87427,-21.61632,-228.44159,919.74438,-32.86372,-157.92572,961.02252
43,0.35,-102.63803,-261.4534,943.71985,-21.61632,-228.44159,919.74438,-32.86372,-157.92572,961.02252
44,0.358,-102.5656,-261.46051,943.83917,-21.61632,-228.44159,919.74438,-32.80686,-157.61525,960.68848
45,0.367,-102.6972,-261.33197,943.87427,-21.61632,-228.44159,919.74438,-32.86372,-157.92572,961.02252
46,0.375,-102.63803,-261.4534,943.71985,-21.61632,-228.44159,919.74438,-32.40648,-157.49002,960.8656
47,0.383,-102.44786,-261.48898,943.69019,-21.61632,-228.44159,919.74438,-32.40648,-157.49002,960.8656
48,0.392,-102.40038,-261.19592,943.9292,-21.61632,-228.44159,919.74438,-31.78261,-156.85756,961.05408
49,0.4,-102.24475,-261.39938,943.64868,-21.61632,-228.44159,919.74438,-32.09719,-157.0585,960.84229
50,0.408,-102.3517,-261.56003,943.56281,-21.61688,-228.63274,919.51056,-32.09719,-157.0585,960.84229
51,0.417,-101.9566,-261.10657,944.04492,-21.61688,-228.63274,919.51056,-32.09719,-157.0585,960.84229
52,0.425,-102.01704,-261.21982,943.59808,-21.54946,-228.9381,919.08466,-32.09719,-157.0585,960.84229
53,0.433,-102.00034,-261.18338,943.40747,-21.54878,-228.74704,919.3186,-32.35095,-156.59702,960.66254
54,0.442,-101.98264,-261.05203,943.56464,-21.54946,-228.9381,919.08466,-32.35095,-156.59702,960.66254
55,0.45,-102.01704,-261.21982,943.59808,-21.54946,-228.9381,919.08466,-32.35095,-156.59702,960.66254
56,0.458,-101.98264,-261.05203,943.56464,-21.54878,-228.74704,919.3186,-32.35095,-156.59702,960.66254
57,0.467,-101.98264,-261.05203,943.56464,-21.54946,-228.9381,919.08466,-32.35095,-156.59702,960.66254
58,0.475,-101.98264,-261.05203,943.56464,-21.54878,-228.74704,919.3186,-32.44779,-156.04913,960.72076
59,0.483,-101.82085,-261.02994,943.61273,-21.54878,-228.74704,919.3186,-32.13316,-155.84804,960.93262
60,0.492,-101.64948,-260.96729,943.63501,-21.54878,-228.74704,919.3186,-32.44779,-156.04913,960.72076
61,0.5,-101.64948,-260.96729,943.63501,-21.54878,-228.74704,919.3186,-31.73952,-155.76125,961.06152
62,0.508,-101.64948,-260.96729,943.63501,-21.54878,-228.74704,919.3186,-31.73952,-155.76125,961.06152
63,0.517,-101.57703,-260.97443,943.75439,-21.61632,-228.44159,919.74438,-31.73952,-155.76125,961.06152
64,0.525,-101.57703,-260.97443,943.75439,-21.61632,-228.44159,919.74438,-31.67867,-155.4987,961.19214
65,0.533,-101.04967,-261.35577,943.38647,-21.61632,-228.44159,919.74438,-31.67867,-155.4987,961.19214
66,0.542,-101.04268,-260.92627,943.32147,-21.61632,-228.44159,919.74438,-31.67867,-155.4987,961.19214
67,0.55,-100.84969,-261.02646,943.35016,-21.61632,-228.44159,919.74438,-33.44305,-154.42628,961.42706
68,0.558,-100.94431,-261.03595,943.41376,-21.29743,-228.29601,919.9201,-31.67867,-155.4987,961.19214
69,0.567,-100.77776,-260.99036,943.26355,-21.29743,-228.29601,919.9201,-31.67867,-155.4987,961.19214
70,0.575,-101.18621,-260.76746,943.8045,-21.29743,-228.29601,919.9201,-31.39094,-155.64001,960.95404
71,0.583,-100.71239,-261.07974,943.3468,-21.29743,-228.29601,919.9201,-31.39094,-155.64001,960.95404
72,0.592,-101.23553,-260.69528,943.7334,-21.05572,-227.90218,919.95184,-31.67867,-155.4987,961.19214
73,0.6,-101.13329,-260.65665,943.64575,-21.05572,-227.90218,919.95184,-31.67867,-155.4987,961.19214
74,0.608,-101.18621,-260.76746,943.8045,-21.05572,-227.90218,919.95184,-31.67867,-155.4987,961.19214
75,0.617,-100.66187,-260.96051,943.1618,-21.05572,-227.90218,919.95184,-31.67867,-155.4987,961.19214
76,0.625,-101.23553,-260.69528,943.7334,-21.05572,-227.90218,919.95184,-31.67867,-155.4987,961.19214
77,0.633,-101.23553,-260.69528,943.7334,-21.05572,-227.90218,919.95184,-31.67867,-155.4987,961.19214
78,0.642,-101.4589,-260.66653,943.78406,-21.05572,-227.90218,919.95184,-31.67867,-155.4987,961.19214
79,0.65,-101.37544,-260.62943,943.70532,-21.05572,-227.90218,919.95184,-31.67867,-155.4987,961.19214
80,0.658,-101.23553,-260.69528,943.7334,-21.05572,-227.90218,919.95184,-31.67867,-155.4987,961.19214
81,0.667,-101.23215,-260.53729,943.85974,-21.05572,-227.90218,919.95184,-31.67867,-155.4987,961.19214
82,0.675,-101.23885,-260.65152,944.00507,-21.05572,-227.90218,919.95184,-31.67867,-155.4987,961.19214
83,0.683,-101.23885,-260.65152,944.00507,-21.05572,-227.90218,919.95184,-32.02471,-155.31503,961.40137
84,0.692,-101.23885,-260.65152,944.00507,-21.05572,-227.90218,919.95184,-32.02471,-155.31503,961.40137
85,0.7,-101.23885,-260.65152,944.00507,-21.05572,-227.90218,919.95184,-32.02471,-155.31503,961.40137
86,0.708,-101.33501,-260.58047,944.13245,-21.05572,-227.90218,919.95184,-32.02471,-155.31503,961.40137
87,0.717,-101.23885,-260.65152,944.00507,-20.30355,-228.14937,920.75958,-31.9526,-155.68082,962.00842
88,0.725,-101.33501,-260.58047,944.13245,-20.96297,-227.58371,920.38806,-31.9526,-155.68082,962.00842
89,0.733,-101.26166,-260.46695,944.57434,-20.30355,-228.14937,920.75958,-31.9526,-155.68082,962.00842
90,0.742,-101.26166,-260.46695,944.57434,-20.55654,-228.04611,920.97955,-31.9526,-155.68082,962.00842
91,0.75,-101.21515,-260.41965,944.21326,-20.30355,-228.14937,920.75958,-31.64637,-156.11356,962.26721
92,0.758,-101.21515,-260.41965,944.21326,-20.70998,-227.687,920.16809,-31.9526,-155.68082,962.00842
93,0.767,-101.11899,-260.49069,944.08594,-20.70998,-227.687,920.16809,-32.02471,-155.31503,961.40137
94,0.775,-101.1655,-260.53802,944.44702,-20.70998,-227.687,920.16809,-31.67867,-155.4987,961.19214
95,0.783,-101.10949,-260.496,944.37274,-20.70998,-227.687,920.16809,-31.67867,-155.4987,961.19214
96,0.792,-101.1655,-260.53802,944.44702,-20.70998,-227.687,920.16809,-31.67867,-155.4987,961.19214
97,0.8,-100.60262,-260.75473,943.57776,-20.70998,-227.687,920.16809,-31.67867,-155.4987,961.19214
98,0.808,-100.49062,-260.7341,943.49023,-21.05572,-227.90218,919.95184,-31.67867,-155.4987,961.19214
99,0.817,-101.27867,-260.58466,944.22076,-21.05572,-227.90218,919.95184,-31.67867,-155.4987,961.19214
100,0.825,-101.31973,-260.47073,944.09448,-21.05572,-227.90218,919.95184,-31.67867,-155.4987,961.19214
101,0.833,-101.42196,-260.67682,944.06635,-21.05572,-227.90218,919.95184,-31.67867,-155.4987,961.19214
102,0.842,-100.83776,-260.8544,943.11603,-21.05572,-227.90218,919.95184,-31.67867,-155.4987,961.19214
103,0.85,-101.49442,-260.66971,943.94696,-21.05572,-227.90218,919.95184,-31.67867,-155.4987,961.19214
104,0.858,-101.34903,-260.57419,943.48773,-21.05572,-227.90218,919.95184,-31.67867,-155.4987,961.19214
105,0.867,-101.44788,-260.62228,943.58594,-21.05572,-227.90218,919.95184,-31.67867,-155.4987,961.19214
106,0.875,-101.44788,-260.62228,943.58594,-21.05572,-227.90218,919.95184,-31.67867,-155.4987,961.19214
107,0.883,-101.44788,-260.62228,943.58594,-21.05572,-227.90218,919.95184,-31.67867,-155.4987,961.19214
108,0.892,-101.44788,-260.62228,943.58594,-21.05572,-227.90218,919.95184,-31.67867,-155.4987,961.19214
109,0.9,-101.44788,-260.62228,943.58594,-21.29743,-228.29601,919.9201,-31.67867,-155.4987,961.19214
110,0.908,-101.04268,-260.92627,943.32147,-21.64195,-227.32271,919.82288,-33.66093,-154.31616,961.60352
111,0.917,-101.37544,-260.62943,943.70532,-21.97833,-227.10019,919.95569,-32.02471,-155.31503,961.40137
112,0.925,-101.69009,-260.59476,943.64563,-22.22012,-227.49406,919.92401,-32.02471,-155.31503,961.40137
113,0.933,-101.7138,-260.53088,943.8924,-21.55048,-228.19275,920.14008,-32.02471,-155.31503,961.40137
114,0.942,-101.7138,-260.53088,943.8924,-21.55048,-228.19275,920.14008,-32.02471,-155.31503,961.40137
115,0.95,-101.7138,-260.53088,943.8924,-21.55048,-228.19275,920.14008,-32.02471,-155.31503,961.40137
116,0.958,-101.7104,-260.37289,944.01868,-21.55048,-228.19275,920.14008,-32.48506,-155.16733,961.56
117,0.967,-101.7104,-260.37289,944.01868,-21.55048,-228.19275,920.14008,-32.48506,-155.16733,961.56
118,0.975,-101.84715,-260.25357,944.3291,-21.55048,-228.19275,920.14008,-32.48506,-155.16733,961.56
119,0.983,-102.25754,-259.79257,944.82715,-21.55048,-228.19275,920.14008,-33.15446,-154.73383,961.96912
120,0.992,-102.17754,-260.05603,944.638,-22.55634,-227.27155,920.05695,-32.41291,-155.5331,962.16705
121,1,-102.59093,-260.16599,944.79492,-22.55634,-227.27155,920.05695,-32.48506,-155.16733,961.56
122,1.008,-102.51213,-260.39612,944.60284,-22.55634,-227.27155,920.05695,-32.48506,-155.16733,961.56
123,1.017,-102.73709,-260.44061,944.87622,-22.13828,-227.73996,920.25214,-33.15446,-154.73383,961.96912
124,1.025,-102.73709,-260.44061,944.87622,-22.46751,-227.62495,920.78497,-33.15446,-154.73383,961.96912
125,1.033,-102.92873,-260.40015,944.90948,-22.87462,-227.16238,920.19318,-33.15446,-154.73383,961.96912
126,1.042,-102.73709,-260.44061,944.87622,-22.87462,-227.16238,920.19318,-33.15446,-154.73383,961.96912
127,1.05,-102.92873,-260.40015,944.90948,-23.19366,-227.27605,920.05634,-33.15446,-154.73383,961.96912
128,1.058,-102.92873,-260.40015,944.90948,-22.87462,-227.16238,920.19318,-33.15446,-154.73383,961.96912
129,1.067,-102.92873,-260.40015,944.90948,-23.19366,-227.27605,920.05634,-33.15446,-154.73383,961.96912
130,1.075,-103.00127,-260.63739,944.8717,-23.19366,-227.27605,920.05634,-33.15446,-154.73383,961.96912
131,1.083,-103.00127,-260.63739,944.8717,-23.19366,-227.27605,920.05634,-33.15446,-154.73383,961.96912
132,1.092,-103.13463,-260.61978,944.90747,-22.78637,-227.73866,920.64825,-33.15446,-154.73383,961.96912
133,1.1,-103.13463,-260.61978,944.90747,-22.78637,-227.73866,920.64825,-33.15446,-154.73383,961.96912
134,1.108,-103.06207,-260.38254,944.94525,-22.78637,-227.73866,920.64825,-32.84828,-155.16644,962.22791
135,1.117,-103.43766,-260.24164,944.92889,-22.78637,-227.73866,920.64825,-33.15446,-154.73383,961.96912
136,1.125,-102.92873,-260.40015,944.90948,-22.36833,-228.20712,920.84344,-33.15446,-154.73383,961.96912
137,1.133,-103.06207,-260.38254,944.94525,-22.78637,-227.73866,920.64825,-33.15446,-154.73383,961.96912
138,1.142,-103.06207,-260.38254,944.94525,-22.78637,-227.73866,920.64825,-33.15446,-154.73383,961.96912
139,1.15,-103.01765,-260.75165,944.54309,-22.78637,-227.73866,920.64825,-33.15446,-154.73383,961.96912
140,1.158,-102.69885,-260.65009,944.40692,-22.78637,-227.73866,920.64825,-33.15446,-154.73383,961.96912
141,1.167,-102.69885,-260.65009,944.40692,-22.78637,-227.73866,920.64825,-33.15446,-154.73383,961.96912
142,1.175,-102.69885,-260.65009,944.40692,-22.78637,-227.73866,920.64825,-33.15446,-154.73383,961.96912
143,1.183,-102.56549,-260.66779,944.37115,-23.77989,-226.69608,919.92761,-33.22679,-154.36786,961.36188
144,1.192,-102.62802,-260.83557,944.22992,-23.19366,-227.27605,920.05634,-33.22679,-154.36786,961.36188
145,1.2,-102.56549,-260.66779,944.37115,-23.19366,-227.27605,920.05634,-33.22679,-154.36786,961.36188
146,1.208,-102.76987,-260.64154,944.28302,-23.19366,-227.27605,920.05634,-33.22679,-154.36786,961.36188
147,1.217,-102.70045,-260.82846,944.1106,-23.77989,-226.69608,919.92761,-33.22679,-154.36786,961.36188
148,1.225,-102.7649,-261.19241,943.94891,-23.77989,-226.69608,919.92761,-33.22679,-154.36786,961.36188
149,1.233,-102.63271,-261.20764,943.91626,-23.46153,-226.83717,919.7525,-33.22679,-154.36786,961.36188
150,1.242,-102.83743,-261.18527,943.82959,-23.46153,-226.83717,919.7525,-33.51992,-154.49605,961.18695
151,1.25,-102.70525,-261.2005,943.79694,-23.46153,-226.83717,919.7525,-33.91378,-154.58296,961.05804
152,1.258,-102.73579,-261.27039,943.71899,-23.46153,-226.83717,919.7525,-33.91378,-154.58296,961.05804
153,1.267,-102.83743,-261.18527,943.82959,-23.20866,-226.94072,919.53229,-34.22869,-154.78404,960.84601
154,1.275,-102.83743,-261.18527,943.82959,-23.46153,-226.83717,919.7525,-34.28962,-155.04655,960.71527
155,1.283,-103.28971,-261.05856,943.6994,-23.46153,-226.83717,919.7525,-34.28962,-155.04655,960.71527
156,1.292,-103.18807,-261.14371,943.58887,-23.20866,-226.94072,919.53229,-34.28962,-155.04655,960.71527
157,1.3,-103.29507,-261.30432,943.50293,-23.46153,-226.83717,919.7525,-34.28962,-155.04655,960.71527
158,1.308,-103.58573,-261.54922,943.10468,-23.46153,-226.83717,919.7525,-35.24161,-154.54231,961.11542
159,1.317,-103.37583,-261.21161,943.61102,-23.20866,-226.94072,919.53229,-34.28962,-155.04655,960.71527
160,1.325,-103.71074,-261.55124,943.57593,-23.46153,-226.83717,919.7525,-34.28962,-155.04655,960.71527
161,1.333,-103.71074,-261.55124,943.57593,-23.46153,-226.83717,919.7525,-34.28962,-155.04655,960.71527
162,1.342,-103.29507,-261.30432,943.50293,-22.87543,-227.41707,919.88116,-34.28962,-155.04655,960.71527
163,1.35,-103.125,-261.33835,943.01489,-23.46153,-226.83717,919.7525,-35.24161,-154.54231,961.11542
164,1.358,-103.37583,-261.21161,943.61102,-22.53917,-227.63962,919.74823,-34.28962,-155.04655,960.71527
165,1.367,-103.29507,-261.30432,943.50293,-22.53917,-227.63962,919.74823,-34.28962,-155.04655,960.71527
166,1.375,-103.29507,-261.30432,943.50293,-22.87543,-227.41707,919.88116,-34.28962,-155.04655,960.71527
167,1.383,-103.37583,-261.21161,943.61102,-22.87543,-227.41707,919.88116,-33.50726,-156.70451,961.18958
168,1.392,-103.29507,-261.30432,943.50293,-22.53917,-227.63962,919.74823,-33.4504,-156.39386,960.85547
169,1.4,-103.29507,-261.30432,943.50293,-22.53917,-227.63962,919.74823,-34.19278,-155.59415,960.6571
170,1.408,-103.29507,-261.30432,943.50293,-22.53917,-227.63962,919.74823,-33.48089,-156.71082,960.7074
171,1.417,-103.94094,-261.67923,943.43689,-22.53917,-227.63962,919.74823,-33.48089,-156.71082,960.7074
172,1.425,-103.84138,-261.65018,942.94794,-22.53917,-227.63962,919.74823,-34.97248,-155.81885,961.40186
173,1.433,-103.94094,-261.67923,943.43689,-22.53917,-227.63962,919.74823,-33.48089,-156.71082,960.7074
174,1.442,-103.84478,-261.75021,943.30951,-22.53917,-227.63962,919.74823,-34.19278,-155.59415,960.6571
175,1.45,-103.94094,-261.67923,943.43689,-22.47151,-227.94502,919.32239,-33.48089,-156.71082,960.7074
176,1.458,-103.94094,-261.67923,943.43689,-22.53917,-227.63962,919.74823,-33.53775,-157.02142,961.0415
177,1.467,-104.09381,-261.82611,943.3811,-22.47151,-227.94502,919.32239,-33.20976,-157.74217,961.23169
178,1.475,-104.13939,-261.62668,943.39972,-22.53917,-227.63962,919.74823,-33.20976,-157.74217,961.23169
179,1.483,-104.09381,-261.82611,943.3811,-22.83683,-228.33012,918.85431,-33.20976,-157.74217,961.23169
180,1.492,-104.58964,-261.77551,943.49512,-22.90428,-228.02483,919.28027,-33.20976,-157.74217,961.23169
181,1.5,-104.58964,-261.77551,943.49512,-22.18841,-228.53185,919.73035,-33.20976,-157.74217,961.23169
182,1.508,-104.59117,-261.65921,943.01782,-22.85835,-227.83313,919.51404,-34.94141,-156.66893,961.38538
183,1.517,-104.28444,-261.84103,943.67047,-22.18841,-228.53185,919.73035,-33.20976,-157.74217,961.23169
184,1.525,-104.28444,-261.84103,943.67047,-22.18841,-228.53185,919.73035,-33.20976,-157.74217,961.23169
185,1.533,-104.28444,-261.84103,943.67047,-22.18841,-228.53185,919.73035,-33.20976,-157.74217,961.23169
186,1.542,-104.28444,-261.84103,943.67047,-22.18841,-228.53185,919.73035,-33.20976,-157.74217,961.23169
187,1.55,-103.99416,-261.50858,943.8725,-22.18841,-228.53185,919.73035,-33.20976,-157.74217,961.23169
188,1.558,-104.08327,-261.76813,943.64667,-22.18841,-228.53185,919.73035,-33.20976,-157.74217,961.23169
189,1.567,-104.08327,-261.76813,943.64667,-22.18841,-228.53185,919.73035,-33.20976,-157.74217,961.23169
190,1.575,-103.93041,-261.62125,943.70245,-22.18841,-228.53185,919.73035,-33.1529,-157.43172,960.89764
191,1.583,-103.99416,-261.50858,943.8725,-22.1669,-229.02884,919.07068,-33.1529,-157.43172,960.89764
192,1.592,-103.83425,-261.6922,943.57501,-22.1669,-229.02884,919.07068,-32.80686,-157.61525,960.68848
193,1.6,-103.59829,-261.73834,943.58472,-22.12178,-229.17204,918.89551,-32.80686,-157.61525,960.68848
194,1.608,-103.40955,-261.84235,943.39911,-21.86885,-229.27528,918.67535,-32.80686,-157.61525,960.68848
