Frame#,Time,L.Forearm.x,L.Forearm.y,L.Forearm.z,L.Ulna.x,L.Ulna.y,L.Ulna.z,L.Radius.x,L.Radius.y,L.Radius.z
1,0,-88.74196,336.32898,602.71844,-119.42162,371.24109,518.21564,-50.7047,324.69006,461.16486
2,0.008,-88.59745,336.2066,602.50311,-119.50208,370.98618,518.04834,-50.7047,324.69006,461.16486
3,0.017,-88.35542,336.228,602.17609,-119.71291,371.02673,517.91113,-50.7047,324.69006,461.16486
4,0.025,-88.35542,336.228,602.17609,-119.71291,371.02673,517.91113,-50.7047,324.69006,461.16486
5,0.033,-88.35542,336.228,602.17609,-119.67581,370.99097,517.66779,-50.42347,324.66772,460.88718
6,0.042,-88.35542,336.228,602.17609,-120.07041,371.17868,517.50226,-50.7047,324.69006,461.16486
7,0.05,-88.35542,336.228,602.17609,-119.88399,370.92404,517.45667,-50.7047,324.69006,461.16486
8,0.058,-88.6207,336.23404,601.97363,-120.09371,371.10266,517.24243,-50.7047,324.69006,461.16486
9,0.067,-88.6207,336.23404,601.97363,-120.4259,371.19543,517.29376,-50.42347,324.66772,460.88718
10,0.075,-88.6207,336.23404,601.97363,-120.09371,371.10266,517.24243,-50.42347,324.66772,460.88718
11,0.083,-88.6207,336.23404,601.97363,-120.09371,371.10266,517.24243,-50.7047,324.69006,461.16486
12,0.092,-88.76515,336.35648,602.18903,-119.86066,371.00006,517.71643,-50.35529,325.67355,461.88681
13,0.1,-89.00724,336.33505,602.51605,-120.07041,371.17868,517.50226,-50.35529,325.67355,461.88681
14,0.108,-88.74196,336.32898,602.71844,-119.86066,371.00006,517.71643,-50.35529,325.67355,461.88681
15,0.117,-89.03274,336.14209,602.92096,-119.59535,371.24591,517.83508,-50.35529,325.67355,461.88681
16,0.125,-88.80339,336.19376,602.84583,-119.11436,371.32822,517.94153,-50.35529,325.67355,461.88681
17,0.133,-89.03274,336.14209,602.92096,-119.12666,371.35648,518.17426,-49.54139,325.93546,462.27063
18,0.142,-88.7132,336.2049,603.24036,-118.93722,371.59872,518.33374,-49.53212,325.14136,462.10385
19,0.15,-88.48387,336.25653,603.16522,-118.67883,371.90735,518.32947,-49.2359,325.13165,462.194
20,0.158,-88.7132,336.2049,603.24036,-118.40788,372.44757,518.70129,-49.19013,324.95959,462.31216
21,0.167,-88.48387,336.25653,603.16522,-118.23285,372.37845,518.70947,-49.19013,324.95959,462.31216
22,0.175,-88.30524,336.17615,603.21356,-117.66305,372.22015,518.68701,-49.08305,324.64148,462.05704
23,0.183,-87.98888,335.69382,603.41693,-117.60034,372.97253,519.11371,-49.19013,324.95959,462.31216
24,0.192,-87.5262,336.15918,603.80957,-117.53354,372.40384,518.88965,-49.19013,324.95959,462.31216
25,0.2,-86.93843,336.21094,604.30957,-117.60034,372.97253,519.11371,-49.08305,324.64148,462.05704
26,0.208,-86.93843,336.21094,604.30957,-117.60034,372.97253,519.11371,-49.08305,324.64148,462.05704
27,0.217,-86.93843,336.21094,604.30957,-117.60034,372.97253,519.11371,-49.08305,324.64148,462.05704
28,0.225,-87.21645,335.87903,603.93958,-117.53354,372.40384,518.88965,-49.08305,324.64148,462.05704
29,0.233,-87.21645,335.87903,603.93958,-117.53354,372.40384,518.88965,-49.08305,324.64148,462.05704
30,0.242,-87.08218,335.72443,603.76166,-117.53354,372.40384,518.88965,-49.12883,324.81354,461.93887
31,0.25,-87.33418,335.59482,603.20282,-117.66305,372.22015,518.68701,-49.12883,324.81354,461.93887
32,0.258,-87.36189,335.53342,602.90369,-118.11871,371.40106,518.58179,-49.08305,324.64148,462.05704
33,0.267,-87.33418,335.59482,603.20282,-118.66454,371.55783,518.59821,-49.4779,323.83002,461.2171
34,0.275,-87.67704,335.62668,603.04938,-118.66454,371.55783,518.59821,-49.4779,323.83002,461.2171
35,0.283,-87.7719,335.22263,603.2478,-118.9757,371.33292,518.4873,-49.4779,323.83002,461.2171
36,0.292,-87.7719,335.22263,603.2478,-118.9757,371.33292,518.4873,-49.77429,323.83966,461.12686
37,0.3,-87.7719,335.22263,603.2478,-118.9757,371.33292,518.4873,-49.77429,323.83966,461.12686
38,0.308,-87.7719,335.22263,603.2478,-119.14659,371.39404,518.48499,-49.77429,323.83966,461.12686
39,0.317,-87.7719,335.22263,603.2478,-119.14659,371.39404,518.48499,-49.77429,323.83966,461.12686
40,0.325,-87.52992,335.24399,602.92096,-119.41315,370.89063,518.10645,-49.77429,323.83966,461.12686
41,0.333,-86.70838,335.19226,603.39746,-119.48561,371.0058,518.43353,-49.77429,323.83966,461.12686
42,0.342,-86.70838,335.19226,603.39746,-119.56606,370.75085,518.2663,-49.77429,323.83966,461.12686
43,0.35,-86.70838,335.19226,603.39746,-119.56606,370.75085,518.2663,-49.77429,323.83966,461.12686
44,0.358,-87.11131,335.23752,603.883,-119.56606,370.75085,518.2663,-49.77429,323.83966,461.12686
45,0.367,-88.18188,335.37024,603.55286,-119.43652,370.93466,518.46899,-49.42505,324.8233,461.84872
46,0.375,-88.21059,335.16473,603.71906,-119.35604,371.18958,518.63623,-49.12883,324.81354,461.93887
47,0.383,-88.20648,335.13028,604.05225,-119.35604,371.18958,518.63623,-49.08305,324.64148,462.05704
48,0.392,-88.20648,335.13028,604.05225,-119.18516,371.12845,518.63855,-49.08305,324.64148,462.05704
49,0.4,-87.92404,334.34995,604.44293,-118.9757,371.33292,518.4873,-49.08305,324.64148,462.05704
50,0.408,-87.83313,334.39325,604.71307,-118.11871,371.40106,518.58179,-49.08305,324.64148,462.05704
51,0.417,-87.83313,334.39325,604.71307,-118.11871,371.40106,518.58179,-49.08305,324.64148,462.05704
52,0.425,-88.38486,334.71237,605.01276,-117.93272,371.64963,518.79309,-49.09651,324.07034,461.97491
53,0.433,-88.13111,335.51816,605.07062,-117.79188,371.69174,518.71234,-49.09651,324.07034,461.97491
54,0.442,-87.39769,335.36133,605.00452,-117.56577,371.64545,518.83276,-48.51657,324.20975,462.07574
55,0.45,-87.53884,335.5069,605.04242,-117.56577,371.64545,518.83276,-48.51657,324.20975,462.07574
56,0.458,-87.95403,335.57693,604.99603,-117.93272,371.64963,518.79309,-48.51657,324.20975,462.07574
57,0.467,-88.25961,335.54233,604.71106,-117.97786,371.44318,518.50104,-49.08305,324.64148,462.05704
58,0.475,-88.08543,335.22214,604.49072,-118.11871,371.40106,518.58179,-49.08305,324.64148,462.05704
59,0.483,-88.3161,335.48248,604.39764,-118.17669,371.75366,518.9411,-49.08305,324.64148,462.05704
60,0.492,-88.16293,335.39914,604.15924,-117.97786,371.44318,518.50104,-49.08305,324.64148,462.05704
61,0.5,-88.55782,335.32526,603.97186,-118.66454,371.55783,518.59821,-49.08305,324.64148,462.05704
62,0.508,-88.55782,335.32526,603.97186,-118.9757,371.33292,518.4873,-49.08305,324.64148,462.05704
63,0.517,-88.48273,334.96365,603.40143,-118.9757,371.33292,518.4873,-49.12883,324.81354,461.93887
64,0.525,-88.46245,335.11353,603.24738,-119.14659,371.39404,518.48499,-49.12883,324.81354,461.93887
65,0.533,-88.68044,335.27521,603.76727,-119.14659,371.39404,518.48499,-49.12883,324.81354,461.93887
66,0.542,-88.47617,335.99603,603.73718,-119.3327,371.14557,518.27374,-49.53212,325.14136,462.10385
67,0.55,-88.74585,335.70218,603.32269,-119.41315,370.89063,518.10645,-49.92011,325.05231,462.04816
68,0.558,-88.64518,336.10999,603.2395,-119.59158,370.90546,518.14801,-49.92011,325.05231,462.04816
69,0.567,-88.91353,335.82074,603.07501,-119.51112,371.16037,518.31525,-49.92933,325.84641,462.21494
70,0.575,-88.64518,336.10999,603.2395,-119.59158,370.90546,518.14801,-49.92933,325.84641,462.21494
71,0.583,-89.10946,335.8876,603.06213,-119.59158,370.90546,518.14801,-49.92933,325.84641,462.21494
72,0.592,-88.91353,335.82074,603.07501,-119.80242,370.94601,518.01074,-50.35529,325.67355,461.88681
73,0.6,-89.10946,335.8876,603.06213,-120.1675,371.04526,518.04071,-50.35529,325.67355,461.88681
74,0.608,-89.10946,335.8876,603.06213,-120.1675,371.04526,518.04071,-50.35529,325.67355,461.88681
75,0.617,-89.10946,335.8876,603.06213,-120.1675,371.04526,518.04071,-50.35529,325.67355,461.88681
76,0.625,-89.15068,335.7641,603.23883,-120.1675,371.04526,518.04071,-50.35529,325.67355,461.88681
77,0.633,-88.88231,336.05334,603.40326,-119.59158,370.90546,518.14801,-50.35529,325.67355,461.88681
78,0.642,-88.88343,335.9985,603.82568,-119.51112,371.16037,518.31525,-49.92933,325.84641,462.21494
79,0.65,-88.71466,335.93478,603.65088,-119.51112,371.16037,518.31525,-49.92933,325.84641,462.21494
80,0.658,-88.88343,335.9985,603.82568,-119.51112,371.16037,518.31525,-49.92933,325.84641,462.21494
81,0.667,-88.71332,335.93936,603.901,-119.51112,371.16037,518.31525,-49.92933,325.84641,462.21494
82,0.675,-88.51741,335.87247,603.91382,-119.51112,371.16037,518.31525,-49.92933,325.84641,462.21494
83,0.683,-88.51741,335.87247,603.91382,-119.51112,371.16037,518.31525,-49.92011,325.05231,462.04816
84,0.692,-88.41216,335.56439,603.93158,-119.38284,371.76151,518.88593,-49.82173,324.88605,462.1774
85,0.7,-88.41216,335.56439,603.93158,-119.14659,371.39404,518.48499,-49.54717,324.89587,462.24942
86,0.708,-88.41216,335.56439,603.93158,-119.14659,371.39404,518.48499,-49.19013,324.95959,462.31216
87,0.717,-88.41216,335.56439,603.93158,-119.14659,371.39404,518.48499,-49.19013,324.95959,462.31216
88,0.725,-88.41216,335.56439,603.93158,-118.9757,371.33292,518.4873,-49.19013,324.95959,462.31216
89,0.733,-88.41216,335.56439,603.93158,-118.66454,371.55783,518.59821,-49.19013,324.95959,462.31216
90,0.742,-88.1911,334.87463,604.15686,-118.72246,371.9104,518.95758,-49.08305,324.64148,462.05704
91,0.75,-88.1911,334.87463,604.15686,-118.31497,371.46466,518.58496,-49.08305,324.64148,462.05704
92,0.758,-88.13608,334.74997,604.24976,-118.46828,371.49429,518.59503,-49.08305,324.64148,462.05704
93,0.767,-88.1911,334.87463,604.15686,-118.66454,371.55783,518.59821,-49.09651,324.07034,461.97491
94,0.775,-88.13608,334.74997,604.24976,-118.66454,371.55783,518.59821,-49.08305,324.64148,462.05704
95,0.783,-88.194,335.33908,604.07324,-118.9757,371.33292,518.4873,-49.08305,324.64148,462.05704
96,0.792,-88.194,335.33908,604.07324,-118.9757,371.33292,518.4873,-49.08305,324.64148,462.05704
97,0.8,-88.24904,335.46368,603.98035,-118.9757,371.33292,518.4873,-49.08305,324.64148,462.05704
98,0.808,-88.41216,335.56439,603.93158,-118.9757,371.33292,518.4873,-49.08305,324.64148,462.05704
99,0.817,-88.55965,335.62103,604.11584,-119.22708,371.13913,518.31775,-49.08305,324.64148,462.05704
100,0.825,-88.55965,335.62103,604.11584,-119.3327,371.14557,518.27374,-49.08305,324.64148,462.05704
101,0.833,-88.55965,335.62103,604.11584,-119.48561,371.0058,518.43353,-49.08305,324.64148,462.05704
102,0.842,-88.82794,335.33185,603.95154,-119.74448,370.76566,518.3078,-49.12883,324.81354,461.93887
103,0.85,-88.82794,335.33185,603.95154,-119.74448,370.76566,518.3078,-49.53212,325.14136,462.10385
104,0.858,-89.19153,335.51736,603.69104,-119.99881,370.47458,518.26929,-49.92011,325.05231,462.04816
105,0.867,-89.52847,335.36887,603.61151,-119.99881,370.47458,518.26929,-49.92011,325.05231,462.04816
106,0.875,-89.52847,335.36887,603.61151,-119.99881,370.47458,518.26929,-49.92011,325.05231,462.04816
107,0.883,-89.56018,335.65704,603.39252,-120.34853,370.56784,518.28247,-49.92933,325.84641,462.21494
108,0.892,-89.56018,335.65704,603.39252,-120.44383,370.65765,518.23145,-49.92933,325.84641,462.21494
109,0.9,-90.18107,335.8446,603.4256,-120.44383,370.65765,518.23145,-49.92933,325.84641,462.21494
110,0.908,-90.59144,335.58102,603.35736,-121.28345,370.63431,517.64337,-49.92933,325.84641,462.21494
111,0.917,-90.59144,335.58102,603.35736,-121.08147,370.57043,517.87756,-49.92933,325.84641,462.21494
112,0.925,-90.59144,335.58102,603.35736,-121.24706,371.00793,517.89795,-49.92933,325.84641,462.21494
113,0.933,-90.59144,335.58102,603.35736,-121.03744,370.82935,518.11212,-49.92933,325.84641,462.21494
114,0.942,-90.7743,335.64124,603.13782,-121.42492,370.7276,517.60364,-49.92933,325.84641,462.21494
115,0.95,-90.7743,335.64124,603.13782,-121.24706,371.00793,517.89795,-49.92933,325.84641,462.21494
116,0.958,-90.7743,335.64124,603.13782,-120.76329,370.84552,517.95239,-49.92933,325.84641,462.21494
117,0.967,-90.7743,335.64124,603.13782,-120.89412,371.0813,517.6629,-49.92933,325.84641,462.21494
118,0.975,-90.7743,335.64124,603.13782,-121.29223,370.83701,517.40411,-49.92933,325.84641,462.21494
119,0.983,-90.7743,335.64124,603.13782,-121.11438,371.11737,517.69843,-49.92933,325.84641,462.21494
120,0.992,-90.91122,335.89572,603.22498,-121.11438,371.11737,517.69843,-49.92933,325.84641,462.21494
121,1,-90.91122,335.89572,603.22498,-121.29223,370.83701,517.40411,-49.92933,325.84641,462.21494
122,1.008,-90.81704,335.65106,602.88318,-121.29223,370.83701,517.40411,-49.92933,325.84641,462.21494
123,1.017,-90.81704,335.65106,602.88318,-121.29223,370.83701,517.40411,-49.92933,325.84641,462.21494
124,1.025,-90.81704,335.65106,602.88318,-121.29223,370.83701,517.40411,-49.92933,325.84641,462.21494
125,1.033,-90.56982,336.04022,602.88202,-121.57814,370.90222,517.31165,-49.92933,325.84641,462.21494
126,1.042,-90.75453,336.51279,602.9126,-121.67599,370.72696,516.96741,-50.35529,325.67355,461.88681
127,1.05,-90.84948,335.80173,602.76349,-121.58647,370.68265,516.77386,-50.35529,325.67355,461.88681
128,1.058,-90.84948,335.80173,602.76349,-121.6575,370.68475,516.61816,-50.35529,325.67355,461.88681
129,1.067,-90.84948,335.80173,602.76349,-121.6575,370.68475,516.61816,-50.35529,325.67355,461.88681
130,1.075,-90.84948,335.80173,602.76349,-121.6575,370.68475,516.61816,-50.35529,325.67355,461.88681
131,1.083,-91.16061,335.91159,602.71356,-121.6575,370.68475,516.61816,-50.95259,325.53757,461.81107
132,1.092,-90.60226,336.19086,602.76233,-121.6575,370.68475,516.61816,-50.95259,325.53757,461.81107
133,1.1,-90.91334,336.30072,602.71246,-121.6575,370.68475,516.61816,-50.95259,325.53757,461.81107
134,1.108,-90.91334,336.30072,602.71246,-121.6575,370.68475,516.61816,-50.35529,325.67355,461.88681
135,1.117,-90.84948,335.80173,602.76349,-121.6575,370.68475,516.61816,-50.35529,325.67355,461.88681
136,1.125,-90.68141,336.75729,602.77441,-121.6575,370.68475,516.61816,-50.35529,325.67355,461.88681
137,1.133,-90.68141,336.75729,602.77441,-121.6575,370.68475,516.61816,-50.35529,325.67355,461.88681
138,1.142,-90.37041,336.6474,602.82428,-121.6575,370.68475,516.61816,-50.35529,325.67355,461.88681
139,1.15,-90.60226,336.19086,602.76233,-121.6575,370.68475,516.61816,-50.35529,325.67355,461.88681
140,1.158,-90.33799,336.4968,602.94391,-121.6575,370.68475,516.61816,-50.35529,325.67355,461.88681
141,1.167,-90.60226,336.19086,602.76233,-121.6575,370.68475,516.61816,-50.35529,325.67355,461.88681
142,1.175,-90.37041,336.6474,602.82428,-121.6575,370.68475,516.61816,-50.35529,325.67355,461.88681
143,1.183,-90.33799,336.4968,602.94391,-121.6575,370.68475,516.61816,-49.92933,325.84641,462.21494
144,1.192,-90.33799,336.4968,602.94391,-120.95528,370.82529,516.89276,-49.92933,325.84641,462.21494
145,1.2,-90.37041,336.6474,602.82428,-120.5637,370.92935,516.72552,-49.92011,325.05231,462.04816
146,1.208,-90.33799,336.4968,602.94391,-120.38589,371.20984,517.02002,-49.92011,325.05231,462.04816
147,1.217,-90.33799,336.4968,602.94391,-120.38589,371.20984,517.02002,-49.92011,325.05231,462.04816
148,1.225,-90.33799,336.4968,602.94391,-120.09371,371.10266,517.24243,-49.2359,325.13165,462.194
149,1.233,-90.33799,336.4968,602.94391,-120.08665,370.81311,516.89929,-49.2359,325.13165,462.194
150,1.242,-90.33799,336.4968,602.94391,-119.90887,371.09357,517.19379,-49.2359,325.13165,462.194
151,1.25,-89.8718,336.47513,602.74207,-119.69913,370.91495,517.40796,-49.19013,324.95959,462.31216
152,1.258,-90.33799,336.4968,602.94391,-119.67581,370.99097,517.66779,-49.08305,324.64148,462.05704
153,1.267,-89.51263,336.30728,602.80353,-119.67581,370.99097,517.66779,-49.19013,324.95959,462.31216
154,1.275,-89.51263,336.30728,602.80353,-119.19481,371.07324,517.77423,-49.08305,324.64148,462.05704
155,1.283,-89.30991,336.23947,603.01801,-119.00171,371.37988,517.86084,-49.08305,324.64148,462.05704
156,1.292,-89.30991,336.23947,603.01801,-118.81229,371.62213,518.02039,-49.08305,324.64148,462.05704
157,1.3,-89.28723,336.23709,603.27753,-118.55389,371.93076,518.01611,-48.50322,324.78088,462.15787
158,1.308,-89.01882,336.52634,603.44196,-118.56618,371.95898,518.24872,-48.50322,324.78088,462.15787
159,1.317,-89.01882,336.52634,603.44196,-118.56618,371.95898,518.24872,-48.50322,324.78088,462.15787
160,1.325,-89.01882,336.52634,603.44196,-118.56618,371.95898,518.24872,-48.50322,324.78088,462.15787
161,1.333,-89.01882,336.52634,603.44196,-118.56618,371.95898,518.24872,-48.50322,324.78088,462.15787
162,1.342,-89.01882,336.52634,603.44196,-118.56618,371.95898,518.24872,-48.50322,324.78088,462.15787
163,1.35,-89.01882,336.52634,603.44196,-118.75563,371.71683,518.08923,-49.08305,324.64148,462.05704
164,1.358,-89.01882,336.52634,603.44196,-118.96172,371.50601,518.18872,-49.08305,324.64148,462.05704
165,1.367,-89.01856,336.66165,603.32788,-119.23971,371.40152,517.57452,-49.12883,324.81354,461.93887
166,1.375,-89.04123,336.664,603.06842,-119.16911,371.23273,517.62384,-49.4779,323.83002,461.2171
167,1.383,-89.30967,336.37476,602.90387,-119.58497,371.20059,517.50909,-49.77429,323.83966,461.12686
168,1.392,-89.51238,336.44254,602.68939,-119.77096,371.23361,517.36127,-49.77429,323.83966,461.12686
169,1.4,-89.51238,336.44254,602.68939,-119.77096,371.23361,517.36127,-49.77429,323.83966,461.12686
170,1.408,-89.73366,336.67743,602.35126,-119.94878,370.95316,517.06683,-49.77429,323.83966,461.12686
171,1.417,-89.73366,336.67743,602.35126,-120.16473,370.97565,516.77814,-50.16251,323.75049,461.07104
172,1.425,-89.80698,336.31177,602.08551,-120.51371,370.55499,516.6153,-50.14856,324.32227,461.15344
173,1.433,-89.80698,336.31177,602.08551,-120.84594,370.64783,516.66669,-50.14856,324.32227,461.15344
174,1.442,-89.80698,336.31177,602.08551,-121.77065,370.8887,516.53125,-50.57504,324.14877,460.82486
175,1.45,-90.27316,336.33328,602.28741,-121.77065,370.8887,516.53125,-50.7047,324.69006,461.16486
176,1.458,-90.58418,336.44321,602.23749,-121.77065,370.8887,516.53125,-50.7047,324.69006,461.16486
177,1.467,-91.1625,335.82858,602.13605,-121.77065,370.8887,516.53125,-50.7047,324.69006,461.16486
178,1.475,-91.1657,336.2959,601.90271,-121.77065,370.8887,516.53125,-50.7047,324.69006,461.16486
179,1.483,-91.1657,336.2959,601.90271,-121.77065,370.8887,516.53125,-50.7047,324.69006,461.16486
180,1.492,-91.55887,336.17224,602.06213,-121.77065,370.8887,516.53125,-50.7047,324.69006,461.16486
181,1.5,-91.63178,336.40781,602.4649,-121.77065,370.8887,516.53125,-50.7047,324.69006,461.16486
182,1.508,-91.5954,336.29007,602.26343,-121.77065,370.8887,516.53125,-50.7047,324.69006,461.16486
183,1.517,-91.63178,336.40781,602.4649,-121.77065,370.8887,516.53125,-50.35529,325.67355,461.88681
184,1.525,-91.85425,335.96823,602.52435,-121.77065,370.8887,516.53125,-49.92933,325.84641,462.21494
185,1.533,-91.85425,335.96823,602.52435,-121.77065,370.8887,516.53125,-49.92933,325.84641,462.21494
186,1.542,-91.85425,335.96823,602.52435,-121.70726,370.95804,516.44977,-49.92933,325.84641,462.21494
187,1.55,-91.85425,335.96823,602.52435,-120.30979,370.99368,516.59003,-49.53212,325.14136,462.10385
188,1.558,-91.85425,335.96823,602.52435,-120.06562,371.25235,516.51733,-49.2359,325.13165,462.194
189,1.567,-91.59473,335.87894,602.68549,-119.81851,372.29987,517.08893,-49.19013,324.95959,462.31216
190,1.575,-90.81832,337.01163,602.86157,-119.36748,372.50989,517.11353,-49.19013,324.95959,462.31216
191,1.583,-90.81832,337.01163,602.86157,-119.29163,371.72495,517.02448,-49.19013,324.95959,462.31216
192,1.592,-90.81832,337.01163,602.86157,-119.29163,371.72495,517.02448,-49.08305,324.64148,462.05704
193,1.6,-90.81832,337.01163,602.86157,-119.163,372.43472,516.91229,-49.08305,324.64148,462.05704
194,1.608,-90.81832,337.01163,602.86157,-119.163,372.43472,516.91229,-49.08305,324.64148,462.05704
195,1.617,-91.07769,337.10098,602.70056,-119.46375,371.77689,516.60785,-49.08305,324.64148,462.05704
196,1.625,-91.07769,337.10098,602.70056,-119.79793,372.25327,516.70117,-49.12883,324.81354,461.93887
197,1.633,-91.07769,337.10098,602.70056,-120.00819,372.43188,516.48706,-49.2359,325.13165,462.194
198,1.642,-91.07769,337.10098,602.70056,-120.69946,372.29706,516.10608,-49.53212,325.14136,462.10385
199,1.65,-91.07769,337.10098,602.70056,-120.69946,372.29706,516.10608,-50.35529,325.67355,461.88681
200,1.658,-91.11596,337.35992,602.58398,-121.2105,372.31653,515.92078,-50.35529,325.67355,461.88681
