Frame#,Time,R.Forearm.x,R.Forearm.y,R.Forearm.z,R.Ulna.x,R.Ulna.y,R.Ulna.z,R.Radius.x,R.Radius.y,R.Radius.z
1,0,-15.82009,-197.71098,722.98761,42.48972,-208.73177,650.58423,88.87211,-113.81532,661.33136
2,0.008,-15.82009,-197.71098,722.98761,42.85428,-208.85617,650.4931,88.87211,-113.81532,661.33136
3,0.017,-15.82009,-197.71098,722.98761,42.11956,-208.91068,650.40204,88.87211,-113.81532,661.33136
4,0.025,-16.47611,-197.29903,722.54218,42.11956,-208.91068,650.40204,88.87211,-113.81532,661.33136
5,0.033,-15.82009,-197.71098,722.98761,41.88427,-209.94695,650.82336,88.87211,-113.81532,661.33136
6,0.042,-16.48166,-198.91479,722.68439,41.88427,-209.94695,650.82336,88.87211,-113.81532,661.33136
7,0.05,-16.72035,-197.77539,722.44684,41.88427,-209.94695,650.82336,88.87211,-113.81532,661.33136
8,0.058,-16.6333,-198.0127,721.98566,41.88427,-209.94695,650.82336,88.87211,-113.81532,661.33136
9,0.067,-16.6333,-198.0127,721.98566,41.88427,-209.94695,650.82336,88.87211,-113.81532,661.33136
10,0.075,-16.72035,-197.77539,722.44684,41.88427,-209.94695,650.82336,88.87211,-113.81532,661.33136
11,0.083,-16.72035,-197.77539,722.44684,41.88427,-209.94695,650.82336,89.14687,-114.37743,662.40649
12,0.092,-16.72035,-197.77539,722.44684,42.11956,-208.91068,650.40204,89.14613,-113.98647,662.95374
13,0.1,-16.72035,-197.77539,722.44684,42.11956,-208.91068,650.40204,89.14613,-113.98647,662.95374
14,0.108,-16.47611,-197.29903,722.54218,42.11956,-208.91068,650.40204,89.14613,-113.98647,662.95374
15,0.117,-16.47611,-197.29903,722.54218,42.11956,-208.91068,650.40204,89.14613,-113.98647,662.95374
16,0.125,-16.47611,-197.29903,722.54218,42.11956,-208.91068,650.40204,89.14613,-113.98647,662.95374
17,0.133,-16.47611,-197.29903,722.54218,42.11956,-208.91068,650.40204,89.14613,-113.98647,662.95374
18,0.142,-15.82009,-197.71098,722.98761,42.11956,-208.91068,650.40204,88.87231,-113.42587,661.88
19,0.15,-15.60333,-198.70024,723.1745,42.48972,-208.73177,650.58423,88.87231,-113.42587,661.88
20,0.158,-15.82009,-197.71098,722.98761,42.48972,-208.73177,650.58423,88.87211,-113.81532,661.33136
21,0.167,-15.60333,-198.70024,723.1745,42.11956,-208.91068,650.40204,88.87211,-113.81532,661.33136
22,0.175,-15.60333,-198.70024,723.1745,42.11956,-208.91068,650.40204,88.87211,-113.81532,661.33136
23,0.183,-15.60333,-198.70024,723.1745,42.11956,-208.91068,650.40204,88.87211,-113.81532,661.33136
24,0.192,-15.60333,-198.70024,723.1745,42.11956,-208.91068,650.40204,88.87211,-113.81532,661.33136
25,0.2,-15.54841,-198.91592,722.7655,42.11956,-208.91068,650.40204,88.87211,-113.81532,661.33136
26,0.208,-15.54841,-198.91592,722.7655,42.48972,-208.73177,650.58423,88.87211,-113.81532,661.33136
27,0.217,-15.80613,-199.32106,722.6532,42.11956,-208.91068,650.40204,88.87211,-113.81532,661.33136
28,0.225,-15.80613,-199.32106,722.6532,42.11956,-208.91068,650.40204,88.87211,-113.81532,661.33136
29,0.233,-15.80613,-199.32106,722.6532,42.11956,-208.91068,650.40204,88.87211,-113.81532,661.33136
30,0.242,-15.80613,-199.32106,722.6532,42.11956,-208.91068,650.40204,88.87211,-113.81532,661.33136
31,0.25,-15.80613,-199.32106,722.6532,42.11956,-208.91068,650.40204,88.87211,-113.81532,661.33136
32,0.258,-15.80613,-199.32106,722.6532,44.1987,-208.90926,650.52423,88.87211,-113.81532,661.33136
33,0.267,-15.80613,-199.32106,722.6532,42.85428,-208.85617,650.4931,88.87211,-113.81532,661.33136
34,0.275,-15.80613,-199.32106,722.6532,44.1987,-208.90926,650.52423,88.87231,-113.42587,661.88
35,0.283,-15.73297,-197.94833,722.52661,44.1987,-208.90926,650.52423,87.91728,-112.87342,660.09277
36,0.292,-15.73297,-197.94833,722.52661,44.538,-207.63524,649.9881,88.42551,-111.91672,661.01654
37,0.3,-16.38904,-197.53642,722.08099,44.538,-207.63524,649.9881,88.22934,-111.82424,660.24249
38,0.308,-15.51111,-197.69263,722.29712,44.538,-207.63524,649.9881,88.37315,-112.03917,660.84149
39,0.317,-16.25421,-197.0433,722.31281,44.538,-207.63524,649.9881,88.44079,-112.07237,660.10419
40,0.325,-15.59825,-197.45528,722.75824,44.538,-207.63524,649.9881,88.70625,-112.40489,661.23798
41,0.333,-15.16836,-197.44527,722.6582,44.538,-207.63524,649.9881,88.92617,-112.60881,661.39319
42,0.342,-15.59825,-197.45528,722.75824,44.538,-207.63524,649.9881,88.78677,-112.60752,661.23163
43,0.35,-15.59825,-197.45528,722.75824,44.538,-207.63524,649.9881,88.80101,-112.70703,661.31604
44,0.358,-15.16836,-197.44527,722.6582,45.02217,-207.90288,649.77582,89.2784,-113.02925,660.89252
45,0.367,-15.59825,-197.45528,722.75824,45.02217,-207.90288,649.77582,89.03472,-112.9576,660.53796
46,0.375,-15.16836,-197.44527,722.6582,44.538,-207.63524,649.9881,88.39945,-112.74328,661.10522
47,0.383,-15.16836,-197.44527,722.6582,45.02217,-207.90288,649.77582,88.96049,-113.10026,660.6474
48,0.392,-15.16836,-197.44527,722.6582,44.538,-207.63524,649.9881,88.01981,-112.69935,660.81635
49,0.4,-15.16836,-197.44527,722.6582,44.538,-207.63524,649.9881,88.03529,-112.79804,660.90155
50,0.408,-15.16836,-197.44527,722.6582,44.538,-207.63524,649.9881,88.05077,-112.89672,660.98676
51,0.417,-15.59825,-197.45528,722.75824,44.538,-207.63524,649.9881,88.52288,-113.24185,661.36688
52,0.425,-15.16836,-197.44527,722.6582,44.538,-207.63524,649.9881,88.59589,-113.38495,661.59058
53,0.433,-15.59825,-197.45528,722.75824,44.538,-207.63524,649.9881,88.52223,-113.41248,661.42926
54,0.442,-14.98326,-198.44612,722.91736,44.538,-207.63524,649.9881,89.14613,-113.98647,662.95374
55,0.45,-15.43179,-197.65237,722.86163,44.538,-207.63524,649.9881,89.11169,-113.95255,662.78436
56,0.458,-15.59825,-197.45528,722.75824,44.538,-207.63524,649.9881,89.14613,-113.98647,662.95374
57,0.467,-15.82009,-197.71098,722.98761,44.538,-207.63524,649.9881,89.14613,-113.98647,662.95374
58,0.475,-15.82009,-197.71098,722.98761,44.538,-207.63524,649.9881,89.14613,-113.98647,662.95374
59,0.483,-15.82009,-197.71098,722.98761,44.538,-207.63524,649.9881,89.14613,-113.98647,662.95374
60,0.492,-15.47179,-196.4171,722.74451,44.538,-207.63524,649.9881,88.75264,-112.41532,662.45331
61,0.5,-15.47179,-196.4171,722.74451,44.538,-207.63524,649.9881,88.75264,-112.41532,662.45331
62,0.508,-15.47179,-196.4171,722.74451,44.538,-207.63524,649.9881,88.75264,-112.41532,662.45331
63,0.517,-15.47179,-196.4171,722.74451,44.538,-207.63524,649.9881,88.75264,-112.41532,662.45331
64,0.525,-15.34935,-195.69699,722.56226,44.538,-207.63524,649.9881,88.75264,-112.41532,662.45331
65,0.533,-15.25004,-196.1615,722.51514,44.538,-207.63524,649.9881,88.75264,-112.41532,662.45331
66,0.542,-14.93336,-196.18951,722.82074,44.538,-207.63524,649.9881,88.75264,-112.41532,662.45331
67,0.55,-14.98206,-196.39171,722.61993,44.538,-207.63524,649.9881,88.75264,-112.41532,662.45331
68,0.558,-15.12685,-195.83012,722.60815,44.538,-207.63524,649.9881,88.75264,-112.41532,662.45331
69,0.567,-15.95744,-195.06841,721.95343,44.538,-207.63524,649.9881,88.75264,-112.41532,662.45331
70,0.575,-14.98206,-196.39171,722.61993,44.538,-207.63524,649.9881,88.75264,-112.41532,662.45331
71,0.583,-14.98206,-196.39171,722.61993,44.538,-207.63524,649.9881,88.75264,-112.41532,662.45331
72,0.592,-15.12685,-195.83012,722.60815,44.538,-207.63524,649.9881,88.75264,-112.41532,662.45331
73,0.6,-15.12685,-195.83012,722.60815,44.538,-207.63524,649.9881,88.75264,-112.41532,662.45331
74,0.608,-15.12685,-195.83012,722.60815,44.17865,-206.98125,650.15881,88.75264,-112.41532,662.45331
75,0.617,-15.12685,-195.83012,722.60815,44.17865,-206.98125,650.15881,88.75264,-112.41532,662.45331
76,0.625,-15.12685,-195.83012,722.60815,44.17865,-206.98125,650.15881,88.75264,-112.41532,662.45331
77,0.633,-15.1372,-195.30055,722.81403,44.51926,-205.70811,649.62286,88.75264,-112.41532,662.45331
78,0.642,-14.98206,-196.39171,722.61993,44.51926,-205.70811,649.62286,88.75264,-112.41532,662.45331
79,0.65,-15.1372,-195.30055,722.81403,44.17865,-206.98125,650.15881,88.75264,-112.41532,662.45331
80,0.658,-14.58561,-194.70737,722.70306,45.03667,-206.01819,650.24707,88.75264,-112.41532,662.45331
81,0.667,-15.1372,-195.30055,722.81403,44.51926,-205.70811,649.62286,88.75264,-112.41532,662.45331
82,0.675,-15.1372,-195.30055,722.81403,45.03667,-206.01819,650.24707,88.75264,-112.41532,662.45331
83,0.683,-14.58561,-194.70737,722.70306,44.19172,-205.23932,650.02551,88.75264,-112.41532,662.45331
84,0.692,-14.58561,-194.70737,722.70306,44.94424,-204.51079,650.22778,88.02548,-109.77728,661.16583
85,0.7,-14.58561,-194.70737,722.70306,44.94424,-204.51079,650.22778,88.02548,-109.77728,661.16583
86,0.708,-14.57323,-194.25465,722.92316,44.94424,-204.51079,650.22778,88.02548,-109.77728,661.16583
87,0.717,-14.57323,-194.25465,722.92316,44.94424,-204.51079,650.22778,88.02548,-109.77728,661.16583
88,0.725,-14.56082,-193.80243,723.14355,44.94424,-204.51079,650.22778,88.02548,-109.77728,661.16583
89,0.733,-14.56082,-193.80243,723.14355,45.04409,-204.08667,650.61578,88.02548,-109.77728,661.16583
90,0.742,-14.18229,-192.13689,722.63239,45.04409,-204.08667,650.61578,88.02548,-109.77728,661.16583
91,0.75,-14.56082,-193.80243,723.14355,45.04409,-204.08667,650.61578,88.02548,-109.77728,661.16583
92,0.758,-14.18229,-192.13689,722.63239,45.04409,-204.08667,650.61578,88.02548,-109.77728,661.16583
93,0.767,-14.18229,-192.13689,722.63239,45.04409,-204.08667,650.61578,88.02548,-109.77728,661.16583
94,0.775,-14.18229,-192.13689,722.63239,45.04409,-204.08667,650.61578,88.02548,-109.77728,661.16583
95,0.783,-14.18229,-192.13689,722.63239,45.04409,-204.08667,650.61578,88.02548,-109.77728,661.16583
96,0.792,-14.18229,-192.13689,722.63239,45.04409,-204.08667,650.61578,88.02548,-109.77728,661.16583
97,0.8,-15.1042,-194.09436,723.40137,45.04409,-204.08667,650.61578,88.02548,-109.77728,661.16583
98,0.808,-14.56082,-193.80243,723.14355,45.04409,-204.08667,650.61578,88.02548,-109.77728,661.16583
99,0.817,-15.1042,-194.09436,723.40137,45.04409,-204.08667,650.61578,88.02548,-109.77728,661.16583
100,0.825,-14.56082,-193.80243,723.14355,44.94424,-204.51079,650.22778,88.02548,-109.77728,661.16583
101,0.833,-15.1042,-194.09436,723.40137,44.94424,-204.51079,650.22778,88.02548,-109.77728,661.16583
102,0.842,-15.1042,-194.09436,723.40137,44.94424,-204.51079,650.22778,88.02548,-109.77728,661.16583
103,0.85,-15.1042,-194.09436,723.40137,44.94424,-204.51079,650.22778,88.02548,-109.77728,661.16583
104,0.858,-15.1042,-194.09436,723.40137,44.94424,-204.51079,650.22778,88.02548,-109.77728,661.16583
105,0.867,-15.1042,-194.09436,723.40137,44.94424,-204.51079,650.22778,88.02548,-109.77728,661.16583
106,0.875,-15.1042,-194.09436,723.40137,44.70916,-205.54932,650.64948,88.02548,-109.77728,661.16583
107,0.883,-15.32835,-194.35689,723.95966,44.80914,-205.12564,651.03754,88.02548,-109.77728,661.16583
108,0.892,-15.1042,-194.09436,723.40137,44.80914,-205.12564,651.03754,88.02548,-109.77728,661.16583
109,0.9,-15.1042,-194.09436,723.40137,44.80914,-205.12564,651.03754,88.02548,-109.77728,661.16583
110,0.908,-14.9284,-193.96028,723.76007,44.57888,-204.99165,651.69666,88.02548,-109.77728,661.16583
111,0.917,-15.1042,-194.09436,723.40137,43.75274,-205.01431,651.62781,88.02548,-109.77728,661.16583
112,0.925,-15.1396,-194.18405,724.26959,43.75274,-205.01431,651.62781,88.02548,-109.77728,661.16583
113,0.933,-15.32166,-193.25226,723.38428,43.98301,-205.14844,650.96869,88.02548,-109.77728,661.16583
114,0.942,-15.32835,-194.35689,723.95966,43.83822,-205.3492,651.33142,88.75264,-112.41532,662.45331
115,0.95,-15.1042,-194.09436,723.40137,43.83822,-205.3492,651.33142,88.75264,-112.41532,662.45331
116,0.958,-16.08446,-194.01924,723.47729,43.83822,-205.3492,651.33142,88.75264,-112.41532,662.45331
117,0.967,-16.21356,-192.73975,722.51862,43.49747,-206.62231,651.86676,88.75264,-112.41532,662.45331
118,0.975,-16.31763,-193.66513,723.33777,43.38849,-208.03087,651.74341,88.75264,-112.41532,662.45331
119,0.983,-16.05168,-193.98645,723.4483,43.38849,-208.03087,651.74341,88.75264,-112.41532,662.45331
120,0.992,-16.45038,-193.90335,723.53949,42.87121,-207.72134,651.12,88.75264,-112.41532,662.45331
121,1,-16.7453,-194.55382,723.28351,42.87121,-207.72134,651.12,88.75264,-112.41532,662.45331
122,1.008,-16.7453,-194.55382,723.28351,42.23023,-207.65479,651.14252,88.75264,-112.41532,662.45331
123,1.017,-16.61428,-194.19695,722.78809,42.23023,-207.65479,651.14252,89.14613,-113.98647,662.95374
124,1.025,-16.7453,-194.55382,723.28351,42.23023,-207.65479,651.14252,89.14613,-113.98647,662.95374
125,1.033,-16.56098,-194.83873,723.37225,42.13027,-208.07826,650.75488,89.14613,-113.98647,662.95374
126,1.042,-16.7453,-194.55382,723.28351,42.13027,-208.07826,650.75488,89.14613,-113.98647,662.95374
127,1.05,-16.56098,-194.83873,723.37225,42.13027,-208.07826,650.75488,88.11894,-113.06262,662.76007
128,1.058,-16.61428,-194.19695,722.78809,42.13027,-208.07826,650.75488,88.11894,-113.06262,662.76007
129,1.067,-16.7453,-194.55382,723.28351,42.48972,-208.73177,650.58423,86.67971,-112.13237,661.97681
130,1.075,-16.56098,-194.83873,723.37225,42.13027,-208.07826,650.75488,86.67971,-112.13237,661.97681
131,1.083,-16.56098,-194.83873,723.37225,42.23023,-207.65479,651.14252,86.67971,-112.13237,661.97681
132,1.092,-16.7453,-194.55382,723.28351,42.13027,-208.07826,650.75488,86.67971,-112.13237,661.97681
133,1.1,-16.7453,-194.55382,723.28351,42.23023,-207.65479,651.14252,86.67971,-112.13237,661.97681
134,1.108,-16.7453,-194.55382,723.28351,42.23023,-207.65479,651.14252,86.67971,-112.13237,661.97681
135,1.117,-16.7453,-194.55382,723.28351,42.74767,-207.96449,651.76599,86.67971,-112.13237,661.97681
136,1.125,-16.56098,-194.83873,723.37225,42.23023,-207.65479,651.14252,86.67971,-112.13237,661.97681
137,1.133,-16.7453,-194.55382,723.28351,42.51733,-207.83052,652.42505,86.67971,-112.13237,661.97681
138,1.142,-16.7453,-194.55382,723.28351,41.99999,-207.52104,651.80188,86.67971,-112.13237,661.97681
139,1.15,-16.45038,-193.90335,723.53949,41.99999,-207.52104,651.80188,86.67971,-112.13237,661.97681
140,1.158,-16.45038,-193.90335,723.53949,42.51733,-207.83052,652.42505,88.11894,-113.06262,662.76007
141,1.167,-16.45038,-193.90335,723.53949,42.51733,-207.83052,652.42505,88.11894,-113.06262,662.76007
142,1.175,-16.45038,-193.90335,723.53949,42.51733,-207.83052,652.42505,88.11894,-113.06262,662.76007
143,1.183,-16.26607,-194.18837,723.62823,42.23023,-207.65479,651.14252,88.11894,-113.06262,662.76007
144,1.192,-16.45038,-193.90335,723.53949,42.74767,-207.96449,651.76599,88.11894,-113.06262,662.76007
145,1.2,-16.61428,-194.19695,722.78809,42.23023,-207.65479,651.14252,88.11894,-113.06262,662.76007
146,1.208,-16.56098,-194.83873,723.37225,42.23023,-207.65479,651.14252,88.11894,-113.06262,662.76007
147,1.217,-16.61428,-194.19695,722.78809,42.23023,-207.65479,651.14252,88.11894,-113.06262,662.76007
148,1.225,-16.56098,-194.83873,723.37225,42.23023,-207.65479,651.14252,89.14613,-113.98647,662.95374
149,1.233,-16.61428,-194.19695,722.78809,42.23023,-207.65479,651.14252,89.14613,-113.98647,662.95374
150,1.242,-16.56098,-194.83873,723.37225,42.74767,-207.96449,651.76599,88.11894,-113.06262,662.76007
151,1.25,-16.40424,-194.61858,722.91101,42.23023,-207.65479,651.14252,88.11894,-113.06262,662.76007
152,1.258,-16.7453,-194.55382,723.28351,42.23023,-207.65479,651.14252,88.11894,-113.06262,662.76007
153,1.267,-16.56098,-194.83873,723.37225,42.23023,-207.65479,651.14252,88.11894,-113.06262,662.76007
154,1.275,-16.26607,-194.18837,723.62823,41.99999,-207.52104,651.80188,88.11894,-113.06262,662.76007
155,1.283,-16.26607,-194.18837,723.62823,41.99999,-207.52104,651.80188,88.11894,-113.06262,662.76007
156,1.292,-16.26607,-194.18837,723.62823,42.51733,-207.83052,652.42505,88.11894,-113.06262,662.76007
157,1.3,-16.26607,-194.18837,723.62823,42.51733,-207.83052,652.42505,88.11894,-113.06262,662.76007
158,1.308,-15.69646,-193.83409,723.47595,42.51733,-207.83052,652.42505,88.11894,-113.06262,662.76007
159,1.317,-15.48632,-194.25609,723.59888,42.51733,-207.83052,652.42505,88.11894,-113.06262,662.76007
160,1.325,-15.69646,-193.83409,723.47595,42.51733,-207.83052,652.42505,88.75264,-112.41532,662.45331
161,1.333,-15.4812,-194.15828,724.27911,42.51733,-207.83052,652.42505,88.75264,-112.41532,662.45331
162,1.342,-15.4812,-194.15828,724.27911,42.51733,-207.83052,652.42505,88.75264,-112.41532,662.45331
163,1.35,-15.4812,-194.15828,724.27911,43.15821,-207.89706,652.40247,88.75264,-112.41532,662.45331
164,1.358,-15.4812,-194.15828,724.27911,43.07298,-207.56308,652.69891,88.75264,-112.41532,662.45331
165,1.367,-15.4812,-194.15828,724.27911,43.9488,-206.70796,653.56091,88.75264,-112.41532,662.45331
166,1.375,-15.4812,-194.15828,724.27911,43.9488,-206.70796,653.56091,88.75264,-112.41532,662.45331
167,1.383,-15.33497,-194.03108,723.89856,43.9488,-206.70796,653.56091,88.75264,-112.41532,662.45331
168,1.392,-15.4812,-194.15828,724.27911,43.9488,-206.70796,653.56091,88.75264,-112.41532,662.45331
169,1.4,-15.4812,-194.15828,724.27911,43.9488,-206.70796,653.56091,88.75264,-112.41532,662.45331
170,1.408,-15.4812,-194.15828,724.27911,43.9488,-206.70796,653.56091,88.75264,-112.41532,662.45331
171,1.417,-15.4812,-194.15828,724.27911,43.9488,-206.70796,653.56091,88.75264,-112.41532,662.45331
172,1.425,-15.4812,-194.15828,724.27911,43.9488,-206.70796,653.56091,88.75264,-112.41532,662.45331
173,1.433,-15.4812,-194.15828,724.27911,43.9488,-206.70796,653.56091,88.75264,-112.41532,662.45331
174,1.442,-15.33497,-194.03108,723.89856,44.8856,-206.33989,653.51971,88.75264,-112.41532,662.45331
175,1.45,-15.33497,-194.03108,723.89856,44.8856,-206.33989,653.51971,88.75264,-112.41532,662.45331
176,1.458,-15.15431,-194.13025,724.11017,44.8856,-206.33989,653.51971,88.75264,-112.41532,662.45331
177,1.467,-15.33497,-194.03108,723.89856,44.8856,-206.33989,653.51971,88.75264,-112.41532,662.45331
178,1.475,-14.86474,-193.37479,723.94189,44.8856,-206.33989,653.51971,88.75264,-112.41532,662.45331
179,1.483,-14.82718,-193.62454,724.54224,44.8856,-206.33989,653.51971,88.02548,-109.77728,661.16583
180,1.492,-15.00193,-193.59181,724.36072,44.8856,-206.33989,653.51971,88.02548,-109.77728,661.16583
181,1.5,-15.30647,-194.19107,724.46063,44.8856,-206.33989,653.51971,88.02548,-109.77728,661.16583
182,1.508,-14.82718,-193.62454,724.54224,44.8856,-206.33989,653.51971,88.02548,-109.77728,661.16583
183,1.517,-15.00193,-193.59181,724.36072,44.8856,-206.33989,653.51971,88.02548,-109.77728,661.16583
184,1.525,-14.82718,-193.62454,724.54224,44.8856,-206.33989,653.51971,88.02548,-109.77728,661.16583
185,1.533,-15.4812,-194.15828,724.27911,44.8856,-206.33989,653.51971,88.02548,-109.77728,661.16583
186,1.542,-15.4812,-194.15828,724.27911,43.9488,-206.70796,653.56091,88.02548,-109.77728,661.16583
187,1.55,-15.4812,-194.15828,724.27911,43.9488,-206.70796,653.56091,88.02548,-109.77728,661.16583
188,1.558,-15.4812,-194.15828,724.27911,43.9488,-206.70796,653.56091,88.75264,-112.41532,662.45331
189,1.567,-15.4812,-194.15828,724.27911,43.9488,-206.70796,653.56091,88.75264,-112.41532,662.45331
190,1.575,-15.4812,-194.15828,724.27911,43.9488,-206.70796,653.56091,88.75264,-112.41532,662.45331
191,1.583,-15.4812,-194.15828,724.27911,43.9488,-206.70796,653.56091,88.75264,-112.41532,662.45331
192,1.592,-15.4812,-194.15828,724.27911,43.9488,-206.70796,653.56091,88.75264,-112.41532,662.45331
193,1.6,-15.4812,-194.15828,724.27911,43.9488,-206.70796,653.56091,88.75264,-112.41532,662.45331
194,1.608,-15.4812,-194.15828,724.27911,43.9488,-206.70796,653.56091,88.75264,-112.41532,662.45331
195,1.617,-15.33497,-194.03108,723.89856,42.19002,-207.3631,652.82788,88.75264,-112.41532,662.45331
196,1.625,-15.4812,-194.15828,724.27911,42.19002,-207.3631,652.82788,88.75264,-112.41532,662.45331
197,1.633,-15.4812,-194.15828,724.27911,42.19002,-207.3631,652.82788,88.75264,-112.41532,662.45331
198,1.642,-15.4812,-194.15828,724.27911,42.19002,-207.3631,652.82788,88.75264,-112.41532,662.45331
199,1.65,-15.4812,-194.15828,724.27911,42.19002,-207.3631,652.82788,88.75264,-112.41532,662.45331
200,1.658,-15.4812,-194.15828,724.27911,42.19002,-207.3631,652.82788,88.75264,-112.41532,662.45331
201,1.667,-15.4812,-194.15828,724.27911,42.19002,-207.3631,652.82788,88.75264,-112.41532,662.45331
