Frame#,Time,L.Forearm.x,L.Forearm.y,L.Forearm.z,L.Ulna.x,L.Ulna.y,L.Ulna.z,L.Radius.x,L.Radius.y,L.Radius.z
1,0,161.78152,195.90672,929.14459,240.08936,253.97018,900.7467,291.69986,164.58521,903.5683
2,0.008,161.49776,195.21887,928.96777,240.4424,253.77263,902.12634,291.68784,164.8094,903.08704
3,0.017,161.23854,194.39893,928.82635,240.53075,253.88643,902.34283,291.68115,164.52162,902.75696
4,0.025,162.01575,193.17456,929.3667,241.46294,254.22173,903.43542,291.00375,165.5071,902.48151
5,0.033,161.82683,193.37723,929.67572,241.31102,253.70357,903.58405,292.05081,163.68466,902.63824
6,0.042,161.93364,193.19247,929.88959,241.59537,253.30867,903.8894,292.81543,163.47134,902.35455
7,0.05,162.12666,193.92374,930.2832,241.90971,253.18808,904.20734,292.71289,162.43884,902.14679
8,0.058,162.48784,194.33708,930.5188,242.59378,253.57387,905.7796,292.2308,162.31822,901.4679
9,0.067,162.22746,194.79654,930.46667,242.59378,253.57387,905.7796,292.06433,163.11407,901.43451
10,0.075,162.12503,195.52921,930.23651,243.12013,254.62709,906.27539,289.8396,165.11497,900.87268
11,0.083,162.22137,196.18469,930.84607,242.65265,254.60025,905.70288,289.79102,165.17557,901.51721
12,0.092,161.19997,197.05925,931.07794,241.18298,254.33568,904.54767,290.29922,165.28574,902.15289
13,0.1,160.621,198.03534,931.90649,242.00319,255.95328,905.27087,289.83759,165.6174,903.45331
14,0.108,160.52621,198.21791,931.86627,241.4427,257.12296,905.42615,289.16165,166.25238,904.33685
15,0.117,159.90869,199.54066,931.67993,239.64803,255.80675,904.36603,288.23013,166.9929,904.49304
16,0.125,159.8167,199.83003,931.76166,238.73715,256.1445,903.89075,289.81909,164.7274,906.6001
17,0.133,159.27161,200.41498,932.03387,240.01218,257.67078,903.58716,288.52533,167.51007,907.28503
18,0.142,158.96884,200.97264,932.07068,239.9752,257.77386,903.48126,287.88809,167.63773,907.78912
19,0.15,158.93756,200.5909,931.57977,240.01218,257.67078,903.58716,287.88809,167.63773,907.78912
20,0.158,159.15199,200.33868,931.00098,239.41708,257.39514,903.79163,288.42053,166.95583,907.3598
21,0.167,158.73523,199.18391,930.81842,239.23349,256.7634,905.32446,288.32394,165.70079,907.01819
22,0.175,157.96603,198.4819,930.79803,237.93964,254.82681,906.54126,288.02258,165.84903,906.15375
23,0.183,157.36014,197.13269,930.40277,237.88487,254.13138,907.85583,288.05356,165.53619,905.80371
24,0.192,157.79903,195.6563,930.62335,238.4651,255.26309,908.40326,288.06268,164.53775,906.89484
25,0.2,157.40706,195.20848,931.21869,238.68471,255.67381,908.64655,288.13205,163.57822,907.22406
26,0.208,158.09752,194.82077,932.01666,239.59743,253.46089,909.16327,287.97839,162.72345,907.76398
27,0.217,158.57253,195.2549,932.84882,239.60327,253.33943,909.01947,289.71375,160.37073,908.14471
28,0.225,159.31186,195.85167,932.98804,240.85077,254.28683,909.81256,289.03027,161.5045,907.70184
29,0.233,159.78722,196.16019,933.67999,241.07387,253.78761,909.10632,289.03027,161.5045,907.70184
30,0.242,160.03926,196.82784,933.94135,241.13089,253.40439,908.30121,290.24091,159.86615,908.13934
31,0.25,159.73959,197.62633,933.73499,241.33812,254.0802,908.17303,289.09634,162.32686,906.52588
32,0.258,159.86888,197.61986,933.44574,241.68106,254.39226,908.30029,289.28912,163.33914,906.15356
33,0.267,159.68951,197.45226,933.30151,241.0388,255.82977,907.45892,288.7999,164.24698,905.76837
34,0.275,159.86876,198.23204,932.85962,241.36366,255.92024,906.34851,289.19693,165.23517,905.80585
35,0.283,159.67963,198.8391,932.70508,241.4427,257.12296,905.42615,289.33447,165.71339,906.39746
36,0.292,159.8036,199.86967,932.45129,239.72356,255.94795,904.64075,290.10269,165.43854,907.4223
37,0.3,159.8036,199.86967,932.45129,240.42694,257.55551,903.29919,290.4158,165.54001,908.20087
38,0.308,159.74609,199.92746,932.2608,239.99844,257.34094,902.54572,290.38739,165.55904,908.28766
39,0.317,159.8353,200.06696,931.8584,239.91965,257.77493,901.79919,290.23276,165.89418,908.09521
40,0.325,160.0291,199.86871,931.61981,239.17667,256.79773,902.711,290.41913,166.33755,907.42041
41,0.333,160.29784,199.29175,931.28943,239.41887,256.0488,902.64954,290.85498,166.37195,906.86664
42,0.342,160.25681,198.73726,930.76331,239.68788,256.18381,902.94177,291.01486,166.05432,905.93475
43,0.35,160.76495,197.6841,930.43512,239.83083,256.36255,903.40686,290.49744,166.25113,904.81573
44,0.358,161.21222,195.7816,929.55682,239.98363,255.47066,904.35974,290.49744,166.25113,904.81573
45,0.367,160.57022,194.94031,929.4295,240.06023,254.36272,904.34253,290.16507,166.44423,903.71545
46,0.375,160.6889,194.55405,929.57806,240.47513,254.57524,904.48596,290.06494,166.24669,902.49884
47,0.383,160.91051,194.44341,929.76038,240.821,255.09435,904.79199,290.09616,165.93372,902.14905
48,0.392,161.73868,194.95914,930.25061,241.90492,255.26212,905.94531,289.62552,165.92874,900.93005
49,0.4,161.95564,195.37183,930.08643,242.08052,255.2552,905.90857,290.53934,165.56604,900.57062
50,0.408,162.33525,195.81581,930.02325,242.51695,255.82112,905.77002,290.77014,165.76642,900.30865
51,0.417,162.21507,196.38979,929.76532,242.59988,255.79311,905.39294,291.24472,167.04311,900.13379
52,0.425,161.83005,197.07277,929.57373,241.98779,257.73416,905.18005,290.66025,167.56377,900.14142
53,0.433,161.61525,198.46396,929.85297,242.04616,258.58127,903.65002,290.73892,167.59842,900.69128
54,0.442,160.9157,199.53499,930.22266,241.87091,258.94653,902.94562,289.08829,168.81828,901.35712
55,0.45,159.82335,200.80238,930.13849,241.34639,260.40945,902.23322,289.2594,169.11574,903.05865
56,0.458,159.76204,202.07135,929.90411,240.06812,260.51395,900.44958,290.1582,167.69141,903.78839
57,0.467,159.52881,202.66867,929.99268,240.00398,260.95602,900.1994,289.42117,168.00012,904.36505
58,0.475,159.15157,203.18355,930.2121,240.00583,260.87039,899.93298,288.61227,169.1301,904.16034
59,0.483,158.55615,202.94443,929.34296,240.00398,260.95602,900.1994,288.61227,169.1301,904.16034
60,0.492,158.50861,202.91129,929.6181,239.87444,260.59277,900.41046,288.61227,169.1301,904.16034
61,0.5,158.14162,202.16972,929.46246,239.65475,261.48514,901.59723,289.22244,167.88086,904.2276
62,0.508,158.58304,201.06017,929.14008,239.18738,259.92984,903.53143,289.10242,167.60028,904.0509
63,0.517,158.31487,200.32475,928.83948,239.50777,259.70612,904.60052,288.85803,167.46689,904.17499
64,0.525,158.77734,198.854,929.29718,238.18669,258.51196,905.38995,288.06973,168.40199,903.16656
65,0.533,157.8566,198.12778,929.2771,239.60902,258.18488,906.86047,287.4996,167.37004,902.82922
66,0.542,158.01134,197.54469,929.51013,240.10854,257.55649,907.79742,287.30502,166.7151,902.02551
67,0.55,158.57468,197.2563,930.15698,240.25403,257.45541,907.86871,287.78671,166.60182,901.87616
68,0.558,158.80977,196.53172,930.59174,240.75214,256.29181,908.35266,288.58606,165.46408,902.46722
69,0.567,159.52771,197.15085,931.68268,241.0686,256.43903,908.54956,288.58606,165.46408,902.46722
70,0.575,160.194,197.00539,931.88354,241.34802,256.1239,908.66467,288.58606,165.46408,902.46722
71,0.583,160.41115,197.41847,931.71936,241.34802,256.1239,908.66467,288.73645,165.78096,902.14148
72,0.592,160.28798,197.85707,931.49329,241.23906,256.33499,908.61688,288.98099,165.98578,901.92157
73,0.6,160.25456,198.31631,931.25763,241.13074,257.06583,907.99585,288.98099,165.98578,901.92157
74,0.608,160.12372,198.59079,930.992,241.38554,257.82129,907.81921,289.07532,166.24936,902.01257
75,0.617,159.55666,200.09737,930.83179,241.55847,257.78693,907.08594,288.63568,167.57188,903.13123
76,0.625,159.30757,200.08696,931.18707,241.42905,257.7211,905.33594,288.14398,168.17375,904.0376
77,0.633,159.20322,200.57195,931.38336,240.13582,259.52158,904.95685,287.86093,168.41019,903.93719
78,0.642,158.95229,201.13348,931.75244,240.05144,259.56042,904.38263,288.30054,168.88318,904.3183
79,0.65,158.26988,201.66374,931.84827,240.03587,259.35291,903.9447,288.64319,168.3584,907.60028
80,0.658,158.62231,201.42073,931.97583,240.03587,259.35291,903.9447,287.98822,167.80342,908.10413
81,0.667,159.06924,200.93024,931.88605,240.05144,259.56042,904.38263,287.98822,167.80342,908.10413
82,0.675,158.93756,200.5909,931.57977,240.20155,258.33237,905.08887,287.98822,167.80342,908.10413
83,0.683,158.57622,199.7368,930.90558,238.89565,255.78296,906.23462,289.71866,166.30766,907.80786
84,0.692,158.55678,198.53522,931.22974,238.63719,255.11334,907.48767,288.98901,165.84413,905.9754
85,0.7,158.46721,196.88298,931.36798,237.78381,254.03792,908.08838,287.84998,165.16498,905.79681
86,0.708,158.24144,194.93831,931.85779,240.10645,254.09627,910.20819,288.30521,164.28021,905.80481
87,0.717,158.31688,194.66171,932.09155,240.32091,254.37259,910.44843,288.27917,161.98291,906.16998
88,0.725,158.33635,194.26578,932.35724,240.36325,253.32372,911.07111,287.5654,161.22581,905.72797
89,0.733,158.4301,194.28354,932.62512,241.00432,253.22249,911.26257,287.35193,161.24908,905.33813
90,0.742,158.61403,194.48735,932.79407,241.28377,251.92497,911.21198,286.50705,160.98404,904.94446
91,0.75,158.92084,194.85181,933.08966,241.75929,251.74895,911.05878,286.47647,160.72639,904.79279
92,0.758,158.97852,194.72592,932.89429,241.75929,251.74895,911.05878,286.47647,160.72639,904.79279
93,0.767,158.6302,195.12901,932.65338,241.69878,252.19496,910.83801,286.47647,160.72639,904.79279
94,0.775,158.57332,195.61624,932.11011,241.53546,252.69383,910.17383,286.4454,160.54034,904.52936
95,0.783,157.90576,196.59007,931.77142,240.50037,253.47919,908.75507,286.47647,160.72639,904.79279
96,0.792,157.42021,198.1781,931.34955,240.35472,253.84929,908.51709,286.02579,161.09683,905.09406
97,0.8,157.06285,198.3558,931.79993,240.18683,254.36394,907.5069,287.77182,164.52367,903.8703
98,0.808,157.23668,198.77942,931.69604,239.66669,254.77496,905.61249,286.86679,164.23334,905.20215
99,0.817,157.31114,199.44246,931.83228,239.29913,254.76109,905.0954,286.55884,164.22067,906.09766
100,0.825,157.38358,199.58905,931.43164,239.42201,254.42076,904.52393,285.35492,163.65636,907.01947
101,0.833,157.62579,198.67468,930.98315,239.08891,254.58051,904.67365,285.35492,163.65636,907.01947
102,0.842,157.16382,197.99344,930.62762,239.08707,254.66716,904.94067,287.09326,161.45232,907.50751
103,0.85,157.14511,197.13327,930.1087,239.29913,254.76109,905.0954,286.71158,161.41689,906.99957
104,0.858,157.50612,195.87086,930.42712,239.1665,254.04401,906.56354,286.67334,160.72615,906.06482
105,0.867,157.32629,194.59471,930.00623,239.62029,253.72873,907.72998,287.69656,161.72278,905.05194
106,0.875,156.94025,194.02376,930.02045,240.07497,253.67262,908.36743,287.52448,161.49294,904.72253
107,0.883,157.82066,193.56047,930.13507,240.47443,252.54317,908.52325,287.17984,161.01933,905.00873
108,0.892,158.60185,193.50217,930.46338,240.47443,252.54317,908.52325,287.14923,160.76163,904.85706
109,0.9,158.79593,193.52913,930.62482,241.31644,252.04242,908.37042,287.14923,160.76163,904.85706
110,0.908,159.66846,193.79999,931.17554,241.96875,251.61148,907.78192,287.39664,160.66925,903.9549
111,0.917,159.25302,194.37386,931.45496,242.16946,251.49789,907.49402,287.39664,160.66925,903.9549
112,0.925,159.42197,194.92413,931.78723,242.03329,251.15997,907.05511,287.39664,160.66925,903.9549
113,0.933,159.64963,195.91457,931.55371,242.08275,251.48906,907.0426,286.88193,160.98311,903.45398
114,0.942,158.96294,196.26212,930.98749,241.6967,251.85759,905.6626,286.37427,160.87215,902.81842
115,0.95,158.80574,197.65698,930.28723,240.58994,253.81927,905.18201,286.37427,160.87215,902.81842
116,0.958,157.9295,198.58537,930.20435,240.28955,253.82671,904.27509,286.06665,161.02722,903.03088
117,0.967,157.48315,199.56726,930.5722,240.14281,253.92482,904.20227,284.89267,161.74666,903.63885
118,0.975,155.83536,201.49187,930.64697,239.69101,254.56538,902.98608,284.88681,161.91516,903.95819
119,0.983,155.56248,201.61711,930.78839,239.01735,254.88673,902.61255,283.99149,161.71417,904.66113
120,0.992,155.28806,201.22655,930.71808,238.57986,254.78769,902.85065,283.85861,161.28064,906.09937
121,1,155.06004,201.30992,930.73303,238.23203,254.6386,903.45911,284.58011,160.28906,907.19489
122,1.008,154.58214,200.21945,930.05701,238.66182,254.43727,904.31012,284.39294,160.0397,906.8631
123,1.017,154.40492,197.91672,928.37817,238.47551,254.48111,905.11023,283.54132,159.43182,906.60461
124,1.025,154.65115,197.47943,928.58044,237.80077,254.37959,906.7384,281.61618,160.3506,905.82135
125,1.033,154.55818,196.79646,928.323,237.99142,254.46159,907.68054,281.50113,160.1553,905.17096
126,1.042,154.80992,195.61995,929.02612,238.2308,252.87393,908.29218,281.9726,160.44139,905.42902
127,1.05,155.01665,195.20291,929.84338,238.33032,251.9912,909.25201,283.59531,159.6581,905.75714
128,1.058,155.42836,194.58195,930.87158,238.38585,251.47989,909.23352,283.73895,159.45818,905.59894
129,1.067,155.68242,194.4743,930.87146,239.17598,251.52318,909.5329,284.25494,158.10628,906.24786
130,1.075,155.69548,194.62755,931.07886,239.80444,251.22665,909.36456,284.25494,158.10628,906.24786
131,1.083,156.06097,194.76848,931.15375,239.80444,251.22665,909.36456,284.75357,157.97914,906.07312
132,1.092,156.73325,194.66747,931.62762,240.93962,251.66606,908.97937,284.96985,158.38158,905.78937
133,1.1,156.57701,195.43272,931.54077,241.42744,251.7133,908.51544,285.00534,158.65785,905.27087
134,1.108,156.6521,196.32668,931.55066,241.63417,251.56189,907.69421,284.2019,158.79588,904.70605
135,1.117,156.75208,197.25372,931.22693,241.50241,251.71019,907.12238,283.8555,158.71837,904.58936
136,1.125,156.92241,197.55879,930.9231,240.68922,251.7108,906.30731,283.36081,158.75145,904.62604
137,1.133,156.28151,198.04735,931.67517,240.455,251.78127,905.77423,283.54843,159.70453,905.03442
138,1.142,155.52791,199.96532,931.65222,240.35519,253.5472,905.35278,283.32159,159.49348,905.60461
139,1.15,155.33292,200.0645,931.63348,239.94176,254.07225,904.45233,282.4455,160.53506,905.87451
140,1.158,155.0724,200.52486,931.58142,239.30783,253.89931,904.177,283.48972,160.9711,906.98657
141,1.167,155.33292,200.0645,931.63348,239.47707,254.21503,904.41272,283.24411,161.40387,907.4444
142,1.175,155.61739,200.0947,931.26276,239.47707,254.21503,904.41272,283.16293,161.63023,907.17651
143,1.183,156.04617,198.12,930.63153,240.30008,253.75291,905.46387,283.7489,161.40567,907.3775
144,1.192,156.5545,196.85765,930.49799,240.09221,253.12935,906.08832,284.25406,160.92076,906.57794
145,1.2,156.19098,195.24889,930.22614,240.24904,253.14801,908.48584,284.59628,160.22929,907.24664
146,1.208,156.3148,194.81551,930.09601,240.20946,252.2281,908.76483,285.31531,159.78142,906.71002
147,1.217,156.60269,194.11119,930.56616,239.80444,251.22665,909.36456,286.33084,159.39957,907.54779
148,1.225,156.6628,193.67857,930.63086,239.85719,251.27527,910.18127,286.97858,158.92441,907.89075
149,1.233,156.6628,193.67857,930.63086,239.93253,251.27394,910.60211,286.97858,158.92441,907.89075
150,1.242,157.35628,193.95027,931.2774,240.88074,250.90526,910.62854,286.81149,157.6882,908.74768
151,1.25,158.22995,193.97467,932.62268,241.14211,250.82475,910.17303,287.20029,158.30777,908.41309
152,1.258,158.39554,194.22711,932.98779,242.08971,250.86943,909.16998,287.20029,158.30777,908.41309
153,1.267,159.35834,195.69933,933.13782,242.98132,250.98155,908.1225,287.35239,158.69366,908.03925
154,1.275,159.68062,196.34459,933.46661,243.22032,250.83411,907.91364,287.104,158.56192,907.87091
155,1.283,159.77092,197.34247,933.40857,243.08865,251.10486,907.61792,287.2254,159.04909,908.48193
156,1.292,159.06094,197.84456,933.86926,242.62366,250.95006,906.89642,288.94156,161.90471,906.77039
157,1.3,158.55968,199.25031,933.59979,242.15239,251.23076,906.34875,285.51962,159.43047,910.12189
158,1.308,157.36182,200.01425,933.99841,241.86624,251.89273,905.35999,285.26578,159.84254,910.42871
159,1.317,157.05098,200.44763,933.84973,240.7919,253.63115,904.80725,285.47659,160.52797,911.36829
160,1.325,156.47163,201.04732,933.68842,240.28955,253.82671,904.27509,285.06036,161.29282,910.51263
161,1.333,155.875,200.78709,933.52985,240.0885,253.97417,904.52521,284.55975,161.48706,910.77783
162,1.342,155.94826,200.47464,933.53168,240.15849,253.49298,904.97955,284.55975,161.48706,910.77783
163,1.35,155.64902,200.07585,933.25494,240.26978,252.65587,905.83954,284.52872,161.30103,910.51447
164,1.358,155.349,198.06821,932.72192,240.53038,252.30661,907.56256,284.22562,160.96904,910.71478
165,1.367,155.4874,196.36217,932.16638,239.89099,250.7888,908.43652,284.92395,159.776,911.44855
166,1.375,155.44624,195.04419,931.51361,239.66101,251.25835,909.84113,285.52872,159.19356,911.00647
167,1.383,155.48109,194.79308,931.25775,239.70918,250.65874,910.60144,285.62292,159.05333,910.28082
168,1.392,155.81923,193.918,931.427,239.56989,249.20392,911.45453,284.44882,154.69322,911.82941
169,1.4,156.18951,193.49603,931.72699,240.67732,249.37523,911.94794,285.38754,155.02426,911.86609
170,1.408,157.19489,193.03273,932.95386,240.78809,249.09297,912.07428,285.37866,153.73328,912.47455
171,1.417,157.30141,192.76747,933.75995,241.4812,248.28769,911.72498,285.34818,153.47586,912.32294
172,1.425,157.43781,192.97632,934.52106,241.48283,247.41798,911.54456,285.34818,153.47586,912.32294
173,1.433,157.14572,193.35579,934.79761,242.20039,248.07506,910.87457,285.34818,153.47586,912.32294
174,1.442,157.49805,194.11232,934.86053,242.27061,247.81596,910.18018,285.34818,153.47586,912.32294
175,1.45,157.58771,195.26741,934.60321,242.39915,248.42307,909.70142,285.73145,153.85078,911.65582
176,1.458,157.71346,196.36304,934.19836,242.80083,249.07628,907.75189,285.89108,154.82208,911.11426
177,1.467,157.53145,197.18082,933.87622,242.1508,249.43335,907.2641,285.81998,155.43828,911.20862
178,1.475,157.27489,197.55829,933.94879,241.89111,250.13112,906.72589,282.98795,156.23871,911.3739
179,1.483,156.23265,199.36876,933.84009,241.06229,250.53229,905.69995,282.47443,156.5009,912.36066
180,1.492,155.65331,199.96858,933.67871,240.08362,251.17128,905.5061,281.98184,157.93684,912.15076
181,1.5,155.37494,200.70271,933.44366,239.62456,251.28531,904.6532,283.67691,160.99332,911.45953
182,1.508,154.72212,200.98003,933.7276,239.2639,251.68738,904.52509,283.47766,160.66617,911.72266
183,1.517,154.38104,200.67572,933.69739,238.93217,252.66029,904.51782,283.70459,161.07959,911.97894
184,1.525,154.40968,200.04773,933.20844,238.91449,252.23274,904.77325,283.70459,161.07959,911.97894
185,1.533,154.48596,199.38287,933.09113,239.1951,251.37634,905.58893,283.70459,161.07959,911.97894
186,1.542,154.31406,197.86295,932.60126,239.0869,251.66873,907.2049,283.90698,161.18427,911.48969
187,1.55,155.26239,195.50954,932.13824,238.79247,250.14447,908.25262,284.10916,160.30251,911.37238
188,1.558,155.31541,195.07962,931.88007,239.09779,250.39281,909.23883,284.23346,159.04497,911.81671
189,1.567,155.57004,194.33456,931.86163,239.81282,250.95969,909.953,285.01672,160.36418,910.80774
190,1.575,155.69423,194.29942,932.31012,239.70918,250.65874,910.60144,287.51736,159.47409,911.11157
191,1.583,156.77638,193.29179,933.23834,239.87151,250.87862,910.87433,285.75989,156.92384,912.85699
192,1.592,156.95857,193.23729,934.39612,240.94939,249.3394,910.64203,285.80194,156.74892,912.61005
193,1.6,157.28464,193.46657,935.01593,241.16402,249.32764,910.60077,285.80194,156.74892,912.61005
194,1.608,157.64926,194.64439,935.00403,241.70459,249.50722,909.94672,285.95633,156.89073,911.79639
195,1.617,158.79515,195.2831,935.24591,242.31157,250.64218,909.00446,286.00323,157.11003,911.43243
196,1.625,158.93364,196.61678,935.37451,243.22032,250.83411,907.91364,285.91464,157.56299,910.91394
197,1.633,159.08669,197.92659,934.43323,243.22032,250.83411,907.91364,286.13925,157.72479,910.68799
198,1.642,158.55495,198.14177,934.29633,242.75975,251.28812,907.33545,284.85458,158.2251,910.41388
199,1.65,157.29404,200.03778,933.65375,242.36874,250.91331,906.63794,283.41708,157.96655,910.93988
200,1.658,156.23277,200.9727,933.44696,240.62874,251.68176,905.84204,282.04004,158.05389,911.36121
201,1.667,155.65649,201.24124,933.25153,240.27344,252.83597,905.63684,281.5264,158.94971,911.36572
202,1.675,153.67674,201.90363,933.01154,240.35519,253.5472,905.35278,283.24792,160.75752,911.06433
