Frame#,Time,L.Forearm.x,L.Forearm.y,L.Forearm.z,L.Ulna.x,L.Ulna.y,L.Ulna.z,L.Radius.x,L.Radius.y,L.Radius.z
1,0,99.95405,377.33261,675.81952,128.23366,396.28497,592.17456,164.57841,338.07379,640.93652
2,0.008,98.82172,376.61798,675.78943,127.96322,395.05344,592.58124,164.15813,338.42224,640.18719
3,0.017,98.7341,374.89224,675.95563,126.85436,394.84344,593.14355,163.13625,337.85394,640.59204
4,0.025,98.12576,373.83319,675.92932,126.5963,394.65964,593.49298,162.45058,336.76688,640.85986
5,0.033,98.1844,373.32492,676.21899,126.21786,393.35089,593.45221,161.30717,334.31033,638.84198
6,0.042,98.19046,372.49194,676.22491,125.78954,393.46017,593.71582,160.93356,334.08862,638.98163
7,0.05,96.13252,372.2153,677.17548,125.59245,393.45911,593.74066,160.92047,334.92236,642.11096
8,0.058,95.94875,372.19818,677.21698,125.60773,393.63559,594.35931,161.12743,333.67432,642.73926
9,0.067,95.86533,372.30231,677.77802,125.30365,393.01801,594.21942,161.2892,333.71002,643.08337
10,0.075,96.34628,372.41354,678.14832,125.30365,393.01801,594.21942,161.79843,334.82755,645.00696
11,0.083,96.16111,372.72305,678.1795,124.95466,392.78723,594.08228,161.48677,335.62912,646.28363
12,0.092,96.35265,373.43842,678.69257,124.95987,392.10043,594.08356,164.30862,342.82101,646.13757
13,0.1,96.1884,376.00162,678.82886,123.91174,391.85406,593.72443,164.74113,344.4458,647.30896
14,0.108,96.88165,378.23465,678.34283,124.22443,392.22495,593.69037,165.01988,345.79892,647.95758
15,0.117,97.38343,379.3465,678.0531,123.93849,392.09088,592.86456,166.09059,348.80453,648.47833
16,0.125,97.21886,381.91034,678.19012,123.90821,392.59784,592.38,166.29294,350.74603,649.27777
17,0.133,97.47994,383.81796,677.88159,123.36297,391.87497,591.89154,166.91518,351.88461,649.17883
18,0.142,97.72496,385.6554,677.46136,123.78159,393.87982,591.08099,166.99374,351.9855,649.11749
19,0.15,97.83527,386.5809,676.97052,124.1119,395.5303,590.50256,166.80943,352.51962,648.66284
20,0.158,98.24096,387.85693,676.99969,124.41783,396.10461,590.36841,166.67998,352.73853,648.22992
21,0.167,98.55934,389.27966,676.56757,124.52344,396.4375,590.19293,167.01524,351.3689,647.51697
22,0.175,98.51995,389.28964,676.5163,124.42815,396.98279,590.4071,166.54485,350.4007,647.27008
23,0.183,98.51995,389.28964,676.5163,124.86089,397.66321,590.94525,166.54662,350.18768,647.26953
24,0.192,98.37467,389.20966,676.85767,125.04319,397.41116,591.36688,164.98616,347.43564,646.02332
25,0.2,98.75824,387.66187,677.10474,125.4407,399.02444,591.84711,165.52068,349.13028,645.1225
26,0.208,98.51611,387.44785,676.97809,125.937,399.7836,592.83771,163.95538,343.57309,644.27466
27,0.217,98.29813,386.2576,677.61829,125.937,399.7836,592.83771,162.28296,338.99728,642.86005
28,0.225,98.64422,384.56012,677.4137,125.937,399.7836,592.83771,163.18678,340.8255,643.06354
29,0.233,98.70371,381.33698,677.31055,125.55901,399.51685,592.70227,162.89015,340.22049,642.62292
30,0.242,98.40474,380.85468,677.36462,125.30842,397.52258,592.09247,163.5152,340.88861,642.47766
31,0.25,98.41943,379.45792,677.01202,125.56705,397.25995,591.98755,163.077,341.66977,642.65424
32,0.258,98.15534,378.89557,676.85565,125.67482,396.52719,592.35785,163.17268,340.47226,642.74908
33,0.267,98.4906,378.51538,677.17535,125.96138,396.38974,593.05542,163.75095,340.64783,643.40625
34,0.275,97.98551,378.02063,677.66675,125.71243,395.48575,593.90436,163.11885,340.67209,643.95062
35,0.283,98.46556,378.06976,678.00055,125.78815,395.17017,594.40399,162.02525,339.39951,643.32037
36,0.292,97.52426,377.73941,678.07874,125.51467,395.5173,594.81921,161.26488,337.67407,644.82959
37,0.3,97.22096,377.62317,677.96875,125.6253,395.44058,594.88184,161.79842,338.2713,645.85022
38,0.308,97.5823,378.05682,678.02087,125.91049,395.1012,594.72272,162.16513,338.25757,646.20398
39,0.317,97.56474,377.78415,678.17194,125.99699,393.59637,594.35144,164.01634,339.67435,646.34454
40,0.325,97.52222,378.27139,677.83954,126.42496,392.86166,594.05011,162.61548,338.22867,646.54834
41,0.333,98.14546,379.05075,678.17212,126.80505,390.87189,593.26202,161.95097,338.2178,647.31555
42,0.342,98.37453,379.44766,678.6817,127.26808,391.28763,593.69568,164.16136,340.01685,648.44659
43,0.35,98.51907,379.3392,678.5257,127.24549,391.73932,594.12592,167.37515,346.17712,650.38464
44,0.358,99.53804,379.91458,679.0033,128.09363,391.79892,593.8056,167.76416,346.92819,650.64453
45,0.367,99.46582,380.28622,679.25409,128.10272,390.85361,593.11005,168.05789,349.39774,651.22687
46,0.375,99.35635,381.02377,679.38147,127.8426,391.12085,593.49298,168.10112,347.42697,650.57635
47,0.383,99.71929,381.59497,678.78601,127.8894,391.94122,594.02014,168.58469,347.18958,650.3009
48,0.392,99.73724,382.60336,679.20874,127.90265,393.46725,594.76318,168.37747,346.95468,650.32745
49,0.4,99.4184,382.58725,678.92523,127.80121,394.91107,594.70148,167.66208,343.37686,649.77209
50,0.408,99.4184,382.58725,678.92523,127.94996,395.13321,595.05939,168.15018,343.46561,648.98444
51,0.417,100.44598,382.14236,678.84259,127.94591,395.53586,595.52356,166.98288,343.04111,647.82556
52,0.425,100.85955,381.21182,678.88141,128.48959,396.17847,595.61945,167.77512,343.09717,647.09772
53,0.433,101.2189,380.54993,678.77637,128.83865,396.40884,595.75641,167.66515,341.09183,645.80566
54,0.442,101.28835,379.56857,679.03687,128.83865,396.40884,595.75641,166.61342,337.0369,645.67957
55,0.45,101.47678,379.51248,679.06519,129.2916,395.82858,595.52734,166.68756,337.22061,645.16241
56,0.458,102.19994,378.40433,678.70929,128.83865,396.40884,595.75641,165.82086,335.6452,642.80231
57,0.467,102.51479,375.37207,677.66785,129.08127,396.37439,595.58258,166.13844,336.47241,642.2182
58,0.475,102.99036,373.67856,678.03735,129.39063,394.01019,594.0799,165.37498,334.38693,641.09796
59,0.483,102.92378,373.2467,678.40021,129.30226,393.59872,593.97565,164.46523,330.96265,638.50928
60,0.492,102.65592,372.72919,678.37555,129.47827,393.18784,594.05505,164.29184,330.44589,638.73096
61,0.5,102.63401,371.31531,678.39984,129.29715,392.3132,594.81592,163.76198,329.83533,640.39801
62,0.508,102.4498,371.14218,678.5799,129.19595,392.45743,595.4447,163.5527,329.16248,640.6712
63,0.517,101.5503,371.23526,678.80402,129.54555,392.43423,595.99469,164.14256,330.38086,641.58142
64,0.525,101.09241,370.87073,679.32581,130.29176,392.04874,596.31262,164.35506,332.75214,644.1275
65,0.533,101.05041,372.03348,679.98578,130.27098,392.44989,596.86108,165.74802,335.14783,645.46997
66,0.542,100.91144,372.0806,680.15692,129.9095,392.25082,597.08667,165.68594,335.68671,647.2243
67,0.55,99.73495,372.13907,680.33502,129.94969,391.91553,596.95386,165.58475,336.46585,648.06598
68,0.558,100.49847,374.6304,680.65747,129.30623,391.12378,596.88885,165.42671,336.6268,649.01514
69,0.567,100.52676,375.14236,680.28595,129.02167,390.78058,596.13574,166.24242,337.2963,649.63623
70,0.575,100.56056,377.43634,679.9903,129.06337,389.87451,594.46173,166.58449,337.36887,650.08716
71,0.583,100.86316,378.23962,679.19275,127.18678,388.94083,594.35657,168.18137,344.3125,650.36481
72,0.592,100.35065,379.22632,678.60388,127.41041,389.2948,594.93146,169.11913,345.56555,650.93427
73,0.6,100.4886,379.56735,678.61328,127.48889,389.18549,592.742,169.03726,346.64072,650.1781
74,0.608,99.66885,380.41608,677.76398,127.10129,388.61099,591.56274,169.03772,347.55478,650.14783
75,0.617,99.57404,382.16425,677.48193,126.70767,388.40439,591.09613,169.06682,349.38025,649.72809
76,0.625,99.40326,383.71222,676.81342,126.75039,388.83884,590.28558,168.88588,349.68268,648.60669
77,0.633,99.68726,385.47726,676.62897,126.18703,389.30615,589.25482,168.45012,350.47726,647.79254
78,0.642,98.86529,386.12665,675.59955,126.14796,389.74365,588.67041,168.47726,350.10123,647.77826
79,0.65,99.24603,385.78714,675.00568,126.28685,390.22546,588.21777,168.72664,350.00027,647.37585
80,0.658,99.14867,386.35651,674.85529,126.84647,391.51016,588.23755,168.85919,349.36688,646.164
81,0.667,99.26149,386.15286,674.76453,126.83753,392.17596,588.51984,169.01741,348.13098,645.64514
82,0.675,99.54424,385.99979,674.50964,127.38003,394.15698,588.64209,168.18617,344.81821,644.26917
83,0.683,100.00028,384.89038,674.46832,127.30983,394.86606,588.755,167.46701,343.08072,642.56378
84,0.692,99.3325,383.26154,673.81946,126.9892,395.44891,588.98511,166.0296,341.03055,641.73431
85,0.7,99.70367,380.40366,673.27289,126.9892,395.44891,588.98511,166.49693,339.11563,640.31232
86,0.708,99.70367,379.68613,673.1535,126.69244,396.02182,589.41699,165.29869,336.34909,638.5047
87,0.717,99.89246,378.90134,673.42542,126.69244,396.02182,589.41699,164.32863,334.83716,637.38019
88,0.725,99.95192,376.20096,673.24323,126.69136,396.06229,589.63745,164.19371,334.11713,637.23938
89,0.733,99.85767,373.8425,672.93768,126.27172,396.17181,589.87787,162.83951,333.7269,637.28802
90,0.742,99.48019,372.74866,672.64111,126.07494,396.17328,589.90002,163.00397,334.92172,637.48694
91,0.75,99.37899,372.58994,672.75751,125.55466,395.78522,590.14703,163.51077,335.71265,637.30884
92,0.758,98.22557,372.80554,672.90948,125.54541,395.70508,590.22736,162.71016,334.8255,637.43225
93,0.767,97.9764,372.92233,673.17664,125.67278,395.61383,590.47699,162.06474,334.55585,638.08453
94,0.775,97.94788,372.61411,673.72601,125.00343,395.14545,591.25458,161.94749,335.14172,640.75555
95,0.783,98.10226,373.01779,674.8999,125.55924,393.50446,591.57092,161.99071,335.78787,641.49451
96,0.792,97.87214,374.09506,675.97919,125.00753,392.96326,591.7113,162.48622,335.7211,642.17889
97,0.8,97.23711,374.68857,676.29913,125.34981,392.0217,591.6817,162.83838,335.96292,642.95929
98,0.808,97.59154,374.2551,676.3866,125.36933,391.47415,591.81274,163.3714,336.37708,643.2276
99,0.817,97.63965,374.71783,676.60223,126.1472,390.36746,591.55951,163.1738,335.15039,642.5036
100,0.825,97.70399,375.09778,676.5835,126.60545,389.92853,591.32758,163.39496,335.59146,643.35883
101,0.833,98.25109,375.87408,676.68024,126.99421,389.65381,591.01379,164.16261,336.18701,644.87665
102,0.842,99.07563,377.37039,676.4577,126.93302,389.23337,591.08398,164.35226,334.97015,644.81476
103,0.85,99.49403,378.86929,676.56818,126.94556,388.9888,591.25269,165.10138,335.07178,645.64508
104,0.858,100.08038,378.83981,676.60803,127.16619,388.94806,591.26636,165.96416,333.88904,645.98199
105,0.867,100.41812,378.7648,676.52362,127.50462,388.90628,591.07324,165.97606,334.27304,646.01373
106,0.875,100.22554,378.07169,677.20764,127.9293,389.6199,590.99347,166.80388,335.66135,645.9071
107,0.883,100.44324,377.95609,677.03613,128.16252,389.89536,591.03467,167.0278,336.065,645.7077
108,0.892,100.93272,378.77417,677.38513,128.65823,390.29285,591.21796,168.98251,340.93991,644.52466
109,0.9,102.90581,379.8743,678.32074,129.00731,390.52383,591.35529,169.43309,341.42502,644.69958
110,0.908,103.24152,377.94156,677.36267,128.94696,391.12216,591.48688,168.99571,340.96982,645.37714
111,0.917,103.44463,378.21307,677.16058,129.92834,391.18878,591.63647,168.77473,340.87073,645.7359
112,0.925,103.13624,379.04709,677.65332,130.98239,391.46008,591.62994,168.77473,340.87073,645.7359
113,0.933,103.64878,378.87256,677.50537,131.21196,392.60422,592.19476,168.8965,341.00662,645.67657
114,0.942,104.36019,380.03952,678.12976,131.54079,392.73395,592.67297,170.06364,342.96332,645.97113
115,0.95,104.46709,380.09695,678.08026,131.78519,393.96606,592.55023,170.06364,342.96332,645.97113
116,0.958,104.74326,380.38861,677.95081,131.93456,394.70731,592.56042,170.20758,343.58487,645.91901
117,0.967,104.84615,380.83258,677.98822,131.92604,395.33954,592.64111,169.93988,343.76501,645.56378
118,0.975,105.03638,381.11169,677.9751,132.38991,395.58282,592.50281,169.96425,343.9913,645.47205
119,0.983,105.16894,381.11542,677.82397,131.51334,395.38583,591.91235,169.96425,343.9913,645.47205
120,0.992,104.84959,381.22119,677.76172,131.35747,396.24954,591.86926,170.47696,345.73471,644.27863
121,1,104.59063,381.68039,677.29053,129.64648,395.69135,591.026,170.39113,345.20221,643.76208
122,1.008,104.40301,382.229,676.93872,129.45485,395.74261,590.51892,170.18582,345.21957,643.44403
123,1.017,104.28992,382.4498,676.7702,128.79765,395.77069,589.98187,169.8746,344.5296,642.9071
124,1.025,103.67493,382.60474,675.67297,128.1395,395.4527,589.34839,169.72487,344.62476,642.25861
125,1.033,103.64104,381.88165,674.60272,127.74592,395.0463,588.83466,168.68675,344.14395,641.74451
126,1.042,103.71482,381.8613,674.0083,127.8431,394.77826,588.62714,167.3082,342.25674,641.05255
127,1.05,102.43932,380.92932,673.68591,127.8431,394.77826,588.62714,167.55865,341.63507,640.12207
128,1.058,101.64761,380.56281,673.39844,127.89619,394.28308,587.70306,167.31712,341.80008,639.55902
129,1.067,100.20931,379.59894,672.76221,126.94125,394.17865,587.66766,167.29018,342.74576,638.1687
130,1.075,100.22823,379.60669,672.35211,126.37226,394.29404,587.06488,166.57108,341.68283,638.1087
131,1.083,99.92174,379.49384,672.47174,125.22216,394.45023,587.13806,166.45544,341.67535,638.0788
132,1.092,99.79031,379.06653,672.99432,124.86471,394.25134,587.46149,165.54803,340.77557,637.94586
133,1.1,99.7808,378.71936,673.28113,125.01199,393.88824,587.50781,167.27711,343.64734,638.70624
134,1.108,99.8513,378.36005,673.48804,125.40495,394.45825,588.5611,166.97292,343.15259,639.1889
135,1.117,99.80306,378.54651,673.83655,125.91708,395.12991,588.65045,166.28683,343.05051,640.17212
136,1.125,99.49589,378.23441,674.53552,126.05235,395.32071,588.8399,166.33,343.88089,641.4234
137,1.133,99.57677,378.2543,674.66534,126.2757,395.00595,588.81732,165.37297,341.72061,641.26886
138,1.142,99.88492,378.45358,675.10492,127.09828,394.92084,589.02094,167.47205,344.28976,642.80341
139,1.15,99.99351,378.60242,676.08344,127.11716,394.41409,589.37238,167.73956,344.33267,642.93927
140,1.158,100.35431,379.13263,676.73059,127.59824,393.73062,589.71509,167.82222,342.93881,642.39355
141,1.167,100.38364,379.3269,676.95874,128.12071,393.53976,590.06915,168.24673,342.78754,643.26935
142,1.175,100.78637,380.1752,677.61694,129.24951,392.50595,590.26086,169.32925,345.85452,644.07733
143,1.183,100.7773,379.74399,677.70282,129.05745,392.73602,590.54938,169.81775,346.90881,644.69202
144,1.192,101.0899,379.82578,677.58929,129.09775,392.65845,590.62134,169.14131,343.81155,645.35126
145,1.2,103.5329,380.56787,677.90503,129.09775,392.65845,590.62134,169.55403,344.40912,645.76788
146,1.208,102.73102,380.31384,677.89056,129.09958,392.6506,590.8382,169.28358,343.18942,645.67395
147,1.217,103.7463,380.6391,677.79443,129.27357,391.95996,591.0921,170.46834,344.50894,646.28699
148,1.225,104.48553,380.67197,677.82813,130.39896,391.61353,590.75018,170.73845,344.54126,646.34918
149,1.233,104.48553,380.67197,677.82813,130.3938,390.96753,590.89154,171.34592,345.22662,646.50989
150,1.242,104.58699,380.69382,677.64136,130.68724,391.35699,590.85529,171.64124,345.63602,646.79016
151,1.25,104.58699,380.69382,677.64136,130.2052,391.50256,590.4939,171.64124,345.63602,646.79016
152,1.258,104.40275,380.82928,677.33002,129.98001,391.54703,590.30206,171.64938,345.04492,646.63458
153,1.267,104.31034,380.39612,676.76575,129.98001,391.54703,590.30206,171.42708,345.20084,646.39844
154,1.275,104.23553,380.71976,676.60571,129.77322,391.39859,589.98474,171.45384,345.68851,644.7785
155,1.283,102.96313,379.52139,675.59619,129.83284,391.1221,589.8764,170.03133,343.58188,644.69202
156,1.292,102.1211,379.4678,674.91785,129.54195,391.23157,589.39948,170.26009,343.95276,643.21735
157,1.3,101.85487,378.9599,674.52783,129.10464,390.78983,588.78754,170.276,342.45303,642.98425
158,1.308,101.72559,378.09131,674.30817,128.57658,390.33099,588.19977,170.06453,341.36682,642.41754
159,1.317,101.4612,378.28067,674.16455,128.3152,390.55185,587.96289,169.21599,340.18558,642.01807
160,1.325,101.89824,377.12021,674.03748,127.39133,390.53946,587.8382,168.67574,339.05731,640.8465
161,1.333,101.30946,376.5885,673.5929,127.30191,390.63519,587.68652,167.89955,338.01678,640.37189
162,1.342,101.11433,374.40671,673.09607,127.26408,391.4679,588.22894,166.99274,337.17059,640.35199
163,1.35,100.71738,373.88492,673.40338,127.04346,391.50864,588.21527,165.78023,336.23004,639.77502
164,1.358,99.84422,373.98404,673.33594,127.14707,392.59723,588.86914,165.14777,336.29449,639.72778
165,1.367,99.2318,373.40875,673.46521,126.62968,392.97495,589.31732,165.56657,339.04224,640.24139
166,1.375,99.06372,374.64133,673.56531,125.4873,394.46033,589.54626,165.52748,339.40857,639.78278
167,1.383,98.59987,375.56717,674.76221,125.56349,395.12027,589.86511,165.31396,339.62469,639.98096
168,1.392,97.87092,376.07904,675.14917,125.542,396.02921,589.97839,164.88086,337.38184,640.57086
169,1.4,98.84237,376.46246,675.10596,125.12564,396.03174,590.17633,164.3577,337.87799,640.67267
170,1.408,97.67361,377.70197,675.36578,125.12564,396.03174,590.17633,164.14909,337.7168,641.008
171,1.417,97.91174,378.08133,675.58051,124.9266,396.3316,590.06995,164.06584,338.78879,641.55371
172,1.425,97.7956,377.80206,675.85748,124.61863,395.96292,590.13416,163.71242,338.76572,641.61041
173,1.433,97.92278,378.0116,676.35901,124.5323,396.31778,590.31006,163.97993,339.08014,642.08862
174,1.442,97.72305,378.6944,676.69556,124.5323,396.31778,590.31006,164.56667,339.56949,642.84894
175,1.45,98.41914,379.79141,677.02814,124.68222,396.72787,590.4881,164.78978,340.21783,643.57129
176,1.458,97.71553,380.3071,677.41077,124.53053,396.67957,590.55408,165.26529,340.69394,643.21991
177,1.467,97.71553,380.3071,677.41077,124.53053,396.67957,590.55408,164.08083,339.12103,643.31549
178,1.475,97.73649,380.44525,677.16473,124.68222,396.72787,590.4881,164.33687,342.10843,643.02179
179,1.483,98.34368,380.73599,677.35999,125.09928,396.68597,590.47961,164.55788,343.09579,643.32727
180,1.492,99.14786,382.1983,677.37671,125.10114,396.32416,590.23553,166.74097,345.55035,643.87402
181,1.5,98.71999,381.61304,677.27399,125.34376,396.28961,590.0614,167.18871,346.84219,644.84882
182,1.508,99.32463,382.75983,676.89679,125.65643,396.24237,589.91998,168.27823,348.85306,644.40094
183,1.517,99.17419,383.14285,676.85211,126.24466,395.84549,589.15149,168.62782,349.83521,644.63721
184,1.525,99.32266,383.819,676.54047,126.57635,396.35889,589.39569,168.95152,350.56287,645.34753
185,1.533,99.74677,384.02444,676.28021,126.8988,396.84933,589.44421,168.89099,350.64853,645.29108
186,1.542,99.91187,384.73358,676.3241,125.95522,395.58871,589.04742,168.76578,350.82028,645.41003
187,1.55,100.36562,384.78891,675.42059,125.95522,395.58871,589.04742,168.89099,350.64853,645.29108
188,1.558,100.35033,385.26599,675.06348,126.66784,395.25,588.79761,169.50903,350.53729,645.05975
189,1.567,100.35033,385.26599,675.06348,127.30983,394.86606,588.755,169.04393,350.64047,644.47614
190,1.575,100.20015,385.1459,674.86749,127.17461,394.6752,588.56555,169.40138,349.85208,643.93073
191,1.583,100.21503,384.71375,674.77655,127.35922,394.17944,588.39417,169.53671,349.03082,643.59497
192,1.592,100.54244,384.57004,674.86273,127.71495,394.32971,588.59729,169.38516,348.36618,643.51324
193,1.6,100.57034,384.32333,674.86774,128.04781,393.73514,588.58661,169.07907,345.19388,642.7923
194,1.608,100.74818,382.16885,674.35797,127.73492,393.78235,588.72815,168.33699,343.47867,642.42175
195,1.617,100.98074,380.73572,674.55573,128.10068,393.09729,589.21411,168.37363,343.31741,642.22894
196,1.625,100.66054,379.50754,674.4328,128.09956,393.13779,589.43469,169.14388,345.49188,641.67535
197,1.633,100.65552,378.74738,674.70367,128.34401,393.13229,589.80634,167.67514,340.51727,640.99548
198,1.642,100.62014,377.95483,675.14264,128.82387,392.65018,590.40564,166.76192,337.33563,640.32825
199,1.65,101.22842,376.47763,676.12109,129.05745,392.73602,590.54938,166.06667,337.7645,640.15698
200,1.658,101.23251,374.43384,675.79059,129.0444,392.57526,591.12903,165.36761,336.61951,639.49585
201,1.667,100.71105,371.98544,675.53156,128.73907,393.20911,592.11035,165.1889,336.43954,638.91052
202,1.675,100.50701,371.84711,675.01782,128.6088,393.94144,592.69049,164.89783,335.63824,638.50635
203,1.683,100.46472,371.02066,674.86639,128.49321,394.04443,593.44995,164.64597,332.46948,638.20392
