Frame#,Time,L.Forearm.x,L.Forearm.y,L.Forearm.z,L.Ulna.x,L.Ulna.y,L.Ulna.z,L.Radius.x,L.Radius.y,L.Radius.z
1,0,462.39505,341.64035,961.83887,522.5368,352.17462,913.39569,518.83984,280.16183,973.50098
2,0.008,462.39505,341.64035,961.83887,522.68591,351.85663,913.53876,518.83984,280.16183,973.50098
3,0.017,462.39505,341.64035,961.83887,522.68591,351.85663,913.53876,518.83984,280.16183,973.50098
4,0.025,462.39505,341.64035,961.83887,522.68591,351.85663,913.53876,518.94537,279.72156,973.61218
5,0.033,461.98547,341.72888,961.66937,522.68591,351.85663,913.53876,519.70972,280.72397,972.79462
6,0.042,461.77686,341.77142,961.81702,522.5368,352.17462,913.39569,519.71387,281.10046,973.12872
7,0.05,461.77686,341.77142,961.81702,521.81012,351.96536,913.49744,519.71387,281.10046,973.12872
8,0.058,462.26038,341.74368,961.76361,522.68591,351.85663,913.53876,519.71387,281.10046,973.12872
9,0.067,461.77686,341.77142,961.81702,522.68591,351.85663,913.53876,519.71387,281.10046,973.12872
10,0.075,461.77686,341.77142,961.81702,522.68591,351.85663,913.53876,519.13531,280.75696,973.17279
11,0.083,461.98547,341.72888,961.66937,522.68591,351.85663,913.53876,519.37274,280.6373,973.06543
12,0.092,461.77686,341.77142,961.81702,522.68591,351.85663,913.53876,519.71387,281.10046,973.12872
13,0.1,461.77686,341.77142,961.81702,522.68591,351.85663,913.53876,519.37274,280.6373,973.06543
14,0.108,461.98547,341.72888,961.66937,522.5368,352.17462,913.39569,519.47638,281.22012,973.23608
15,0.117,461.98547,341.72888,961.66937,522.5368,352.17462,913.39569,519.37097,281.66022,973.12488
16,0.125,461.98547,341.72888,961.66937,522.5368,352.17462,913.39569,519.37097,281.66022,973.12488
17,0.133,461.77686,341.77142,961.81702,522.14941,352.28406,913.28345,519.37097,281.66022,973.12488
18,0.142,461.77686,341.77142,961.81702,522.14941,352.28406,913.28345,518.72827,280.38757,973.18219
19,0.15,461.77686,341.77142,961.81702,522.14941,352.28406,913.28345,518.72827,280.38757,973.18219
20,0.158,461.77686,341.77142,961.81702,522.14941,352.28406,913.28345,518.72827,280.38757,973.18219
21,0.167,461.98547,341.72888,961.66937,522.14941,352.28406,913.28345,518.84039,280.60431,972.94232
22,0.175,461.92889,341.84973,961.56885,522.14941,352.28406,913.28345,518.80359,280.45898,973.02228
23,0.183,461.98547,341.72888,961.66937,522.14941,352.28406,913.28345,518.87122,280.43909,972.76947
24,0.192,461.98547,341.72888,961.66937,522.14941,352.28406,913.28345,518.56433,280.59064,972.56079
25,0.2,461.98547,341.72888,961.66937,522.14941,352.28406,913.28345,518.36157,280.67587,972.74402
26,0.208,461.77686,341.77142,961.81702,521.2738,352.39243,913.24207,518.50513,280.67706,972.47217
27,0.217,461.72025,341.89227,961.71649,522.14941,352.28406,913.28345,518.45972,280.46475,972.2431
28,0.225,461.72025,341.89227,961.71649,522.14941,352.28406,913.28345,518.98724,280.58212,972.41174
29,0.233,461.77686,341.77142,961.81702,522.14941,352.28406,913.28345,518.68549,280.55762,972.53583
30,0.242,461.98547,341.72888,961.66937,521.2738,352.39243,913.24207,518.74658,280.72525,972.77783
31,0.25,461.77686,341.77142,961.81702,522.14941,352.28406,913.28345,518.66736,280.52322,972.84174
32,0.258,461.77686,341.77142,961.81702,521.2738,352.39243,913.24207,518.30182,280.65494,972.95117
33,0.267,461.77686,341.77142,961.81702,521.2738,352.39243,913.24207,518.84039,280.60431,972.94232
34,0.275,461.77686,341.77142,961.81702,521.2738,352.39243,913.24207,518.84039,280.60431,972.94232
35,0.283,461.77686,341.77142,961.81702,521.2738,352.39243,913.24207,518.60303,280.72403,973.04968
36,0.292,461.77686,341.77142,961.81702,521.2738,352.39243,913.24207,518.76514,280.5329,973.10223
37,0.3,461.77686,341.77142,961.81702,521.2738,352.39243,913.24207,518.84039,280.60431,972.94232
38,0.308,461.77686,341.77142,961.81702,520.90204,352.91833,913.336,518.76514,280.5329,973.10223
39,0.317,461.77686,341.77142,961.81702,520.90204,352.91833,913.336,518.63971,280.56607,973.06824
40,0.325,461.77686,341.77142,961.81702,520.71088,353.57886,913.53552,518.40234,280.68579,973.17554
41,0.333,462.03851,342.24792,961.88556,520.65161,354.25696,913.57965,518.22003,280.68149,973.2146
42,0.342,461.77686,341.77142,961.81702,520.65161,354.25696,913.57965,518.22003,280.68149,973.2146
43,0.35,461.77686,341.77142,961.81702,520.70447,354.28082,914.15015,518.52777,280.65262,973.20953
44,0.358,461.79526,341.99463,962.04822,520.70447,354.28082,914.15015,518.22003,280.68149,973.2146
45,0.367,462.03851,342.24792,961.88556,520.70447,354.28082,914.15015,518.15808,280.97766,973.29163
46,0.375,461.79526,341.99463,962.04822,520.70447,354.28082,914.15015,518.46582,280.94876,973.28656
47,0.383,461.77686,341.77142,961.81702,520.70447,354.28082,914.15015,518.22003,280.68149,973.2146
48,0.392,462.03851,342.24792,961.88556,520.70447,354.28082,914.15015,518.80542,281.25436,973.27527
49,0.4,462.03851,342.24792,961.88556,520.70447,354.28082,914.15015,518.86737,280.95828,973.1983
50,0.408,462.31345,342.26276,961.9798,520.65161,354.25696,913.57965,519.96265,282.85641,972.83881
51,0.417,462.31345,342.26276,961.9798,520.65161,354.25696,913.57965,519.9964,282.50076,972.74854
52,0.425,462.31345,342.26276,961.9798,521.95825,352.94461,913.48297,519.9964,282.50076,972.74854
53,0.433,462.52206,342.22021,961.83221,522.5368,352.17462,913.39569,519.9964,282.50076,972.74854
54,0.442,462.31345,342.26276,961.9798,522.5368,352.17462,913.39569,519.9964,282.50076,972.74854
55,0.45,462.52206,342.22021,961.83221,522.5368,352.17462,913.39569,519.9964,282.50076,972.74854
56,0.458,462.52206,342.22021,961.83221,522.5368,352.17462,913.39569,519.9964,282.50076,972.74854
57,0.467,462.52206,342.22021,961.83221,522.5368,352.17462,913.39569,519.9964,282.50076,972.74854
58,0.475,462.46552,342.341,961.73169,522.5368,352.17462,913.39569,519.9964,282.50076,972.74854
59,0.483,462.52206,342.22021,961.83221,522.5368,352.17462,913.39569,519.9964,282.50076,972.74854
60,0.492,462.54861,342.32141,961.73871,522.5368,352.17462,913.39569,519.9964,282.50076,972.74854
61,0.5,462.49454,342.42377,961.65436,522.5368,352.17462,913.39569,519.15735,280.52261,972.74872
62,0.508,462.49454,342.42377,961.65436,522.5368,352.17462,913.39569,519.9964,282.50076,972.74854
63,0.517,462.49454,342.42377,961.65436,522.5368,352.17462,913.39569,519.8465,282.19073,972.2605
64,0.525,462.2196,342.40894,961.56018,522.5368,352.17462,913.39569,519.8465,282.19073,972.2605
65,0.533,462.49454,342.42377,961.65436,522.5368,352.17462,913.39569,519.8465,282.19073,972.2605
66,0.542,462.46552,342.341,961.73169,522.5368,352.17462,913.39569,519.8465,282.19073,972.2605
67,0.55,462.49454,342.42377,961.65436,522.5368,352.17462,913.39569,519.17194,280.46252,972.53442
68,0.558,462.54861,342.32141,961.73871,522.5368,352.17462,913.39569,519.17194,280.46252,972.53442
69,0.567,462.68658,342.31281,961.72906,522.5368,352.17462,913.39569,519.17194,280.46252,972.53442
70,0.575,462.67242,342.19937,961.83191,522.5368,352.17462,913.39569,519.14624,280.14911,972.43689
71,0.583,462.67242,342.19937,961.83191,522.5368,352.17462,913.39569,519.22473,280.04971,972.09088
72,0.592,462.80551,342.08786,961.91467,523.45526,351.72501,913.09497,519.14624,280.14911,972.43689
73,0.6,462.80627,342.20108,961.81366,523.45526,351.72501,913.09497,519.18311,280.2944,972.35699
74,0.608,462.9393,342.27109,961.57544,523.45526,351.72501,913.09497,519.28857,279.85422,972.4682
75,0.617,463.01486,342.15878,961.66608,523.45526,351.72501,913.09497,519.13507,280.31723,972.61432
76,0.625,463.0141,342.04559,961.76709,523.45526,351.72501,913.09497,519.25171,279.70892,972.5481
77,0.633,463.0141,342.04559,961.76709,523.45526,351.72501,913.09497,519.51605,279.94327,972.69684
78,0.642,463.0141,342.04559,961.76709,523.63983,351.41507,913.39966,519.25171,279.70892,972.5481
79,0.65,463.20612,341.93494,961.84192,523.63983,351.41507,913.39966,519.69275,280.11603,973.10822
80,0.658,463.20612,341.93494,961.84192,523.63983,351.41507,913.39966,519.8183,280.09753,973.37103
81,0.667,463.20612,341.93494,961.84192,523.56171,351.7493,913.5802,519.40247,279.56149,973.46722
82,0.675,462.9975,341.97723,961.9895,523.61462,351.77319,914.15137,519.40247,279.56149,973.46722
83,0.683,462.80551,342.08786,961.91467,523.61462,351.77319,914.15137,519.26184,279.56366,973.65002
84,0.692,462.9975,341.97723,961.9895,523.61462,351.77319,914.15137,520.0304,280.94263,973.16632
85,0.7,462.73584,341.50073,961.92096,523.61462,351.77319,914.15137,520.0304,280.94263,973.16632
86,0.708,462.73584,341.50073,961.92096,523.61462,351.77319,914.15137,519.84241,281.08554,973.30237
87,0.717,462.73584,341.50073,961.92096,523.61462,351.77319,914.15137,519.84241,281.08554,973.30237
88,0.725,462.54382,341.61136,961.84613,523.61462,351.77319,914.15137,519.84241,281.08554,973.30237
89,0.733,462.73584,341.50073,961.92096,523.61462,351.77319,914.15137,519.50134,280.62244,973.23907
90,0.742,462.73584,341.50073,961.92096,523.61462,351.77319,914.15137,519.84241,281.08554,973.30237
91,0.75,462.73584,341.50073,961.92096,523.61462,351.77319,914.15137,519.50134,280.62244,973.23907
92,0.758,462.71234,341.68985,962.10565,523.61462,351.77319,914.15137,519.50134,280.62244,973.23907
93,0.767,462.73584,341.50073,961.92096,523.61462,351.77319,914.15137,519.50134,280.62244,973.23907
94,0.775,462.73584,341.50073,961.92096,523.61462,351.77319,914.15137,519.50134,280.62244,973.23907
95,0.783,462.95792,341.42587,962.07581,523.76404,351.45511,914.29443,519.50134,280.62244,973.23907
96,0.792,463.2608,341.3407,962.11102,523.76404,351.45511,914.29443,519.50134,280.62244,973.23907
97,0.8,463.44147,340.80469,962.24261,523.76404,351.45511,914.29443,519.67444,280.70343,973.33972
98,0.808,463.8623,340.03204,962.70367,523.76404,351.45511,914.29443,519.50134,280.62244,973.23907
99,0.817,463.8623,340.03204,962.70367,523.82416,350.77713,914.25061,519.67444,280.70343,973.33972
100,0.825,463.85095,339.76135,962.78223,523.82416,350.77713,914.25061,519.67444,280.70343,973.33972
101,0.833,463.85095,339.76135,962.78223,523.95599,350.79489,914.09528,519.86053,280.5885,973.23328
102,0.842,463.8623,340.03204,962.70367,524.01599,350.11685,914.05145,519.70203,280.35303,972.99414
103,0.85,464.17899,339.51709,962.64056,524.38812,349.59097,913.95776,520.02539,280.30957,973.26367
104,0.858,463.90335,339.62411,962.71393,524.38812,349.59097,913.95776,520.22058,280.15616,973.14526
105,0.867,463.90335,339.62411,962.71393,524.38812,349.59097,913.95776,520.04938,280.04712,973.01514
106,0.875,464.17899,339.51709,962.64056,524.38812,349.59097,913.95776,520.04938,280.04712,973.01514
107,0.883,464.17899,339.51709,962.64056,524.38812,349.59097,913.95776,520.04938,280.04712,973.01514
108,0.892,464.17899,339.51709,962.64056,524.38812,349.59097,913.95776,520.04938,280.04712,973.01514
109,0.9,464.13614,339.35837,962.54047,524.38812,349.59097,913.95776,520.04938,280.04712,973.01514
110,0.908,464.13614,339.35837,962.54047,524.38812,349.59097,913.95776,520.06055,279.87906,972.83777
111,0.917,463.94958,339.40012,962.38202,524.38812,349.59097,913.95776,520.04938,280.04712,973.01514
112,0.925,463.94958,339.40012,962.38202,524.38812,349.59097,913.95776,520.04938,280.04712,973.01514
113,0.933,463.86105,339.19135,962.24756,524.38812,349.59097,913.95776,520.06055,279.87906,972.83777
114,0.942,463.8573,339.00992,962.14227,524.38812,349.59097,913.95776,520.06055,279.87906,972.83777
115,0.95,464.04388,338.9682,962.30072,524.38812,349.59097,913.95776,520.06055,279.87906,972.83777
116,0.958,464.32407,338.99026,962.26001,524.38812,349.59097,913.95776,520.06055,279.87906,972.83777
117,0.967,464.44373,338.98553,962.10107,524.38812,349.59097,913.95776,520.06055,279.87906,972.83777
118,0.975,464.44373,338.98553,962.10107,524.38812,349.59097,913.95776,520.06055,279.87906,972.83777
119,0.983,464.44373,338.98553,962.10107,524.38812,349.59097,913.95776,520.06055,279.87906,972.83777
120,0.992,464.35522,338.77673,961.96655,524.38812,349.59097,913.95776,520.06055,279.87906,972.83777
121,1,464.52887,338.75583,961.97729,524.38812,349.59097,913.95776,520.06055,279.87906,972.83777
122,1.008,464.3255,338.34964,962.1228,524.75824,349.63644,913.9361,520.20117,279.87668,972.65497
123,1.017,464.3255,338.34964,962.1228,524.9624,349.30597,913.4762,520.30585,279.48901,972.59668
124,1.025,464.52887,338.75583,961.97729,524.9624,349.30597,913.4762,520.30585,279.48901,972.59668
125,1.033,464.52499,338.5744,961.87207,524.9624,349.30597,913.4762,520.29602,279.28281,972.47723
126,1.042,464.52499,338.5744,961.87207,524.9624,349.30597,913.4762,520.43646,278.86893,972.34924
127,1.05,464.52499,338.5744,961.87207,524.9624,349.30597,913.4762,520.62439,278.7258,972.21344
128,1.058,464.52499,338.5744,961.87207,524.9624,349.30597,913.4762,520.43646,278.86893,972.34924
129,1.067,464.59558,338.05954,961.85529,524.9624,349.30597,913.4762,520.43646,278.86893,972.34924
130,1.075,464.4487,337.75958,962.12781,524.9624,349.30597,913.4762,520.43646,278.86893,972.34924
131,1.083,464.32166,338.16821,962.01758,524.9624,349.30597,913.4762,520.43646,278.86893,972.34924
132,1.092,464.32166,338.16821,962.01758,524.59222,349.2605,913.49792,520.43646,278.86893,972.34924
133,1.1,464.09152,338.08279,961.87988,524.75824,349.63644,913.9361,520.29602,279.28281,972.47723
134,1.108,463.96997,338.29678,961.82648,524.9624,349.30597,913.4762,520.28479,279.45099,972.65448
135,1.117,464.35522,338.77673,961.96655,524.38812,349.59097,913.95776,520.06189,279.5047,972.54114
136,1.125,464.35522,338.77673,961.96655,524.38812,349.59097,913.95776,520.06189,279.5047,972.54114
137,1.133,464.35522,338.77673,961.96655,524.38812,349.59097,913.95776,520.06055,279.87906,972.83777
138,1.142,464.15186,338.37051,962.11206,524.38812,349.59097,913.95776,520.06055,279.87906,972.83777
139,1.15,464.02646,338.40311,961.95349,524.38812,349.59097,913.95776,520.06055,279.87906,972.83777
140,1.158,464.15186,338.37051,962.11206,524.38812,349.59097,913.95776,520.06055,279.87906,972.83777
141,1.167,464.15186,338.37051,962.11206,524.38812,349.59097,913.95776,520.06055,279.87906,972.83777
142,1.175,464.15186,338.37051,962.11206,524.38812,349.59097,913.95776,520.06055,279.87906,972.83777
143,1.183,464.15186,338.37051,962.11206,524.38812,349.59097,913.95776,520.06055,279.87906,972.83777
144,1.192,464.35522,338.77673,961.96655,524.38812,349.59097,913.95776,520.06055,279.87906,972.83777
145,1.2,464.35522,338.77673,961.96655,524.38812,349.59097,913.95776,520.06055,279.87906,972.83777
146,1.208,464.17334,338.70294,961.68103,524.38812,349.59097,913.95776,520.20117,279.87668,972.65497
147,1.217,464.22983,338.8093,961.80798,524.38812,349.59097,913.95776,520.21234,279.70847,972.47766
148,1.225,464.22983,338.8093,961.80798,524.38812,349.59097,913.95776,520.20117,279.87668,972.65497
149,1.233,463.98114,338.35132,961.44739,524.38812,349.59097,913.95776,520.21234,279.70847,972.47766
150,1.242,464.09406,338.72418,961.13593,524.59222,349.2605,913.49792,520.20251,279.50226,972.35822
151,1.25,464.09406,338.72418,961.13593,524.53931,349.23621,912.92603,520.07697,279.52048,972.09528
152,1.258,464.10324,338.89499,961.04926,524.53931,349.23621,912.92603,520.07697,279.52048,972.09528
153,1.267,463.91476,339.08615,961.18799,524.53931,349.23621,912.92603,520.08679,279.72672,972.21472
154,1.275,464.10324,338.89499,961.04926,524.53931,349.23621,912.92603,520.07697,279.52048,972.09528
155,1.283,463.80276,338.97385,961.07452,524.53931,349.23621,912.92603,520.07697,279.52048,972.09528
156,1.292,463.81671,338.74292,960.95563,524.53931,349.23621,912.92603,520.07697,279.52048,972.09528
157,1.3,463.65015,339.04788,960.70526,524.53931,349.23621,912.92603,520.07697,279.52048,972.09528
158,1.308,463.45798,339.15866,960.63037,524.53931,349.23621,912.92603,520.07697,279.52048,972.09528
159,1.317,463.45798,339.15866,960.63037,524.53931,349.23621,912.92603,519.71979,279.52621,972.07166
160,1.325,463.45798,339.15866,960.63037,524.3092,348.99808,912.73602,520.06219,279.69992,971.95734
161,1.333,463.65015,339.04788,960.70526,524.20251,348.97382,912.25067,520.06219,279.69992,971.95734
162,1.342,463.66245,339.16074,960.39026,524.20251,348.97382,912.25067,519.29382,278.32062,972.44092
163,1.35,463.474,339.35181,960.52899,524.40698,348.64258,911.79114,519.29382,278.32062,972.44092
164,1.358,464.15509,338.97107,960.43988,524.40698,348.64258,911.79114,519.29382,278.32062,972.44092
165,1.367,464.1427,339.08163,960.28967,524.40698,348.64258,911.79114,520.06219,279.69992,971.95734
166,1.375,464.2608,339.08411,960.05145,524.40698,348.64258,911.79114,519.29382,278.32062,972.44092
167,1.383,464.24301,339.06357,960.05212,524.40698,348.64258,911.79114,519.89038,279.93622,971.92114
168,1.392,464.16342,339.1579,959.95886,524.50714,348.86444,911.60498,519.26837,278.69742,972.36926
169,1.4,464.16342,339.1579,959.95886,524.40698,348.64258,911.79114,519.33069,278.5127,972.26068
170,1.408,464.16342,339.1579,959.95886,524.50714,348.86444,911.60498,519.33069,278.5127,972.26068
171,1.417,464.16342,339.1579,959.95886,524.40698,348.64258,911.79114,519.33069,278.5127,972.26068
172,1.425,464.34073,338.9119,959.89258,524.40698,348.64258,911.79114,519.33069,278.5127,972.26068
173,1.433,463.7601,338.96381,959.72498,524.40698,348.64258,911.79114,519.33069,278.5127,972.26068
174,1.442,464.0325,338.92532,959.69806,524.40698,348.64258,911.79114,520.13959,279.27264,971.59601
175,1.45,463.85782,338.81213,959.56537,524.40698,348.64258,911.79114,520.13959,279.27264,971.59601
176,1.458,463.68588,338.26624,959.81543,524.40698,348.64258,911.79114,520.13959,279.27264,971.59601
177,1.467,463.58817,338.41791,959.97504,524.40698,348.64258,911.79114,520.13959,279.27264,971.59601
178,1.475,463.68588,338.26624,959.81543,524.40698,348.64258,911.79114,520.13959,279.27264,971.59601
179,1.483,464.17499,338.79346,959.75464,524.40698,348.64258,911.79114,520.15436,279.09323,971.73395
180,1.492,463.83975,338.86948,959.8183,524.40698,348.64258,911.79114,520.15436,279.09323,971.73395
181,1.5,463.83975,338.86948,959.8183,524.40698,348.64258,911.79114,519.96826,279.20834,971.84027
182,1.508,463.9848,338.50229,960.31952,524.40698,348.64258,911.79114,519.66986,279.22549,971.83374
183,1.517,463.9848,338.50229,960.31952,524.40698,348.64258,911.79114,519.96826,279.20834,971.84027
184,1.525,463.9848,338.50229,960.31952,524.40698,348.64258,911.79114,519.96826,279.20834,971.84027
185,1.533,463.9848,338.50229,960.31952,524.40698,348.64258,911.79114,519.96826,279.20834,971.84027
186,1.542,463.96384,338.27332,960.81195,524.40698,348.64258,911.79114,519.66986,279.22549,971.83374
187,1.55,463.96384,338.27332,960.81195,524.40698,348.64258,911.79114,519.66986,279.22549,971.83374
188,1.558,464.21545,338.72507,960.65521,524.51379,348.66684,912.27661,519.96826,279.20834,971.84027
189,1.567,464.21545,338.72507,960.65521,524.51379,348.66684,912.27661,519.66986,279.22549,971.83374
190,1.575,464.02148,337.89035,961.01837,524.51379,348.66684,912.27661,519.96826,279.20834,971.84027
191,1.583,464.04474,338.07611,960.92621,524.51379,348.66684,912.27661,519.96826,279.20834,971.84027
192,1.592,464.04474,338.07611,960.92621,524.51379,348.66684,912.27661,520.15436,279.09323,971.73395
193,1.6,464.04474,338.07611,960.92621,524.51379,348.66684,912.27661,519.96826,279.20834,971.84027
194,1.608,464.14996,337.99265,960.94312,524.51379,348.66684,912.27661,519.96826,279.20834,971.84027
195,1.617,464.14996,337.99265,960.94312,524.51379,348.66684,912.27661,519.96826,279.20834,971.84027
196,1.625,464.14996,337.99265,960.94312,524.51379,348.66684,912.27661,519.96826,279.20834,971.84027
197,1.633,464.14996,337.99265,960.94312,524.51379,348.66684,912.27661,519.96826,279.20834,971.84027
198,1.642,464.02148,337.89035,961.01837,524.51379,348.66684,912.27661,519.96826,279.20834,971.84027
199,1.65,463.69913,337.95483,961.05865,524.51379,348.66684,912.27661,519.96826,279.20834,971.84027
200,1.658,463.33954,337.91953,960.82208,524.51379,348.66684,912.27661,519.57239,279.16513,971.89587
201,1.667,463.18033,337.939,960.8197,524.51379,348.66684,912.27661,519.57239,279.16513,971.89587
202,1.675,462.67258,338.03494,960.82404,524.51379,348.66684,912.27661,519.50995,279.36798,972.02094
