Frame#,Time,R.Forearm.x,R.Forearm.y,R.Forearm.z,R.Ulna.x,R.Ulna.y,R.Ulna.z,R.Radius.x,R.Radius.y,R.Radius.z
1,0,98.761,-123.73768,977.01227,184.55159,-183.2338,961.47363,225.02206,-93.80972,955.32367
2,0.008,98.7611,-123.58313,977.19098,184.55159,-183.2338,961.47363,225.31917,-93.66916,955.62958
3,0.017,98.64986,-123.27431,977.55005,184.59392,-183.01064,961.59924,225.31917,-93.66916,955.62958
4,0.025,98.62286,-123.24635,977.36035,184.6588,-182.33002,962.61414,225.31917,-93.66916,955.62958
5,0.033,98.82748,-122.81673,977.30219,185.20779,-182.12021,962.74493,225.09178,-93.0144,955.70477
6,0.042,98.83184,-122.52534,977.87659,185.15134,-180.83812,962.57031,224.80431,-92.85732,956.08221
7,0.05,98.91614,-122.31882,977.97028,185.15134,-180.83812,962.57031,224.88673,-92.50729,956.3421
8,0.058,98.93332,-122.21121,978.11121,185.33601,-180.51527,962.76245,224.7905,-92.64301,956.50818
9,0.067,98.4846,-121.10767,977.87762,185.25409,-180.20367,962.9986,224.88963,-91.8913,957.17395
10,0.075,98.28963,-121.00302,978.06122,185.45178,-179.87062,963.22412,224.57184,-91.71003,957.50702
11,0.083,98.55479,-121.73398,978.74927,185.78606,-179.66968,963.78241,224.57184,-91.71003,957.50702
12,0.092,98.28963,-121.00302,978.06122,185.56355,-179.44357,964.08649,224.75003,-91.3775,957.90912
13,0.1,98.19445,-120.79972,978.16937,185.56355,-179.44357,964.08649,224.77939,-91.50227,958.04211
14,0.108,98.28963,-121.00302,978.06122,185.864,-179.0643,964.51117,224.1851,-91.05873,958.51904
15,0.117,98.22668,-120.92712,978.33105,185.88606,-179.09357,964.76764,224.1851,-91.05873,958.51904
16,0.125,98.41138,-120.77125,978.42615,185.88606,-179.09357,964.76764,224.33119,-91.22041,958.86963
17,0.133,98.83477,-121.05522,979.02014,186.02663,-178.79558,965.29218,224.30347,-91.48522,959.07617
18,0.142,98.87637,-120.94757,979.19214,186.02663,-178.79558,965.29218,224.48694,-91.46226,959.4256
19,0.15,99.32556,-121.80591,979.75134,186.02663,-178.79558,965.29218,224.7386,-91.22694,959.64423
20,0.158,99.50419,-121.86875,979.85852,186.16748,-179.08919,965.41937,224.7386,-91.22694,959.64423
21,0.167,99.96656,-121.87971,979.12146,186.16748,-179.08919,965.41937,224.8923,-91.34573,959.74982
22,0.175,100.15512,-121.74499,979.20032,186.62042,-178.53154,965.409,225.18956,-91.2044,960.05542
23,0.183,100.15512,-121.74499,979.20032,186.42723,-178.80615,965.50995,225.18956,-91.2044,960.05542
24,0.192,100.46223,-122.01454,979.08154,186.49269,-178.76582,965.37836,225.50726,-91.38562,959.72253
25,0.2,100.7055,-122.32544,979.16956,186.49269,-178.76582,965.37836,226.06299,-91.21242,959.9668
26,0.208,100.7055,-122.32544,979.16956,186.8633,-178.98634,965.55194,226.12175,-92.04202,959.50403
27,0.217,100.96502,-122.63872,979.34998,187.26596,-179.81679,966.45734,227.27681,-91.99969,959.49854
28,0.225,101.00245,-122.85191,980.23383,187.36043,-180.11624,966.63831,227.27681,-91.99969,959.49854
29,0.233,101.0759,-122.76766,980.09723,187.34727,-180.06264,966.59576,227.49449,-91.98065,959.44122
30,0.242,101.0759,-122.76766,980.09723,187.14523,-180.26649,965.62512,227.69794,-92.39348,959.27576
31,0.25,101.39894,-122.69122,980.05359,187.21144,-180.27803,965.54846,227.89784,-92.44383,959.29834
32,0.258,101.45591,-122.81058,980.25867,187.35541,-180.79828,966.13361,227.93423,-92.80575,959.43457
33,0.267,101.45591,-122.81058,980.25867,187.38042,-180.46817,965.41772,228.00595,-93.47311,959.2326
34,0.275,101.48635,-122.98013,980.16846,187.74757,-181.20987,964.93262,228.76425,-93.55541,959.22418
35,0.283,101.48635,-122.98013,980.16846,188.48506,-181.7655,965.03864,228.76425,-93.55541,959.22418
36,0.292,101.82272,-123.49551,980.16479,188.48506,-181.7655,965.03864,228.76425,-93.55541,959.22418
37,0.3,101.80567,-123.60289,980.0238,188.53496,-181.99165,964.85834,228.89552,-93.5721,958.97382
38,0.308,102.20108,-122.6253,979.56445,188.53496,-181.99165,964.85834,228.89552,-93.5721,958.97382
39,0.317,102.10593,-122.42173,979.67249,188.95143,-182.06493,964.62628,228.89552,-93.5721,958.97382
40,0.325,102.66855,-124.18522,980.06866,188.64285,-182.55885,964.37152,229.07727,-93.47845,958.84009
41,0.333,102.20108,-122.6253,979.56445,188.78728,-182.73845,964.11371,229.07727,-93.47845,958.84009
42,0.342,102.20108,-122.6253,979.56445,188.8632,-183.01611,964.28259,229.87543,-94.81893,957.89966
43,0.35,102.29221,-122.93027,979.73212,188.8632,-183.01611,964.28259,229.87543,-94.81893,957.89966
44,0.358,102.17003,-122.48659,979.38715,188.77725,-183.11935,963.90112,229.87543,-94.81893,957.89966
45,0.367,102.35576,-122.65417,979.23914,188.60388,-182.86154,963.60541,229.88951,-95.03385,957.47345
46,0.375,102.38682,-122.79288,979.41644,188.18452,-182.89867,963.49054,229.91672,-94.76914,957.26709
47,0.383,103.35099,-124.62539,979.56769,187.89539,-183.87514,963.43451,229.66518,-95.00458,957.04803
48,0.392,103.76108,-124.60756,979.18939,188.44878,-183.271,963.18256,229.48778,-95.33762,956.64532
49,0.4,103.7774,-124.72174,979.05066,188.48378,-183.37984,963.07642,229.45523,-96.29531,956.14111
50,0.408,103.7774,-124.72174,979.05066,188.40892,-183.40616,962.96771,229.64694,-96.58831,955.92993
51,0.417,103.62421,-124.74957,978.573,188.50394,-183.48032,962.99377,229.64694,-96.58831,955.92993
52,0.425,103.89075,-124.98025,978.60449,188.6235,-183.29663,962.68903,229.34964,-96.72955,955.62372
53,0.433,103.86418,-125.12361,978.27905,188.43712,-183.99831,962.55963,229.55356,-96.6531,955.505
54,0.442,104.05022,-125.13465,977.8111,189.12868,-184.27855,962.6759,229.55356,-96.6531,955.505
55,0.45,104.26996,-125.26003,977.92352,189.2816,-184.45103,962.65295,229.55356,-96.6531,955.505
56,0.458,104.42786,-125.26092,977.49854,189.48647,-184.61082,962.70404,229.55356,-96.6531,955.505
57,0.467,104.42781,-125.41532,977.32007,189.07596,-184.4343,962.93695,229.55356,-96.6531,955.505
58,0.475,104.42781,-125.41532,977.32007,189.4241,-184.8045,962.62189,229.43192,-96.71748,955.22235
59,0.483,104.42781,-125.41532,977.32007,189.70869,-184.46039,962.64063,229.8698,-96.79814,955.24243
60,0.492,104.42781,-125.41532,977.32007,189.4241,-184.8045,962.62189,229.83908,-96.74697,954.81653
61,0.5,104.61359,-125.64104,977.29059,189.27145,-184.85782,962.90875,229.73621,-97.75939,954.61816
62,0.508,104.61359,-125.64104,977.29059,189.4241,-184.8045,962.62189,230.03088,-97.04005,954.60522
63,0.517,104.94431,-125.31961,977.23456,189.27145,-184.85782,962.90875,229.9035,-97.90764,954.25061
64,0.525,104.75851,-125.09393,977.26404,189.4241,-184.8045,962.62189,229.9035,-97.90764,954.25061
65,0.533,104.76436,-125.18414,977.08374,189.52455,-185.02814,962.26404,230.03088,-97.04005,954.60522
66,0.542,104.95014,-125.40984,977.05432,189.2887,-184.98567,962.37469,229.92805,-98.05261,954.40686
67,0.55,104.61942,-125.73129,977.11029,189.2887,-184.98567,962.37469,229.92805,-98.05261,954.40686
68,0.558,104.61942,-125.73129,977.11029,189.52455,-185.02814,962.26404,229.92805,-98.05261,954.40686
69,0.567,104.61942,-125.73129,977.11029,189.52455,-185.02814,962.26404,229.92805,-98.05261,954.40686
70,0.575,104.67062,-125.76067,977.49603,189.52455,-185.02814,962.26404,229.92805,-98.05261,954.40686
71,0.583,104.61359,-125.64104,977.29059,189.63274,-185.1837,962.20972,229.92805,-98.05261,954.40686
72,0.592,104.67062,-125.76067,977.49603,189.52455,-185.02814,962.26404,229.92805,-98.05261,954.40686
73,0.6,104.6956,-125.45706,977.80365,189.52455,-185.02814,962.26404,230.01492,-97.83443,954.95313
74,0.608,104.6956,-125.45706,977.80365,189.52455,-185.02814,962.26404,229.83711,-98.16824,954.55011
75,0.617,104.6956,-125.45706,977.80365,189.52455,-185.02814,962.26404,229.78954,-97.57337,955.07263
76,0.625,104.6956,-125.45706,977.80365,189.2887,-184.98567,962.37469,229.50676,-97.39609,955.42706
77,0.633,104.6956,-125.45706,977.80365,189.2887,-184.98567,962.37469,229.80411,-97.25483,955.73334
78,0.642,104.6956,-125.45706,977.80365,189.2887,-184.98567,962.37469,229.80411,-97.25483,955.73334
79,0.65,104.50981,-125.23132,977.83307,189.11638,-185.13228,962.37598,229.80411,-97.25483,955.73334
80,0.658,104.38284,-125.27945,977.9964,189.11638,-185.13228,962.37598,229.80411,-97.25483,955.73334
81,0.667,104.38284,-125.27945,977.9964,189.11638,-185.13228,962.37598,229.80411,-97.25483,955.73334
82,0.675,104.38284,-125.27945,977.9964,189.30049,-184.93443,962.6499,229.80411,-97.25483,955.73334
83,0.683,104.14297,-125.30817,978.08679,189.30049,-184.93443,962.6499,229.80411,-97.25483,955.73334
84,0.692,104.16022,-125.04619,978.40625,189.30049,-184.93443,962.6499,229.85081,-96.51189,955.81116
85,0.7,104.38289,-125.12511,978.17493,189.13782,-185.04903,962.9917,229.85081,-96.51189,955.81116
86,0.708,104.38289,-125.12511,978.17493,188.95647,-184.58983,962.99554,229.80411,-97.25483,955.73334
87,0.717,104.40005,-125.01746,978.31586,189.13782,-185.04903,962.9917,229.85081,-96.51189,955.81116
88,0.725,104.16022,-125.04619,978.40625,188.95647,-184.58983,962.99554,229.85081,-96.51189,955.81116
89,0.733,104.14304,-125.15383,978.26532,189.13782,-185.04903,962.9917,229.85081,-96.51189,955.81116
90,0.742,104.14304,-125.15383,978.26532,188.78697,-184.76367,963.14679,229.85081,-96.51189,955.81116
91,0.75,104.14297,-125.30817,978.08679,188.78697,-184.76367,963.14679,229.85081,-96.51189,955.81116
92,0.758,103.8641,-125.27795,978.10059,188.69595,-184.99191,963.10022,229.85081,-96.51189,955.81116
93,0.767,103.80109,-125.47643,977.97986,188.69595,-184.99191,963.10022,229.80411,-97.25483,955.73334
94,0.775,104.08,-125.50664,977.96613,188.63684,-185.05943,962.67578,229.64694,-96.58831,955.92993
95,0.783,103.86403,-125.4324,977.92218,188.63684,-185.05943,962.67578,229.85081,-96.51189,955.81116
96,0.792,103.80102,-125.63084,977.80145,188.93344,-185.50034,962.91437,229.50676,-97.39609,955.42706
97,0.8,103.80102,-125.63084,977.80145,188.45279,-185.25722,962.40186,229.50676,-97.39609,955.42706
98,0.808,103.61269,-125.79121,977.69305,188.61568,-185.5612,962.71844,229.50676,-97.39609,955.42706
99,0.817,103.61269,-125.79121,977.69305,188.45279,-185.25722,962.40186,229.50676,-97.39609,955.42706
100,0.825,103.61269,-125.79121,977.69305,188.61568,-185.5612,962.71844,229.50676,-97.39609,955.42706
101,0.833,103.61852,-125.88145,977.51276,188.44649,-185.7178,963.11456,229.32889,-97.72971,955.02417
102,0.842,103.61852,-125.88145,977.51276,188.45279,-185.25722,962.40186,229.50676,-97.39609,955.42706
103,0.85,103.80432,-126.10717,977.48334,188.61568,-185.5612,962.71844,229.47331,-98.19555,955.00616
104,0.858,103.74727,-125.98758,977.27789,188.45279,-185.25722,962.40186,229.7493,-98.67803,954.73773
105,0.867,103.64307,-126.25123,977.43896,188.67328,-185.42068,962.47144,229.7493,-98.67803,954.73773
106,0.875,103.93428,-126.55959,977.64001,188.05501,-185.70421,962.11188,229.7493,-98.67803,954.73773
107,0.883,103.93428,-126.55959,977.64001,187.87674,-185.78485,962.43805,229.7493,-98.67803,954.73773
108,0.892,103.47408,-127.17538,977.77875,187.87674,-185.78485,962.43805,229.54529,-98.75446,954.85663
109,0.9,103.67185,-126.77064,977.63068,188.21033,-186.05904,961.91168,229.54529,-98.75446,954.85663
110,0.908,103.42987,-126.91803,977.55927,188.02695,-186.22171,961.79626,229.7493,-98.67803,954.73773
111,0.917,103.28416,-127.42206,977.82135,187.47522,-186.70313,961.81531,229.54529,-98.75446,954.85663
112,0.925,103.28416,-127.42206,977.82135,187.4433,-186.85371,961.72504,229.95323,-99.36227,954.23431
113,0.933,103.28416,-127.42206,977.82135,187.4433,-186.85371,961.72504,229.95323,-99.36227,954.23431
114,0.942,103.30105,-127.5379,977.68048,187.77762,-186.96758,960.99054,229.4494,-99.54395,954.11792
115,0.95,103.00851,-127.62222,977.06207,187.9142,-187.56502,960.81342,229.95323,-99.36227,954.23431
116,0.958,103.05273,-127.87958,977.28162,188.03096,-187.52568,960.66388,229.65347,-99.4676,953.99902
117,0.967,103.11646,-127.94277,977.09882,188.03096,-187.52568,960.66388,229.65347,-99.4676,953.99902
118,0.975,103.07223,-127.68542,976.87927,188.03096,-187.52568,960.66388,229.65347,-99.4676,953.99902
119,0.983,103.11646,-127.94277,977.09882,188.03096,-187.52568,960.66388,229.65347,-99.4676,953.99902
120,0.992,103.35132,-127.71563,976.8656,188.03096,-187.52568,960.66388,229.65347,-99.4676,953.99902
121,1,103.59135,-127.68689,976.77509,187.88072,-187.80721,960.41089,229.65347,-99.4676,953.99902
122,1.008,103.39555,-127.97298,977.08508,187.88072,-187.80721,960.41089,229.97238,-99.64883,953.66486
123,1.017,103.54151,-127.55629,976.72186,187.48125,-187.51265,960.65875,229.97238,-99.64883,953.66486
124,1.025,103.29638,-127.67771,976.66699,187.48125,-187.51265,960.65875,229.97238,-99.64883,953.66486
125,1.033,103.81548,-127.67921,976.56281,187.48125,-187.51265,960.65875,229.97238,-99.64883,953.66486
126,1.042,103.81548,-127.67921,976.56281,187.48125,-187.51265,960.65875,229.97238,-99.64883,953.66486
127,1.05,103.48898,-127.77902,976.39612,187.88072,-187.80721,960.41089,229.97238,-99.64883,953.66486
128,1.058,103.62901,-127.80645,976.50519,187.88072,-187.80721,960.41089,229.97238,-99.64883,953.66486
129,1.067,103.48898,-127.77902,976.39612,187.88072,-187.80721,960.41089,230.06335,-99.53324,953.52148
130,1.075,103.46233,-127.71243,976.31067,187.48125,-187.51265,960.65875,230.06335,-99.53324,953.52148
131,1.083,103.46233,-127.71243,976.31067,187.24307,-187.29054,960.62134,230.06335,-99.53324,953.52148
132,1.092,103.48898,-127.77902,976.39612,187.88072,-187.80721,960.41089,230.03879,-99.38824,953.36523
133,1.1,103.46233,-127.71243,976.31067,187.67906,-187.63513,960.3775,230.03879,-99.38824,953.36523
134,1.108,103.46233,-127.71243,976.31067,187.88072,-187.80721,960.41089,230.06335,-99.53324,953.52148
135,1.117,103.19728,-127.63834,976.258,187.67906,-187.63513,960.3775,230.06335,-99.53324,953.52148
136,1.125,103.45442,-127.62023,976.47754,187.67906,-187.63513,960.3775,229.97238,-99.64883,953.66486
137,1.133,102.92918,-127.46903,976.34912,187.54968,-187.38858,960.28278,230.06335,-99.53324,953.52148
138,1.142,102.72145,-127.6368,976.35352,187.54968,-187.38858,960.28278,229.97238,-99.64883,953.66486
139,1.15,102.92918,-127.46903,976.34912,187.19894,-187.10255,960.82141,229.62381,-99.34277,953.86572
140,1.158,102.95186,-127.16576,976.22528,187.19894,-187.10255,960.82141,229.65347,-99.4676,953.99902
141,1.167,102.78299,-127.00537,976.47131,187.53395,-187.22084,960.46448,229.65347,-99.4676,953.99902
142,1.175,102.49831,-127.01985,976.55096,187.53395,-187.22084,960.46448,229.65347,-99.4676,953.99902
143,1.183,102.66719,-127.1802,976.30499,187.36584,-186.99094,960.89398,229.65347,-99.4676,953.99902
144,1.192,102.98528,-126.99358,976.68707,187.69995,-187.10703,960.53583,229.65347,-99.4676,953.99902
145,1.2,102.62652,-126.93301,976.8703,187.36584,-186.99094,960.89398,229.65347,-99.4676,953.99902
146,1.208,102.45744,-127.05538,977.02063,187.2341,-187.03128,961.06671,229.65347,-99.4676,953.99902
147,1.217,101.81738,-124.6223,977.04828,186.98309,-186.75159,961.40173,229.24896,-99.31606,954.26587
148,1.225,102.24179,-124.51227,976.97357,186.98309,-186.75159,961.40173,229.65347,-99.4676,953.99902
149,1.233,102.14745,-124.40308,977.11475,186.98309,-186.75159,961.40173,229.24896,-99.31606,954.26587
150,1.242,101.81738,-124.6223,977.04828,186.8425,-186.87369,962.00214,229.63675,-99.2165,954.49731
151,1.25,102.00732,-124.37557,977.00562,186.8425,-186.87369,962.00214,229.63675,-99.2165,954.49731
152,1.258,102.00732,-124.37557,977.00562,186.97421,-186.66086,961.95166,229.63675,-99.2165,954.49731
153,1.267,101.97237,-124.38007,976.65192,187.30101,-186.7972,961.62726,229.63675,-99.2165,954.49731
154,1.275,102.03565,-125.03127,976.99988,186.8425,-186.87369,962.00214,229.43271,-99.29291,954.61621
155,1.283,101.64841,-124.45157,976.69775,186.97421,-186.66086,961.95166,229.43271,-99.29291,954.61621
156,1.292,101.97237,-124.38007,976.65192,186.97421,-186.66086,961.95166,229.43271,-99.29291,954.61621
157,1.3,102.11998,-124.42728,976.7832,186.97421,-186.66086,961.95166,229.54529,-98.75446,954.85663
158,1.308,102.03565,-125.03127,976.99988,187.33292,-186.64661,961.71753,229.54529,-98.75446,954.85663
159,1.317,101.94459,-124.72655,976.83203,187.33292,-186.64661,961.71753,229.54529,-98.75446,954.85663
160,1.325,101.91367,-124.12522,976.81226,186.80254,-186.26801,962.08832,229.54529,-98.75446,954.85663
161,1.333,101.58967,-124.19672,976.85809,186.98889,-186.49352,962.04803,229.54529,-98.75446,954.85663
162,1.342,101.58967,-124.19672,976.85809,186.80254,-186.26801,962.08832,229.54529,-98.75446,954.85663
163,1.35,101.79602,-124.49881,976.82904,186.98889,-186.49352,962.04803,229.54529,-98.75446,954.85663
164,1.358,101.64841,-124.45157,976.69775,187.15047,-186.45103,961.76025,229.54529,-98.75446,954.85663
165,1.367,101.76605,-124.07799,976.68097,187.33292,-186.64661,961.71753,229.54529,-98.75446,954.85663
166,1.375,101.58967,-124.19672,976.85809,187.33292,-186.64661,961.71753,229.54529,-98.75446,954.85663
167,1.383,101.58967,-124.19672,976.85809,186.8804,-186.19386,961.88666,229.54529,-98.75446,954.85663
168,1.392,101.79602,-124.49881,976.82904,187.33292,-186.64661,961.71753,229.36156,-98.77753,954.50635
169,1.4,101.60032,-124.03738,976.52679,186.8804,-186.19386,961.88666,229.1575,-98.854,954.62518
170,1.408,101.97237,-124.38007,976.65192,186.8804,-186.19386,961.88666,229.36156,-98.77753,954.50635
171,1.417,102.00732,-124.37557,977.00562,186.8804,-186.19386,961.88666,229.1575,-98.854,954.62518
172,1.425,102.17236,-124.27821,976.83374,186.80254,-186.26801,962.08832,229.36156,-98.77753,954.50635
173,1.433,101.92433,-123.96586,976.48102,186.8804,-186.19386,961.88666,229.24896,-99.31606,954.26587
174,1.442,101.98637,-124.05259,976.8631,186.69406,-185.96832,961.92694,229.24896,-99.31606,954.26587
175,1.45,101.98637,-124.05259,976.8631,186.69406,-185.96832,961.92694,229.24896,-99.31606,954.26587
176,1.458,101.98637,-124.05259,976.8631,187.35071,-185.95828,961.78107,229.21931,-99.19122,954.13257
177,1.467,101.72001,-124.01178,976.58508,186.86574,-186.36121,961.79028,229.62381,-99.34277,953.86572
178,1.475,101.9594,-124.33874,976.6908,187.35071,-185.95828,961.78107,229.62381,-99.34277,953.86572
179,1.483,101.58308,-124.3137,976.59924,187.48251,-185.88936,961.62878,229.62381,-99.34277,953.86572
180,1.492,101.72001,-124.01178,976.58508,187.62328,-185.76701,961.02808,229.62381,-99.34277,953.86572
181,1.5,101.9594,-124.33874,976.6908,187.62328,-185.76701,961.02808,229.62381,-99.34277,953.86572
182,1.508,101.90601,-124.2374,976.55573,188.04601,-186.01518,960.6922,229.62381,-99.34277,953.86572
183,1.517,103.1461,-122.80299,975.65857,188.1525,-185.80411,959.79956,229.71994,-99.20692,953.6994
184,1.525,103.09562,-122.85855,975.76013,187.96306,-185.60547,959.8551,229.71994,-99.20692,953.6994
185,1.533,103.1461,-122.80299,975.65857,187.99995,-185.78088,959.65057,229.71994,-99.20692,953.6994
186,1.542,103.1461,-122.80299,975.65857,188.32869,-186.04214,959.45032,229.71994,-99.20692,953.6994
187,1.55,102.85953,-122.83569,975.69672,188.32869,-186.04214,959.45032,229.71994,-99.20692,953.6994
188,1.558,102.85953,-122.83569,975.69672,188.32869,-186.04214,959.45032,229.71994,-99.20692,953.6994
189,1.567,103.1461,-122.80299,975.65857,187.18906,-185.05054,959.54773,229.71994,-99.20692,953.6994
190,1.575,102.85953,-122.83569,975.69672,187.18906,-185.05054,959.54773,229.71994,-99.20692,953.6994
191,1.583,103.1461,-122.80299,975.65857,187.63177,-185.49161,959.36481,229.71994,-99.20692,953.6994
192,1.592,103.1461,-122.80299,975.65857,188.32869,-186.04214,959.45032,229.71994,-99.20692,953.6994
193,1.6,102.85953,-122.83569,975.69672,187.63177,-185.49161,959.36481,229.71994,-99.20692,953.6994
194,1.608,102.85953,-122.83569,975.69672,187.4254,-185.65172,959.2832,229.71994,-99.20692,953.6994
195,1.617,102.95274,-122.58613,975.68842,188.32869,-186.04214,959.45032,229.71994,-99.20692,953.6994
196,1.625,102.95274,-122.58613,975.68842,187.4254,-185.65172,959.2832,229.71994,-99.20692,953.6994
197,1.633,102.66615,-122.61882,975.72656,187.18906,-185.05054,959.54773,229.71994,-99.20692,953.6994
198,1.642,102.66615,-122.61882,975.72656,186.98308,-185.21126,959.46613,229.12274,-98.95599,953.88885
