Frame#,Time,R.Forearm.x,R.Forearm.y,R.Forearm.z,R.Ulna.x,R.Ulna.y,R.Ulna.z,R.Radius.x,R.Radius.y,R.Radius.z
1,0,-56.15411,-267.51913,892.88416,35.27396,-218.89276,803.61444,37.69684,-150.14461,911.16418
2,0.008,-56.43576,-267.31046,892.36072,35.02053,-218.77563,803.47864,37.69684,-150.14461,911.16418
3,0.017,-56.23304,-267.4306,892.19574,35.23652,-219.01814,803.18921,37.80122,-150.21371,910.66882
4,0.025,-56.23304,-267.4306,892.19574,35.23652,-219.01814,803.18921,37.7994,-149.8739,910.30231
5,0.033,-56.23304,-267.4306,892.19574,35.23652,-219.01814,803.18921,37.95949,-148.44789,908.86731
6,0.042,-56.03823,-266.90714,891.85095,35.37803,-219.38927,802.93176,38.11297,-148.45238,908.63055
7,0.05,-55.70127,-266.96515,890.7439,35.26833,-219.74577,802.82721,38.11297,-148.45238,908.63055
8,0.058,-55.70596,-267.35275,890.37811,35.29422,-219.53804,802.64502,38.30025,-148.21988,908.11035
9,0.067,-55.70596,-267.35275,890.37811,35.29422,-219.53804,802.64502,38.01803,-147.4948,907.56293
10,0.075,-55.70596,-267.35275,890.37811,35.29422,-219.53804,802.64502,38.01803,-147.4948,907.56293
11,0.083,-55.70596,-267.35275,890.37811,35.23277,-219.54279,802.4259,38.01803,-147.4948,907.56293
12,0.092,-55.70596,-267.35275,890.37811,35.15354,-219.47485,801.92242,38.41916,-147.50258,907.37402
13,0.1,-55.70596,-267.35275,890.37811,35.15354,-219.47485,801.92242,38.41916,-147.50258,907.37402
14,0.108,-56.07681,-267.22495,890.35626,34.63335,-219.91739,800.69031,38.41916,-147.50258,907.37402
15,0.117,-56.36217,-267.43903,889.9375,34.46371,-219.55147,800.61273,38.63528,-147.17064,906.97559
16,0.125,-56.36217,-267.43903,889.9375,34.44884,-219.79694,800.41663,38.63528,-147.17064,906.97559
17,0.133,-56.66549,-267.22333,889.76801,34.47453,-219.7404,800.41608,38.07666,-147.664,906.65833
18,0.142,-56.66549,-267.22333,889.76801,34.63485,-219.74367,800.19995,38.07666,-147.664,906.65833
19,0.15,-56.59509,-267.12057,889.3092,34.71212,-219.53354,799.7627,38.07666,-147.664,906.65833
20,0.158,-56.39228,-267.24094,889.14429,33.80983,-218.43925,799.73889,38.12485,-147.98991,906.01538
21,0.167,-56.25085,-267.18979,888.84393,33.80983,-218.43925,799.73889,38.12485,-147.98991,906.01538
22,0.175,-56.33275,-266.82901,888.42383,33.15834,-218.38333,799.36755,38.12485,-147.98991,906.01538
23,0.183,-56.33275,-266.82901,888.42383,33.15834,-218.38333,799.36755,37.61793,-148.27722,905.77594
24,0.192,-56.33275,-266.82901,888.42383,32.38736,-217.93997,799.23547,38.14784,-147.76242,906.01715
25,0.2,-56.33275,-266.82901,888.42383,32.50843,-217.64386,799.08655,38.14784,-147.76242,906.01715
26,0.208,-56.58148,-266.60031,888.21405,32.50843,-217.64386,799.08655,38.14784,-147.76242,906.01715
27,0.217,-56.58148,-266.60031,888.21405,32.76144,-217.55251,799.073,38.14784,-147.76242,906.01715
28,0.225,-56.58148,-266.60031,888.21405,32.6921,-217.5818,799.18787,38.14784,-147.76242,906.01715
29,0.233,-56.77427,-266.65298,887.93201,32.6921,-217.5818,799.18787,37.88094,-147.73676,905.65558
30,0.242,-56.77427,-266.65298,887.93201,33.01449,-217.46127,799.05951,37.88094,-147.73676,905.65558
31,0.25,-56.77427,-266.65298,887.93201,33.25907,-217.85999,799.01581,38.14784,-147.76242,906.01715
32,0.258,-56.77427,-266.65298,887.93201,33.53243,-217.996,799.2052,38.14784,-147.76242,906.01715
33,0.267,-56.58148,-266.60031,888.21405,33.8514,-218.0753,799.08624,38.14784,-147.76242,906.01715
34,0.275,-56.58148,-266.60031,888.21405,34.19059,-218.2354,799.28345,38.14784,-147.76242,906.01715
35,0.283,-56.33275,-266.82901,888.42383,34.19059,-218.2354,799.28345,38.14784,-147.76242,906.01715
36,0.292,-56.33275,-266.82901,888.42383,33.47443,-218.02008,799.30164,38.44302,-147.71719,906.05682
37,0.3,-56.33275,-266.82901,888.42383,33.86962,-218.14798,799.37079,38.53417,-147.59354,906.20337
38,0.308,-56.25085,-267.18979,888.84393,34.19059,-218.2354,799.28345,38.53417,-147.59354,906.20337
39,0.317,-56.25085,-267.18979,888.84393,34.19059,-218.2354,799.28345,38.53417,-147.59354,906.20337
40,0.325,-56.25085,-267.18979,888.84393,34.19059,-218.2354,799.28345,38.53417,-147.59354,906.20337
41,0.333,-56.39228,-267.24094,889.14429,34.19059,-218.2354,799.28345,38.42517,-147.4485,906.3869
42,0.342,-56.39228,-267.24094,889.14429,34.54329,-218.6815,799.72021,38.32306,-147.17029,906.56451
43,0.35,-56.4168,-267.0462,889.3418,34.61221,-218.59412,800.13269,38.07666,-147.664,906.65833
44,0.358,-56.4168,-267.0462,889.3418,34.33548,-218.80673,800.38788,38.32306,-147.17029,906.56451
45,0.367,-56.59727,-266.91672,889.51086,34.45518,-218.70276,800.35419,38.90874,-146.63945,906.82068
46,0.375,-56.4168,-267.0462,889.3418,34.29478,-218.6994,800.57037,38.90874,-146.63945,906.82068
47,0.383,-56.29397,-267.13242,889.68042,34.46371,-219.55147,800.61273,38.90874,-146.63945,906.82068
48,0.392,-56.29397,-267.13242,889.68042,34.33548,-218.80673,800.38788,38.90874,-146.63945,906.82068
49,0.4,-56.29397,-267.13242,889.68042,34.36252,-218.45621,800.65637,38.90874,-146.63945,906.82068
50,0.408,-56.29397,-267.13242,889.68042,34.33548,-218.80673,800.38788,38.90874,-146.63945,906.82068
51,0.417,-56.29397,-267.13242,889.68042,34.28008,-218.48792,800.90607,38.90874,-146.63945,906.82068
52,0.425,-56.29397,-267.13242,889.68042,34.36252,-218.45621,800.65637,38.90874,-146.63945,906.82068
53,0.433,-56.29397,-267.13242,889.68042,34.36252,-218.45621,800.65637,39.50604,-146.21907,906.24414
54,0.442,-56.29397,-267.13242,889.68042,34.5636,-218.27202,800.72839,38.68296,-147.00439,907.17834
55,0.45,-56.29397,-267.13242,889.68042,34.48115,-218.30373,800.97815,38.90874,-146.63945,906.82068
56,0.458,-56.18171,-267.56854,889.76849,34.67443,-219.55508,800.49164,38.68296,-147.00439,907.17834
57,0.467,-56.29397,-267.13242,889.68042,34.73252,-219.12411,800.77069,39.50604,-146.21907,906.24414
58,0.475,-56.1135,-267.26193,889.51141,34.84059,-219.28032,801.2782,39.10385,-146.58447,906.62756
59,0.483,-56.1135,-267.26193,889.51141,34.92303,-219.24863,801.02856,38.90874,-146.63945,906.82068
60,0.492,-56.1135,-267.26193,889.51141,34.92303,-219.24863,801.02856,38.90874,-146.63945,906.82068
61,0.5,-56.1135,-267.26193,889.51141,34.92303,-219.24863,801.02856,38.90874,-146.63945,906.82068
62,0.508,-56.1135,-267.26193,889.51141,34.67443,-219.55508,800.49164,38.90874,-146.63945,906.82068
63,0.517,-55.74258,-267.38974,889.53326,34.67561,-218.23372,800.53394,38.90874,-146.63945,906.82068
64,0.525,-56.1135,-267.26193,889.51141,34.84451,-219.0858,800.57629,38.90874,-146.63945,906.82068
65,0.533,-55.74258,-267.38974,889.53326,34.67561,-218.23372,800.53394,38.90874,-146.63945,906.82068
66,0.542,-56.1135,-267.26193,889.51141,34.56112,-218.56485,800.46295,38.90874,-146.63945,906.82068
67,0.55,-55.74258,-267.38974,889.53326,34.83605,-218.23701,800.31769,38.90874,-146.63945,906.82068
68,0.558,-56.1135,-267.26193,889.51141,34.73892,-218.55659,800.22174,38.90874,-146.63945,906.82068
69,0.567,-56.1135,-267.26193,889.51141,34.67561,-218.23372,800.53394,38.90874,-146.63945,906.82068
70,0.575,-56.1135,-267.26193,889.51141,34.67561,-218.23372,800.53394,38.90874,-146.63945,906.82068
71,0.583,-56.1135,-267.26193,889.51141,34.83605,-218.23701,800.31769,38.90874,-146.63945,906.82068
72,0.592,-56.1135,-267.26193,889.51141,34.67561,-218.23372,800.53394,38.90874,-146.63945,906.82068
73,0.6,-56.1135,-267.26193,889.51141,34.5636,-218.27202,800.72839,38.90874,-146.63945,906.82068
74,0.608,-56.1135,-267.26193,889.51141,34.56112,-218.56485,800.46295,38.90874,-146.63945,906.82068
75,0.617,-55.92305,-267.26025,889.70233,34.5636,-218.27202,800.72839,38.90874,-146.63945,906.82068
76,0.625,-56.1135,-267.26193,889.51141,34.5636,-218.27202,800.72839,38.90874,-146.63945,906.82068
77,0.633,-56.29397,-267.13242,889.68042,34.5636,-218.27202,800.72839,38.90874,-146.63945,906.82068
78,0.642,-56.29397,-267.13242,889.68042,34.5636,-218.27202,800.72839,38.90874,-146.63945,906.82068
79,0.65,-56.29397,-267.13242,889.68042,34.24461,-218.17096,800.7547,38.90874,-146.63945,906.82068
80,0.658,-56.29397,-267.13242,889.68042,34.24461,-218.17096,800.7547,38.90874,-146.63945,906.82068
81,0.667,-56.29397,-267.13242,889.68042,34.16216,-218.20265,801.00446,38.90874,-146.63945,906.82068
82,0.675,-56.36217,-267.43903,889.9375,34.48115,-218.30373,800.97815,38.28182,-146.9967,907.36731
83,0.683,-56.36217,-267.43903,889.9375,34.48115,-218.30373,800.97815,38.28182,-146.9967,907.36731
84,0.692,-56.07681,-267.22495,890.35626,34.64715,-218.7258,801.01154,38.28182,-146.9967,907.36731
85,0.7,-56.36217,-267.43903,889.9375,34.84059,-219.28032,801.2782,38.28182,-146.9967,907.36731
86,0.708,-56.36217,-267.43903,889.9375,34.84059,-219.28032,801.2782,38.28182,-146.9967,907.36731
87,0.717,-56.07681,-267.22495,890.35626,35.01315,-219.02794,801.41003,38.28182,-146.9967,907.36731
88,0.725,-56.36217,-267.43903,889.9375,35.01315,-219.02794,801.41003,38.28182,-146.9967,907.36731
89,0.733,-56.36217,-267.43903,889.9375,34.84059,-219.28032,801.2782,38.28182,-146.9967,907.36731
90,0.742,-56.07681,-267.22495,890.35626,35.01315,-219.02794,801.41003,38.28182,-146.9967,907.36731
91,0.75,-56.07681,-267.22495,890.35626,34.76039,-219.71591,801.0401,38.28182,-146.9967,907.36731
92,0.758,-56.07681,-267.22495,890.35626,34.76039,-219.71591,801.0401,38.28182,-146.9967,907.36731
93,0.767,-56.07681,-267.22495,890.35626,34.84059,-219.28032,801.2782,38.28182,-146.9967,907.36731
94,0.775,-56.07681,-267.22495,890.35626,34.84059,-219.28032,801.2782,38.28182,-146.9967,907.36731
95,0.783,-56.36217,-267.43903,889.9375,34.84059,-219.28032,801.2782,38.28182,-146.9967,907.36731
96,0.792,-56.36217,-267.43903,889.9375,34.92303,-219.24863,801.02856,38.28182,-146.9967,907.36731
97,0.8,-56.36217,-267.43903,889.9375,34.84059,-219.28032,801.2782,38.01803,-147.4948,907.56293
98,0.808,-56.36217,-267.43903,889.9375,34.84059,-219.28032,801.2782,38.01803,-147.4948,907.56293
99,0.817,-56.36217,-267.43903,889.9375,34.84059,-219.28032,801.2782,38.28182,-146.9967,907.36731
100,0.825,-56.36217,-267.43903,889.9375,34.63955,-219.46449,801.20618,38.01803,-147.4948,907.56293
101,0.833,-56.36217,-267.43903,889.9375,34.63955,-219.46449,801.20618,38.01803,-147.4948,907.56293
102,0.842,-56.36217,-267.43903,889.9375,34.44645,-219.54726,801.09711,37.56607,-147.70384,907.42511
103,0.85,-56.61531,-267.46274,890.07446,34.44645,-219.54726,801.09711,37.56607,-147.70384,907.42511
104,0.858,-56.61531,-267.46274,890.07446,34.44645,-219.54726,801.09711,37.46954,-147.6243,907.59589
105,0.867,-56.61531,-267.46274,890.07446,34.44645,-219.54726,801.09711,37.56607,-147.70384,907.42511
106,0.875,-56.61531,-267.46274,890.07446,33.707,-218.96384,801.06219,37.02969,-147.84341,907.43683
107,0.883,-56.61531,-267.46274,890.07446,33.707,-218.96384,801.06219,37.02969,-147.84341,907.43683
108,0.892,-56.61531,-267.46274,890.07446,33.72372,-219.07878,801.52747,37.02969,-147.84341,907.43683
109,0.9,-56.61531,-267.46274,890.07446,33.96811,-219.47723,801.48346,37.02969,-147.84341,907.43683
110,0.908,-56.85686,-267.26831,889.90851,33.707,-218.96384,801.06219,37.45539,-147.20303,906.62762
111,0.917,-56.85686,-267.26831,889.90851,33.96811,-219.47723,801.48346,37.02969,-147.84341,907.43683
112,0.925,-56.85686,-267.26831,889.90851,33.96811,-219.47723,801.48346,37.02969,-147.84341,907.43683
113,0.933,-56.85686,-267.26831,889.90851,34.44645,-219.54726,801.09711,37.02969,-147.84341,907.43683
114,0.942,-56.85686,-267.26831,889.90851,34.32112,-220.03748,800.68652,37.02969,-147.84341,907.43683
115,0.95,-56.61531,-267.46274,890.07446,34.44645,-219.54726,801.09711,37.02969,-147.84341,907.43683
116,0.958,-56.61531,-267.46274,890.07446,34.44645,-219.54726,801.09711,37.02969,-147.84341,907.43683
117,0.967,-56.61531,-267.46274,890.07446,33.96811,-219.47723,801.48346,37.02969,-147.84341,907.43683
118,0.975,-56.85686,-267.26831,889.90851,33.96811,-219.47723,801.48346,37.02969,-147.84341,907.43683
119,0.983,-56.85686,-267.26831,889.90851,34.44645,-219.54726,801.09711,37.02969,-147.84341,907.43683
120,0.992,-56.3299,-267.24863,890.49316,34.25821,-220.09322,800.98639,37.02969,-147.84341,907.43683
121,1,-56.36217,-267.43903,889.9375,34.53479,-219.95776,800.96509,37.02969,-147.84341,907.43683
122,1.008,-56.36217,-267.43903,889.9375,34.63955,-219.46449,801.20618,37.02969,-147.84341,907.43683
123,1.017,-56.07681,-267.22495,890.35626,34.63955,-219.46449,801.20618,37.56607,-147.70384,907.42511
124,1.025,-56.07681,-267.22495,890.35626,34.63955,-219.46449,801.20618,37.56607,-147.70384,907.42511
125,1.033,-56.36217,-267.43903,889.9375,34.53479,-219.95776,800.96509,37.56607,-147.70384,907.42511
126,1.042,-56.36217,-267.43903,889.9375,34.63955,-219.46449,801.20618,37.56607,-147.70384,907.42511
127,1.05,-56.07681,-267.22495,890.35626,34.63955,-219.46449,801.20618,37.56607,-147.70384,907.42511
128,1.058,-56.36217,-267.43903,889.9375,34.72198,-219.43282,800.95648,37.56607,-147.70384,907.42511
129,1.067,-56.36217,-267.43903,889.9375,34.63955,-219.46449,801.20618,37.02969,-147.84341,907.43683
130,1.075,-56.36217,-267.43903,889.9375,35.0223,-219.57405,801.12433,37.56607,-147.70384,907.42511
131,1.083,-56.66549,-267.22333,889.76801,34.44645,-219.54726,801.09711,37.02969,-147.84341,907.43683
132,1.092,-56.66549,-267.22333,889.76801,34.13023,-219.23907,800.97467,37.02969,-147.84341,907.43683
133,1.1,-56.85686,-267.26831,889.90851,33.87734,-219.33037,800.98816,37.53468,-148.13611,908.8454
134,1.108,-56.36217,-267.43903,889.9375,33.60416,-219.216,800.8916,37.02969,-147.84341,907.43683
135,1.117,-56.66549,-267.22333,889.76801,33.3597,-218.81743,800.93549,37.56607,-147.70384,907.42511
136,1.125,-56.66549,-267.22333,889.76801,33.3597,-218.81743,800.93549,37.02969,-147.84341,907.43683
137,1.133,-56.66549,-267.22333,889.76801,33.51005,-219.44058,800.81415,37.02969,-147.84341,907.43683
138,1.142,-56.36217,-267.43903,889.9375,33.63293,-218.93187,801.03204,37.02969,-147.84341,907.43683
139,1.15,-56.36217,-267.43903,889.9375,33.3597,-218.81743,800.93549,37.02969,-147.84341,907.43683
140,1.158,-56.36217,-267.43903,889.9375,33.87734,-219.33037,800.98816,37.02969,-147.84341,907.43683
141,1.167,-56.36217,-267.43903,889.9375,34.13023,-219.23907,800.97467,37.02969,-147.84341,907.43683
142,1.175,-56.36217,-267.43903,889.9375,34.65009,-219.15585,801.02045,37.56607,-147.70384,907.42511
143,1.183,-56.66549,-267.22333,889.76801,34.84059,-219.28032,801.2782,37.56607,-147.70384,907.42511
144,1.192,-56.66549,-267.22333,889.76801,34.84059,-219.28032,801.2782,37.56607,-147.70384,907.42511
145,1.2,-56.36217,-267.43903,889.9375,34.92303,-219.24863,801.02856,37.56607,-147.70384,907.42511
146,1.208,-56.36217,-267.43903,889.9375,34.84059,-219.28032,801.2782,37.56607,-147.70384,907.42511
147,1.217,-56.36217,-267.43903,889.9375,34.84059,-219.28032,801.2782,37.56607,-147.70384,907.42511
148,1.225,-56.36217,-267.43903,889.9375,34.72198,-219.43282,800.95648,38.28182,-146.9967,907.36731
149,1.233,-56.36217,-267.43903,889.9375,34.92303,-219.24863,801.02856,37.82986,-147.20589,907.22961
150,1.242,-56.36217,-267.43903,889.9375,34.63955,-219.46449,801.20618,38.28182,-146.9967,907.36731
151,1.25,-56.36217,-267.43903,889.9375,34.72198,-219.43282,800.95648,38.01803,-147.4948,907.56293
152,1.258,-56.36217,-267.43903,889.9375,34.65419,-219.67598,800.87048,37.97231,-147.68988,907.26886
153,1.267,-56.36217,-267.43903,889.9375,34.65419,-219.67598,800.87048,38.63528,-147.17064,906.97559
154,1.275,-56.36217,-267.43903,889.9375,34.65419,-219.67598,800.87048,38.63528,-147.17064,906.97559
155,1.283,-56.36217,-267.43903,889.9375,34.63335,-219.91739,800.69031,38.63528,-147.17064,906.97559
156,1.292,-56.36217,-267.43903,889.9375,34.46371,-219.55147,800.61273,38.23415,-147.16298,907.16461
157,1.3,-56.29397,-267.13242,889.68042,34.46371,-219.55147,800.61273,38.5076,-146.63187,907.00977
158,1.308,-56.29397,-267.13242,889.68042,34.46371,-219.55147,800.61273,38.23611,-147.19183,907.07324
159,1.317,-56.29397,-267.13242,889.68042,34.46371,-219.55147,800.61273,38.01803,-147.4948,907.56293
160,1.325,-56.66549,-267.22333,889.76801,34.46371,-219.55147,800.61273,37.78216,-147.3721,907.02679
161,1.333,-56.36217,-267.43903,889.9375,34.65419,-219.67598,800.87048,37.56607,-147.70384,907.42511
162,1.342,-56.29397,-267.13242,889.68042,34.72198,-219.43282,800.95648,37.56607,-147.70384,907.42511
163,1.35,-56.66549,-267.22333,889.76801,34.35028,-219.83736,800.69141,37.56607,-147.70384,907.42511
164,1.358,-56.66549,-267.22333,889.76801,34.63955,-219.46449,801.20618,37.56607,-147.70384,907.42511
165,1.367,-56.59727,-266.91672,889.51086,34.44645,-219.54726,801.09711,37.56607,-147.70384,907.42511
166,1.375,-56.59727,-266.91672,889.51086,34.63955,-219.46449,801.20618,37.02969,-147.84341,907.43683
167,1.383,-56.59727,-266.91672,889.51086,34.53479,-219.95776,800.96509,37.02969,-147.84341,907.43683
168,1.392,-56.66549,-267.22333,889.76801,34.53479,-219.95776,800.96509,37.02969,-147.84341,907.43683
169,1.4,-56.66549,-267.22333,889.76801,34.63955,-219.46449,801.20618,37.02969,-147.84341,907.43683
170,1.408,-56.66549,-267.22333,889.76801,34.53479,-219.95776,800.96509,37.02969,-147.84341,907.43683
171,1.417,-56.66549,-267.22333,889.76801,34.53479,-219.95776,800.96509,37.02969,-147.84341,907.43683
172,1.425,-56.66549,-267.22333,889.76801,34.63955,-219.46449,801.20618,37.02969,-147.84341,907.43683
173,1.433,-56.66549,-267.22333,889.76801,34.63955,-219.46449,801.20618,37.02969,-147.84341,907.43683
174,1.442,-56.66549,-267.22333,889.76801,34.72198,-219.43282,800.95648,37.02969,-147.84341,907.43683
175,1.45,-56.66549,-267.22333,889.76801,34.63955,-219.46449,801.20618,37.45539,-147.20303,906.62762
176,1.458,-56.66549,-267.22333,889.76801,34.63955,-219.46449,801.20618,37.02969,-147.84341,907.43683
177,1.467,-56.66549,-267.22333,889.76801,34.63955,-219.46449,801.20618,37.02969,-147.84341,907.43683
178,1.475,-56.66549,-267.22333,889.76801,34.63955,-219.46449,801.20618,37.45539,-147.20303,906.62762
179,1.483,-56.66549,-267.22333,889.76801,34.63955,-219.46449,801.20618,37.02969,-147.84341,907.43683
180,1.492,-56.66549,-267.22333,889.76801,34.53479,-219.95776,800.96509,37.02969,-147.84341,907.43683
181,1.5,-56.66549,-267.22333,889.76801,34.63955,-219.46449,801.20618,37.02969,-147.84341,907.43683
182,1.508,-56.66549,-267.22333,889.76801,34.63955,-219.46449,801.20618,37.02969,-147.84341,907.43683
183,1.517,-56.66549,-267.22333,889.76801,34.63955,-219.46449,801.20618,37.02969,-147.84341,907.43683
184,1.525,-56.66549,-267.22333,889.76801,34.57177,-219.70766,801.12018,37.02969,-147.84341,907.43683
185,1.533,-56.66549,-267.22333,889.76801,34.63335,-219.91739,800.69031,37.02969,-147.84341,907.43683
186,1.542,-56.66549,-267.22333,889.76801,34.65419,-219.67598,800.87048,37.45539,-147.20303,906.62762
187,1.55,-56.66549,-267.22333,889.76801,34.35028,-219.83736,800.69141,37.56607,-147.70384,907.42511
188,1.558,-56.66549,-267.22333,889.76801,34.35028,-219.83736,800.69141,37.02969,-147.84341,907.43683
189,1.567,-56.66549,-267.22333,889.76801,34.46371,-219.55147,800.61273,37.02969,-147.84341,907.43683
190,1.575,-56.66549,-267.22333,889.76801,34.46371,-219.55147,800.61273,37.56607,-147.70384,907.42511
191,1.583,-56.66549,-267.22333,889.76801,34.38129,-219.58319,800.86243,37.02969,-147.84341,907.43683
192,1.592,-56.36217,-267.43903,889.9375,34.38129,-219.58319,800.86243,37.56607,-147.70384,907.42511
193,1.6,-56.66549,-267.22333,889.76801,34.38129,-219.58319,800.86243,37.56607,-147.70384,907.42511
194,1.608,-56.66549,-267.22333,889.76801,34.0625,-219.48227,800.88873,37.56607,-147.70384,907.42511
195,1.617,-56.85686,-267.26831,889.90851,34.13023,-219.23907,800.97467,37.56607,-147.70384,907.42511
196,1.625,-56.85686,-267.26831,889.90851,34.13023,-219.23907,800.97467,37.02969,-147.84341,907.43683
197,1.633,-56.85686,-267.26831,889.90851,35.0223,-219.57405,801.12433,37.02969,-147.84341,907.43683
198,1.642,-56.66549,-267.22333,889.76801,34.44905,-219.34003,800.94843,37.02969,-147.84341,907.43683
199,1.65,-56.66549,-267.22333,889.76801,34.53479,-219.95776,800.96509,37.02969,-147.84341,907.43683
200,1.658,-56.85686,-267.26831,889.90851,34.63955,-219.46449,801.20618,37.02969,-147.84341,907.43683
