Frame#,Time,R.Forearm.x,R.Forearm.y,R.Forearm.z,R.Ulna.x,R.Ulna.y,R.Ulna.z,R.Radius.x,R.Radius.y,R.Radius.z
1,0,63.89933,-174.85233,934.79816,148.63225,-206.18004,902.21021,198.68481,-133.38631,912.60883
2,0.008,64.30123,-174.71423,934.8183,149.30785,-206.79594,902.27826,198.68481,-133.38631,912.60883
3,0.017,64.10905,-174.64845,934.94049,148.74542,-206.33946,902.19342,198.68481,-133.38631,912.60883
4,0.025,64.10905,-174.64845,934.94049,148.63225,-206.18004,902.21021,198.68481,-133.38631,912.60883
5,0.033,64.10905,-174.64845,934.94049,148.74542,-206.33946,902.19342,198.68481,-133.38631,912.60883
6,0.042,64.09151,-174.91811,934.67603,149.30785,-206.79594,902.27826,198.68481,-133.38631,912.60883
7,0.05,64.09151,-174.91811,934.67603,149.26039,-206.96684,902.12915,198.68481,-133.38631,912.60883
8,0.058,63.98903,-175.02376,934.50818,148.60783,-206.84273,901.89532,198.68481,-133.38631,912.60883
9,0.067,63.72578,-174.87865,934.88922,148.60783,-206.84273,901.89532,198.68481,-133.38631,912.60883
10,0.075,63.79685,-174.95798,934.63037,149.14043,-207.46829,901.82574,198.68481,-133.38631,912.60883
11,0.083,63.98903,-175.02376,934.50818,149.05981,-207.31947,901.86401,199.00357,-136.6633,913.20953
12,0.092,63.79685,-174.95798,934.63037,148.49745,-206.86322,901.77911,198.71004,-137.17134,913.19598
13,0.1,63.62329,-174.98428,934.72144,148.25644,-207.14999,901.67542,198.81439,-136.86909,913.03229
14,0.108,63.62329,-174.98428,934.72144,148.33704,-207.29887,901.63708,198.71004,-137.17134,913.19598
15,0.117,63.38015,-175.11368,934.63794,148.10289,-207.59622,901.73401,198.71004,-137.17134,913.19598
16,0.125,63.38015,-175.11368,934.63794,148.10289,-207.59622,901.73401,198.6216,-137.49506,913.07574
17,0.133,63.38015,-175.11368,934.63794,148.10289,-207.59622,901.73401,198.43655,-137.66847,913.24945
18,0.142,63.27761,-175.41232,934.55908,147.91458,-207.78136,901.62891,198.70313,-137.90738,913.12732
19,0.15,63.27761,-175.41232,934.55908,147.91458,-207.78136,901.62891,198.06583,-137.69046,913.27856
20,0.158,63.1291,-175.45514,934.66602,147.592,-208.20081,901.58649,198.5181,-138.08075,913.30103
21,0.167,63.50708,-175.78378,934.68585,147.592,-208.20081,901.58649,198.5181,-138.08075,913.30103
22,0.175,63.27761,-175.41232,934.55908,147.71089,-208.43127,901.62726,198.33621,-138.2235,913.10144
23,0.183,63.1291,-175.45514,934.66602,148.23509,-208.2052,901.54791,198.70688,-138.20152,913.07239
24,0.192,63.42328,-175.44438,934.68329,147.91257,-208.62463,901.50543,198.5181,-138.08075,913.30103
25,0.2,63.42328,-175.44438,934.68329,148.27313,-208.88696,901.71216,198.70688,-138.20152,913.07239
26,0.208,63.42328,-175.44438,934.68329,148.79738,-208.66101,901.63281,197.88661,-135.76117,912.13507
27,0.217,63.42328,-175.44438,934.68329,148.47481,-209.08028,901.59033,197.88661,-135.76117,912.13507
28,0.225,63.7089,-175.81712,934.71613,147.91257,-208.62463,901.50543,197.88661,-135.76117,912.13507
29,0.233,63.7089,-175.81712,934.71613,148.47481,-209.08028,901.59033,197.88661,-135.76117,912.13507
30,0.242,63.8203,-176.07738,934.87335,148.47481,-209.08028,901.59033,197.88661,-135.76117,912.13507
31,0.25,63.7089,-175.81712,934.71613,148.47481,-209.08028,901.59033,197.89633,-135.96739,912.38611
32,0.258,63.92965,-176.27127,935.09351,148.47481,-209.08028,901.59033,197.89633,-135.96739,912.38611
33,0.267,63.92965,-176.27127,935.09351,148.47481,-209.08028,901.59033,197.89633,-135.96739,912.38611
34,0.275,63.67177,-176.12019,934.98029,148.47481,-209.08028,901.59033,197.6834,-136.42235,912.53699
35,0.283,63.67177,-176.12019,934.98029,148.47481,-209.08028,901.59033,197.6834,-136.42235,912.53699
36,0.292,63.67177,-176.12019,934.98029,148.47481,-209.08028,901.59033,197.50378,-136.25626,912.79425
37,0.3,63.67177,-176.12019,934.98029,147.91257,-208.62463,901.50543,197.6834,-136.42235,912.53699
38,0.308,63.56038,-175.85994,934.82306,147.91257,-208.62463,901.50543,197.50378,-136.25626,912.79425
39,0.317,63.38614,-175.74742,934.94739,147.91257,-208.62463,901.50543,197.12231,-136.28281,912.80237
40,0.325,62.94827,-175.53503,934.81921,147.91257,-208.62463,901.50543,197.12231,-136.28281,912.80237
41,0.333,62.94827,-175.53503,934.81921,147.91257,-208.62463,901.50543,197.12231,-136.28281,912.80237
42,0.342,62.94827,-175.53503,934.81921,147.71089,-208.43127,901.62726,197.12231,-136.28281,912.80237
43,0.35,62.8026,-175.50296,934.69507,147.71089,-208.43127,901.62726,197.12231,-136.28281,912.80237
44,0.358,62.8026,-175.50296,934.69507,147.71089,-208.43127,901.62726,197.12231,-136.28281,912.80237
45,0.367,62.8026,-175.50296,934.69507,147.71089,-208.43127,901.62726,197.97276,-138.55621,913.83801
46,0.375,62.8026,-175.50296,934.69507,147.71089,-208.43127,901.62726,198.1275,-138.24585,913.54102
47,0.383,63.27476,-175.4872,934.79022,147.71089,-208.43127,901.62726,198.1275,-138.24585,913.54102
48,0.392,63.27476,-175.4872,934.79022,147.71089,-208.43127,901.62726,198.1474,-138.10271,913.33014
49,0.4,63.27476,-175.4872,934.79022,147.71089,-208.43127,901.62726,198.1474,-138.10271,913.33014
50,0.408,63.27476,-175.4872,934.79022,148.22174,-207.82669,901.77478,198.1474,-138.10271,913.33014
51,0.417,63.27476,-175.4872,934.79022,148.22174,-207.82669,901.77478,198.43655,-137.66847,913.24945
52,0.425,63.27476,-175.4872,934.79022,148.10289,-207.59622,901.73401,198.43655,-137.66847,913.24945
53,0.433,63.27476,-175.4872,934.79022,148.22174,-207.82669,901.77478,198.43655,-137.66847,913.24945
54,0.442,63.42328,-175.44438,934.68329,148.22174,-207.82669,901.77478,198.5181,-138.08075,913.30103
55,0.45,63.42328,-175.44438,934.68329,148.10289,-207.59622,901.73401,198.41661,-137.8116,913.46033
56,0.458,63.42328,-175.44438,934.68329,148.10289,-207.59622,901.73401,198.43655,-137.66847,913.24945
57,0.467,63.42328,-175.44438,934.68329,148.10289,-207.59622,901.73401,198.43655,-137.66847,913.24945
58,0.475,63.42328,-175.44438,934.68329,148.10289,-207.59622,901.73401,198.41661,-137.8116,913.46033
59,0.483,63.38015,-175.11368,934.63794,148.10289,-207.59622,901.73401,198.43655,-137.66847,913.24945
60,0.492,63.38015,-175.11368,934.63794,148.10289,-207.59622,901.73401,198.43655,-137.66847,913.24945
61,0.5,63.38015,-175.11368,934.63794,148.10289,-207.59622,901.73401,198.43655,-137.66847,913.24945
62,0.508,63.23448,-175.08162,934.51373,148.10289,-207.59622,901.73401,198.43655,-137.66847,913.24945
63,0.517,63.38015,-175.11368,934.63794,148.10289,-207.59622,901.73401,198.43655,-137.66847,913.24945
64,0.525,63.23448,-175.08162,934.51373,147.90913,-207.28807,901.78906,198.43655,-137.66847,913.24945
65,0.533,63.23448,-175.08162,934.51373,147.99272,-207.43779,901.75269,198.43655,-137.66847,913.24945
66,0.542,63.23448,-175.08162,934.51373,147.834,-207.63252,901.66724,198.43655,-137.66847,913.24945
67,0.55,63.23448,-175.08162,934.51373,147.91458,-207.78136,901.62891,198.25087,-137.51709,913.10486
68,0.558,63.23448,-175.08162,934.51373,148.09239,-207.28467,901.48151,198.35518,-137.21484,912.94116
69,0.567,63.23448,-175.08162,934.51373,148.05205,-207.89012,901.52325,198.01563,-137.11311,912.93835
70,0.575,63.12213,-175.06712,934.24445,147.91458,-207.78136,901.62891,198.35518,-137.21484,912.94116
71,0.583,63.18857,-174.76154,933.99072,147.72083,-207.47327,901.68402,198.01563,-137.11311,912.93835
72,0.592,63.18857,-174.76154,933.99072,147.94186,-207.73172,901.54193,198.01563,-137.11311,912.93835
73,0.6,63.26727,-174.86859,934.11835,148.05205,-207.89012,901.52325,198.38643,-137.09105,912.90924
74,0.608,63.47656,-174.43909,933.75812,147.97145,-207.74129,901.56158,198.72595,-137.19279,912.91205
75,0.617,63.20081,-175.17418,934.37207,148.05205,-207.89012,901.52325,198.91469,-137.31352,912.68335
76,0.625,63.23448,-175.08162,934.51373,148.20056,-207.93094,901.42242,198.91469,-137.31352,912.68335
77,0.633,63.51297,-174.77599,934.14514,148.61435,-208.34599,901.60815,198.91469,-137.31352,912.68335
78,0.642,63.65462,-175.11314,934.29565,148.20056,-207.93094,901.42242,198.91469,-137.31352,912.68335
79,0.65,63.8003,-175.1452,934.41986,148.80266,-208.1609,901.7132,198.91469,-137.31352,912.68335
80,0.658,63.62672,-175.17151,934.51093,148.47447,-207.40764,901.53143,198.91469,-137.31352,912.68335
81,0.667,63.8003,-175.1452,934.41986,148.80266,-208.1609,901.7132,198.81032,-137.6158,912.84711
82,0.675,63.81547,-175.05006,934.5993,148.98567,-208.47591,901.73779,198.6216,-137.49506,913.07574
83,0.683,63.42328,-175.44438,934.68329,149.12923,-208.54488,901.61121,198.81032,-137.6158,912.84711
84,0.692,63.42328,-175.44438,934.68329,148.98567,-208.47591,901.73779,198.70313,-137.90738,913.12732
85,0.7,63.42328,-175.44438,934.68329,148.98567,-208.47591,901.73779,198.70313,-137.90738,913.12732
86,0.708,63.42328,-175.44438,934.68329,148.98567,-208.47591,901.73779,198.43655,-137.66847,913.24945
87,0.717,63.42328,-175.44438,934.68329,148.98567,-208.47591,901.73779,198.6832,-138.05052,913.33826
88,0.725,63.42328,-175.44438,934.68329,148.23509,-208.2052,901.54791,198.5181,-138.08075,913.30103
89,0.733,63.38015,-175.11368,934.63794,148.23509,-208.2052,901.54791,198.5181,-138.08075,913.30103
90,0.742,63.27761,-175.41232,934.55908,148.05205,-207.89012,901.52325,198.5181,-138.08075,913.30103
91,0.75,63.38015,-175.11368,934.63794,148.66522,-208.05219,901.81891,198.5181,-138.08075,913.30103
92,0.758,63.23448,-175.08162,934.51373,148.24034,-207.70497,901.6283,198.70313,-137.90738,913.12732
93,0.767,63.38015,-175.11368,934.63794,148.24034,-207.70497,901.6283,198.6216,-137.49506,913.07574
94,0.775,63.62329,-174.98428,934.72144,148.24034,-207.70497,901.6283,198.91469,-137.31352,912.68335
95,0.783,63.38015,-175.11368,934.63794,148.80266,-208.1609,901.7132,198.91469,-137.31352,912.68335
96,0.792,63.62329,-174.98428,934.72144,148.80266,-208.1609,901.7132,198.91469,-137.31352,912.68335
97,0.8,63.81547,-175.05006,934.5993,149.03683,-207.86366,901.61633,198.91469,-137.31352,912.68335
98,0.808,63.79685,-174.95798,934.63037,149.03683,-207.86366,901.61633,198.91469,-137.31352,912.68335
99,0.817,63.98903,-175.02376,934.50818,149.03683,-207.86366,901.61633,198.91469,-137.31352,912.68335
100,0.825,64.0201,-174.64937,934.26404,149.21982,-208.17868,901.64099,198.91469,-137.31352,912.68335
101,0.833,63.98903,-175.02376,934.50818,149.36337,-208.24763,901.51434,199.00313,-136.98982,912.80365
102,0.842,63.81547,-175.05006,934.5993,149.21982,-208.17868,901.64099,199.00313,-136.98982,912.80365
103,0.85,64.0201,-174.64937,934.26404,149.21982,-208.17868,901.64099,199.00313,-136.98982,912.80365
104,0.858,63.98903,-175.02376,934.50818,149.21982,-208.17868,901.64099,199.54074,-136.83508,912.82367
105,0.867,63.98903,-175.02376,934.50818,149.4608,-207.89204,901.74469,199.26855,-136.82817,912.92688
106,0.875,63.98903,-175.02376,934.50818,149.4608,-207.89204,901.74469,199.26855,-136.82817,912.92688
107,0.883,63.98903,-175.02376,934.50818,149.27783,-207.57703,901.72003,199.46864,-136.62881,913.09656
108,0.892,63.98903,-175.02376,934.50818,149.4608,-207.89204,901.74469,199.26855,-136.82817,912.92688
109,0.9,63.98903,-175.02376,934.50818,149.27783,-207.57703,901.72003,199.26855,-136.82817,912.92688
110,0.908,63.98903,-175.02376,934.50818,149.4608,-207.89204,901.74469,199.26855,-136.82817,912.92688
111,0.917,64.0201,-174.64937,934.26404,148.47447,-207.40764,901.53143,199.00313,-136.98982,912.80365
112,0.925,63.98903,-175.02376,934.50818,148.47447,-207.40764,901.53143,199.00313,-136.98982,912.80365
113,0.933,63.98903,-175.02376,934.50818,148.47447,-207.40764,901.53143,199.00313,-136.98982,912.80365
114,0.942,63.98903,-175.02376,934.50818,149.03683,-207.86366,901.61633,199.27534,-136.99675,912.70044
115,0.95,63.98903,-175.02376,934.50818,149.27783,-207.57703,901.72003,199.00313,-136.98982,912.80365
116,0.958,64.0201,-174.64937,934.26404,149.03683,-207.86366,901.61633,199.00313,-136.98982,912.80365
117,0.967,63.98903,-175.02376,934.50818,148.47447,-207.40764,901.53143,199.00313,-136.98982,912.80365
118,0.975,64.0201,-174.64937,934.26404,149.03683,-207.86366,901.61633,199.00313,-136.98982,912.80365
119,0.983,63.98903,-175.02376,934.50818,149.1804,-207.93265,901.48975,199.00313,-136.98982,912.80365
120,0.992,63.98903,-175.02376,934.50818,149.1804,-207.93265,901.48975,199.00313,-136.98982,912.80365
121,1,64.0201,-174.64937,934.26404,149.1804,-207.93265,901.48975,199.27534,-136.99675,912.70044
122,1.008,64.0201,-174.64937,934.26404,149.36337,-208.24763,901.51434,198.91469,-137.31352,912.68335
123,1.017,64.0201,-174.64937,934.26404,149.59938,-208.0356,901.25085,199.18694,-137.32043,912.58014
124,1.025,64.12203,-174.67978,934.35211,149.8541,-208.08504,900.99573,199.18694,-137.32043,912.58014
125,1.033,64.51566,-175.32364,934.21667,149.61807,-208.29707,901.25928,199.18694,-137.32043,912.58014
126,1.042,64.52371,-175.20755,934.39459,150.241,-208.31279,901.27338,199.18694,-137.32043,912.58014
127,1.05,64.51403,-174.95413,933.92212,150.241,-208.31279,901.27338,199.18694,-137.32043,912.58014
128,1.058,64.7178,-175.13602,933.5058,150.56798,-207.88722,900.85272,199.18694,-137.32043,912.58014
129,1.067,64.91525,-175.29752,933.3714,150.241,-208.31279,901.27338,198.80307,-135.70815,911.45209
130,1.075,64.91525,-175.29752,933.3714,150.56798,-207.88722,900.85272,198.80307,-135.70815,911.45209
131,1.083,64.90292,-175.46768,933.23065,150.44701,-207.72145,900.74872,198.80307,-135.70815,911.45209
132,1.092,64.93483,-175.47122,932.97693,150.87798,-207.48619,900.60632,199.94389,-138.29549,912.27472
133,1.1,64.93483,-175.47122,932.97693,150.64131,-207.65141,900.54059,200.02457,-138.42087,912.02979
134,1.108,64.69225,-175.5213,932.7218,150.36284,-207.75916,900.54858,199.73413,-138.29225,912.19672
135,1.117,64.79303,-176.22949,932.16473,150.22705,-207.72896,900.44843,199.06982,-135.84476,910.76465
136,1.125,64.37042,-176.33905,931.6076,150.22705,-207.72896,900.44843,199.30072,-136.08704,910.54083
137,1.133,63.958,-175.90106,931.50281,150.39052,-207.464,900.32593,199.25401,-135.80898,910.22028
138,1.142,63.958,-175.90106,931.50281,150.29333,-207.68733,900.23932,199.25401,-135.80898,910.22028
139,1.15,63.958,-175.90106,931.50281,150.29333,-207.68733,900.23932,199.25401,-135.80898,910.22028
140,1.158,63.958,-175.90106,931.50281,150.13594,-207.62299,900.14532,199.25401,-135.80898,910.22028
141,1.167,63.958,-175.90106,931.50281,149.89514,-207.90944,900.04163,199.25401,-135.80898,910.22028
142,1.175,63.82234,-175.93848,931.16748,149.8914,-208.02734,899.9502,199.06348,-135.19327,909.54425
143,1.183,63.82234,-175.93848,931.16748,149.90163,-208.12463,899.80664,199.06348,-135.19327,909.54425
144,1.192,63.62776,-175.84766,931.09869,149.86909,-207.73952,899.69446,198.81767,-135.04959,909.47162
145,1.2,63.62776,-175.84766,931.09869,149.90163,-208.12463,899.80664,198.81767,-135.04959,909.47162
146,1.208,63.58747,-175.73215,930.94714,149.86536,-207.85741,899.60303,198.81767,-135.04959,909.47162
147,1.217,63.5691,-175.89146,930.77362,149.86536,-207.85741,899.60303,198.81767,-135.04959,909.47162
148,1.225,63.5691,-175.89146,930.77362,149.86536,-207.85741,899.60303,198.81767,-135.04959,909.47162
149,1.233,63.5691,-175.89146,930.77362,149.72261,-207.6458,899.20984,198.81767,-135.04959,909.47162
150,1.242,63.60627,-175.78493,930.61096,149.65541,-207.53603,898.90662,198.82883,-135.3934,909.17926
151,1.25,63.60627,-175.78493,930.61096,149.5049,-207.32718,898.54565,198.97162,-135.30907,909.0144
152,1.258,63.60627,-175.78493,930.61096,149.5049,-207.32718,898.54565,198.82883,-135.3934,909.17926
153,1.267,63.76473,-175.85219,930.43512,149.30045,-207.6769,898.51617,198.82883,-135.3934,909.17926
154,1.275,63.76473,-175.85219,930.43512,149.14809,-206.9951,898.32251,198.98279,-135.65305,908.72211
155,1.283,63.76473,-175.85219,930.43512,148.68451,-207.57243,898.09247,198.82489,-135.41925,908.50092
156,1.292,63.76473,-175.85219,930.43512,148.68451,-207.57243,898.09247,198.82489,-135.41925,908.50092
157,1.3,63.76473,-175.85219,930.43512,148.68451,-207.57243,898.09247,198.82489,-135.41925,908.50092
158,1.308,63.6941,-175.742,929.87518,148.65996,-207.70059,897.80969,198.74908,-135.70108,908.41321
159,1.317,63.6941,-175.742,929.87518,148.63011,-207.87016,897.65521,198.89058,-135.59007,908.216
160,1.325,63.6941,-175.742,929.87518,148.63011,-207.87016,897.65521,198.59999,-135.80185,908.05988
161,1.333,63.67586,-175.89432,929.7417,148.21855,-208.16319,897.23083,198.39673,-136.08435,907.83704
162,1.342,63.67586,-175.89432,929.7417,148.21855,-208.16319,897.23083,198.06641,-135.93193,907.78955
163,1.35,63.67586,-175.89432,929.7417,148.14125,-208.18483,897.00446,198.06641,-135.93193,907.78955
164,1.358,63.50595,-176.17622,929.56653,148.27826,-208.06392,896.34271,197.77682,-135.99532,907.51031
165,1.367,63.50595,-176.17622,929.56653,147.858,-208.12724,895.96582,197.3952,-136.02217,907.51837
166,1.375,63.34947,-176.05128,929.43774,147.78722,-208.16953,895.8703,197.3952,-136.02217,907.51837
167,1.383,63.57085,-175.97839,929.08954,147.93085,-208.23871,895.74365,198.0437,-139.07323,908.10583
168,1.392,63.57085,-175.97839,929.08954,147.74767,-208.65288,895.64288,198.44122,-138.62352,907.72119
169,1.4,63.57085,-175.97839,929.08954,147.74353,-208.51366,895.57294,198.82622,-139.05682,907.53094
170,1.408,63.81743,-176.03627,928.96252,147.74263,-208.76004,895.5556,198.96355,-139.58514,907.49316
171,1.417,63.81743,-176.03627,928.96252,147.74353,-208.51366,895.57294,198.96355,-139.58514,907.49316
172,1.425,63.81743,-176.03627,928.96252,147.74353,-208.51366,895.57294,198.96355,-139.58514,907.49316
173,1.433,63.69355,-176.02272,928.84143,147.74263,-208.76004,895.5556,198.98248,-139.97745,907.43195
174,1.442,63.91544,-176.19136,928.89514,147.82631,-208.47644,895.4101,198.01494,-137.23412,905.94312
175,1.45,63.71143,-176.39751,928.6189,147.82631,-208.47644,895.4101,198.01494,-137.23412,905.94312
176,1.458,63.91544,-176.19136,928.89514,147.50401,-208.89557,895.36768,198.22818,-136.78017,905.7923
177,1.467,63.71143,-176.39751,928.6189,147.90985,-208.6263,895.37384,198.01494,-137.23412,905.94312
178,1.475,63.71143,-176.39751,928.6189,148.53026,-209.17279,895.3963,198.01494,-137.23412,905.94312
179,1.483,63.71143,-176.39751,928.6189,148.50093,-208.70515,895.19086,198.44878,-137.03279,905.56024
180,1.492,63.50208,-176.60129,928.47638,148.58449,-208.85492,895.15454,198.75168,-137.20316,905.3916
181,1.5,63.71143,-176.39751,928.6189,148.58449,-208.85492,895.15454,198.75168,-137.20316,905.3916
182,1.508,63.85117,-176.95921,928.0282,148.26216,-209.27382,895.11206,198.74184,-136.99643,905.1402
183,1.517,63.90702,-176.65111,928.28632,148.26216,-209.27382,895.11206,198.74184,-136.99643,905.1402
184,1.525,63.69766,-176.85483,928.1438,148.26216,-209.27382,895.11206,198.74184,-136.99643,905.1402
185,1.533,63.69766,-176.85483,928.1438,148.26216,-209.27382,895.11206,198.90616,-136.75107,904.94476
186,1.542,63.85618,-176.922,927.96783,148.16501,-209.25082,895.04163,198.74184,-136.99643,905.1402
187,1.55,63.85618,-176.922,927.96783,148.16501,-209.25082,895.04163,198.74184,-136.99643,905.1402
188,1.558,63.69766,-176.85483,928.1438,148.16501,-209.25082,895.04163,199.61668,-140.6674,906.1463
189,1.567,63.69766,-176.85483,928.1438,148.16501,-209.25082,895.04163,199.399,-140.91347,906.3526
190,1.575,63.71038,-176.89011,927.84351,148.16501,-209.25082,895.04163,199.53136,-140.92126,905.99408
191,1.583,63.68916,-177.07188,927.84259,147.99535,-209.1882,894.93555,199.55489,-140.65819,906.27661
192,1.592,63.71038,-176.89011,927.84351,147.99535,-209.1882,894.93555,199.3372,-140.90424,906.48285
193,1.6,63.69766,-176.85483,928.1438,147.99535,-209.1882,894.93555,199.23126,-140.57144,906.44452
194,1.608,63.38483,-176.97281,927.89423,147.99535,-209.1882,894.93555,199.55489,-140.65819,906.27661
195,1.617,63.55185,-176.82294,928.01947,147.99535,-209.1882,894.93555,199.09889,-140.56357,906.80292
196,1.625,63.85618,-176.922,927.96783,147.99535,-209.1882,894.93555,199.09889,-140.56357,906.80292
197,1.633,63.69766,-176.85483,928.1438,147.43338,-208.73297,894.85016,199.01357,-140.81746,906.65076
198,1.642,63.55185,-176.82294,928.01947,147.44817,-208.84804,894.97839,199.09889,-140.56357,906.80292
