Frame#,Time,R.Forearm.x,R.Forearm.y,R.Forearm.z,R.Ulna.x,R.Ulna.y,R.Ulna.z,R.Radius.x,R.Radius.y,R.Radius.z
1,0,553.27435,-129.56415,1289.25171,629.43225,-169.73221,1256.64001,683.1438,-89.77895,1248.1665
2,0.008,553.07544,-129.43274,1289.62085,629.80798,-169.28387,1257.07288,683.0564,-89.07787,1248.87695
3,0.017,553.02924,-129.40254,1290.15381,629.9931,-168.6665,1257.46362,683.30975,-87.80019,1249.96899
4,0.025,552.79736,-128.75238,1290.16455,629.47137,-167.79143,1258.19702,682.86536,-87.47804,1250.39783
5,0.033,552.46814,-128.39401,1290.22449,628.87494,-167.73999,1258.40942,682.54388,-87.21424,1251.23254
6,0.042,552.33447,-128.69229,1290.91748,628.78937,-167.88889,1258.5835,681.94775,-87.09422,1251.79358
7,0.05,552.27295,-127.39435,1291.98462,628.8866,-168.00104,1258.63269,681.96979,-86.52581,1252.02405
8,0.058,552.1922,-127.3945,1292.13721,628.16473,-166.99268,1259.05823,682.16901,-85.9156,1252.36609
9,0.067,552.4455,-127.32873,1292.52539,627.60944,-166.38571,1259.75122,682.16901,-85.9156,1252.36609
10,0.075,552.40045,-127.41071,1293.01147,628.0365,-166.71176,1260.3396,682.10864,-85.70319,1253.4054
11,0.083,552.21552,-127.33921,1294.4325,628.39001,-166.50267,1260.52417,681.98883,-84.27898,1255.69958
12,0.092,552.04114,-126.93163,1293.84485,628.56964,-166.35916,1260.73792,681.98883,-84.27898,1255.69958
13,0.1,551.44714,-126.44267,1294.26416,628.86981,-166.29915,1260.80334,682.18683,-84.39143,1255.82263
14,0.108,551.28564,-126.41787,1294.97253,628.73743,-166.63586,1261.58777,682.18683,-84.39143,1255.82263
15,0.117,551.01074,-126.64513,1295.30261,628.87585,-166.54945,1262.02844,682.18683,-84.39143,1255.82263
16,0.125,551.10901,-126.9366,1295.43494,628.71179,-165.88948,1262.58789,682.01569,-85.14846,1256.35669
17,0.133,551.16101,-127.1937,1295.67676,628.71179,-165.88948,1262.58789,681.78442,-84.14981,1256.84863
18,0.142,551.07935,-127.25063,1295.80322,628.71179,-165.88948,1262.58789,681.7099,-84.25747,1256.99109
19,0.15,551.07935,-127.25063,1295.80322,629.00653,-165.87648,1263.02161,682.02032,-84.5928,1257.42664
20,0.158,551.74792,-127.63769,1295.31189,629.16895,-165.69914,1263.30896,682.02032,-84.5928,1257.42664
21,0.167,550.85699,-127.6507,1295.36047,629.16895,-165.69914,1263.30896,681.74725,-84.77102,1257.67664
22,0.175,549.96613,-127.66232,1295.40894,628.96149,-165.71378,1263.58289,681.74725,-84.77102,1257.67664
23,0.183,549.96613,-127.66232,1295.40894,629.05292,-165.62846,1263.71155,681.74725,-84.77102,1257.67664
24,0.192,549.76453,-128.46593,1296.64868,628.97894,-165.56511,1263.82263,681.74725,-84.77102,1257.67664
25,0.2,549.85773,-127.69762,1295.57361,628.97894,-165.56511,1263.82263,681.74725,-84.77102,1257.67664
26,0.208,550.48889,-127.90467,1295.58789,628.97894,-165.56511,1263.82263,681.74725,-84.77102,1257.67664
27,0.217,550.45117,-127.82519,1295.49609,628.56512,-165.21248,1263.83691,681.74725,-84.77102,1257.67664
28,0.225,550.22314,-128.04964,1295.36963,628.56512,-165.21248,1263.83691,681.23352,-84.82321,1257.2002
29,0.233,550.09131,-127.9324,1295.23804,628.47748,-165.16908,1263.64136,681.28339,-84.65388,1256.98267
30,0.242,549.66388,-127.76615,1295.54053,628.22601,-165.07304,1263.45605,681.17297,-85.29683,1256.5459
31,0.25,549.90851,-127.7627,1295.70605,628.22601,-165.07304,1263.45605,679.77191,-84.77391,1257.14075
32,0.258,549.79102,-127.82671,1295.64954,628.13617,-165.14478,1263.349,679.77191,-84.77391,1257.14075
33,0.267,549.61938,-127.689,1295.51611,628.2085,-165.22173,1263.21619,680.34174,-85.04996,1256.80298
34,0.275,549.55609,-127.40257,1295.39478,628.04614,-165.39903,1262.92896,679.81897,-85.10664,1256.64172
35,0.283,549.36896,-127.40232,1295.41064,628.04614,-165.39903,1262.92896,679.94458,-84.46575,1256.25806
36,0.292,549.55609,-127.40257,1295.39478,628.04614,-165.39903,1262.92896,678.59131,-84.27321,1256.35388
37,0.3,549.46844,-127.21461,1295.1709,627.98627,-165.66855,1262.77661,678.47473,-83.10217,1256.18298
38,0.308,549.01422,-127.39028,1294.8916,627.8399,-165.11086,1262.63708,679.30499,-83.35041,1255.9259
39,0.317,549.289,-127.57853,1295.09949,627.2002,-165.19426,1262.29529,679.87439,-83.62592,1255.58838
40,0.325,549.33234,-127.6308,1295.24707,627.00909,-165.3602,1262.32239,679.56494,-83.61122,1255.59875
41,0.333,549.1452,-127.63053,1295.26294,627.00909,-165.3602,1262.32239,679.56494,-83.61122,1255.59875
42,0.342,549.56952,-127.60413,1295.25867,627.69495,-166.21552,1262.44421,679.70978,-83.72797,1255.42529
43,0.35,549.63281,-127.89056,1295.38013,627.39484,-166.27562,1262.37891,679.70978,-83.72797,1255.42529
44,0.358,549.63281,-127.89056,1295.38013,627.78247,-166.25891,1262.63965,679.82703,-84.8998,1255.59595
45,0.367,549.63281,-127.89056,1295.38013,627.51581,-166.71959,1262.61426,680.1366,-84.91463,1255.58557
46,0.375,549.55408,-127.91824,1295.56165,627.59851,-166.87341,1262.80774,679.9917,-84.79777,1255.75903
47,0.383,549.55408,-127.91824,1295.56165,627.17047,-167.14383,1262.77197,679.51587,-86.33678,1256.28137
48,0.392,549.67242,-127.96377,1295.59106,627.42249,-167.07735,1262.85303,680.40308,-86.3531,1256.38391
49,0.4,549.52557,-128.7563,1296.75854,628.05798,-167.14563,1263.38269,680.52332,-86.85747,1256.57153
50,0.408,550.00873,-128.64391,1296.13037,628.30969,-167.10947,1263.6377,680.94336,-86.69881,1256.87256
51,0.417,549.70544,-129.17494,1297.1311,628.01196,-166.91156,1264.1626,680.89355,-86.86835,1257.09021
52,0.425,549.6825,-129.13412,1297.21765,628.0401,-167.30963,1264.6012,680.89355,-86.86835,1257.09021
53,0.433,549.51117,-129.29884,1297.32483,627.71381,-167.48155,1265.02014,680.98102,-87.01579,1257.26733
54,0.442,549.45319,-129.34926,1297.49316,627.87531,-167.76155,1265.33691,680.73621,-88.40769,1257.99109
55,0.45,549.45319,-129.34926,1297.49316,627.28552,-167.93733,1265.61279,679.97821,-88.29124,1258.36023
56,0.458,549.02008,-129.37021,1297.8136,627.25989,-168.34972,1265.9198,679.50928,-88.62688,1259.70007
57,0.467,548.92493,-129.44437,1298.12598,627.10474,-168.08252,1266.08313,679.82678,-88.85168,1259.9541
58,0.475,549.00555,-129.34732,1298.18713,627.02405,-168.0546,1266.24231,679.82678,-88.85168,1259.9541
59,0.483,549.00555,-129.34732,1298.18713,627.02405,-168.0546,1266.24231,681.08386,-87.89174,1260.83618
60,0.492,549.08179,-129.41537,1298.45508,627.02405,-168.0546,1266.24231,680.98883,-86.15295,1260.89282
61,0.5,549.14935,-129.30356,1298.5332,627.34595,-168.09901,1266.15552,680.98883,-86.15295,1260.89282
62,0.508,549.52332,-129.89688,1298.53491,627.34595,-168.09901,1266.15552,681.40924,-85.99327,1261.19373
63,0.517,550.01306,-129.99033,1297.98413,627.62866,-167.88959,1266.10632,681.40924,-85.99327,1261.19373
64,0.525,550.06885,-130.02515,1297.93701,627.84705,-167.74519,1266.00024,681.67773,-85.92232,1261.07898
65,0.533,550.69031,-130.54572,1297.93689,628.12988,-167.53589,1265.95105,681.67773,-85.92232,1261.07898
66,0.542,550.71216,-130.63052,1297.85571,629.32385,-167.51923,1265.60657,681.67773,-85.92232,1261.07898
67,0.55,551.10321,-130.41602,1297.69922,629.617,-167.46967,1265.62903,681.67773,-85.92232,1261.07898
68,0.558,551.46118,-130.29065,1297.32458,630.00037,-167.35985,1265.4906,681.91229,-85.88868,1260.70813
69,0.567,552.30786,-130.65012,1297.22314,629.93018,-167.41664,1265.09009,682.84631,-86.48771,1259.4408
70,0.575,552.35797,-129.6937,1295.90222,630.90857,-166.97292,1263.86926,682.25922,-86.50621,1257.68604
71,0.583,552.87537,-129.63203,1295.37073,631.77264,-167.55049,1263.42896,682.73181,-85.7898,1257.17627
72,0.592,554.56824,-129.60786,1294.62671,632.58264,-166.74338,1262.50293,683.04309,-85.26456,1256.70837
73,0.6,554.53851,-129.3707,1294.95264,632.56421,-167.16081,1261.67261,683.54974,-85.36223,1256.10522
74,0.608,554.83746,-128.99292,1294.63196,632.88458,-166.84349,1261.06482,685.69031,-86.12236,1255.28577
75,0.617,555.73804,-129.52122,1292.86084,633.50073,-166.49338,1259.81018,686.2934,-88.13885,1254.14636
76,0.625,556.35876,-128.84662,1291.69763,633.6496,-166.43936,1259.35461,687.00916,-87.44718,1252.67651
77,0.633,556.91016,-128.70642,1291.30725,634.63306,-166.6012,1258.74365,687.03223,-86.78737,1251.67236
78,0.642,557.33752,-128.95354,1291.08228,635.38226,-167.67113,1257.38782,686.96002,-85.93388,1250.89612
79,0.65,558.21271,-129.01682,1290.22083,636.1366,-168.34683,1257.18396,687.43573,-85.71577,1250.31396
80,0.658,559.24957,-129.34038,1289.02246,636.52832,-167.82463,1256.21729,688.12744,-86.45525,1248.95068
81,0.667,559.26477,-128.87752,1288.40369,636.32214,-167.6812,1254.98694,687.82587,-87.41123,1247.12061
82,0.675,559.95599,-127.91737,1287.8075,636.62427,-166.90044,1253.39819,687.28571,-86.31965,1246.32776
83,0.683,560.16693,-128.22505,1286.95789,637.3689,-167.79884,1253.44666,688.37848,-84.24287,1246.0155
84,0.692,560.84442,-129.09613,1286.96509,637.37762,-167.38806,1252.67847,689.84821,-84.30766,1244.37927
85,0.7,561.23401,-129.0345,1286.55359,637.51367,-167.34787,1251.8866,689.82703,-84.73739,1243.58057
86,0.708,561.21307,-128.82683,1285.42566,637.22357,-167.22795,1251.00781,689.41235,-85.38132,1243.29797
87,0.717,561.47778,-128.75668,1285.06934,637.20898,-167.2878,1249.68176,689.48425,-85.52243,1242.56055
88,0.725,561.39618,-128.83078,1284.77002,637.11127,-167.34459,1249.32703,690.61096,-85.7411,1241.61719
89,0.733,561.73132,-128.8844,1284.22632,637.30316,-167.54845,1249.25598,691.013,-85.13866,1240.50806
90,0.742,561.25861,-128.27936,1282.97375,637.11194,-167.26971,1248.24207,690.11273,-84.90997,1239.98645
91,0.75,561.16803,-128.16792,1282.20728,637.75592,-166.86461,1247.52808,689.66125,-82.33661,1238.51282
92,0.758,561.36249,-128.90834,1282.79053,637.60425,-166.81866,1246.66943,689.60809,-86.27798,1238.12317
93,0.767,560.93402,-129.11563,1282.23962,637.7677,-167.29865,1246.38611,689.60809,-86.27798,1238.12317
94,0.775,560.1604,-127.92788,1280.50427,637.36658,-167.55725,1246.28528,689.03705,-86.06352,1237.9906
95,0.783,560.1604,-127.92788,1280.50427,637.34766,-167.48489,1246.13,688.02234,-85.93532,1236.47388
96,0.792,560.1604,-127.92788,1280.50427,636.14148,-167.92122,1246.27014,687.8092,-85.7251,1236.32019
97,0.8,559.59656,-127.69804,1280.27625,636.12256,-167.11221,1246.35693,687.37823,-86.01341,1235.93457
98,0.808,559.60553,-127.79299,1280.16663,635.48804,-166.58511,1245.60181,687.22516,-81.29424,1236.57654
99,0.817,559.59998,-127.92925,1279.5741,635.75806,-167.39909,1244.99268,687.43378,-84.76974,1235.52319
100,0.825,559.59998,-127.92925,1279.5741,635.75806,-167.39909,1244.99268,687.43378,-84.76974,1235.52319
101,0.833,559.56421,-127.89161,1279.44238,634.83429,-166.50906,1245.79199,687.43378,-84.76974,1235.52319
102,0.842,559.59998,-127.92925,1279.5741,635.19342,-166.32677,1245.77405,687.43378,-84.76974,1235.52319
103,0.85,559.591,-127.83429,1279.68372,635.19342,-166.32677,1245.77405,687.43378,-84.76974,1235.52319
104,0.858,559.62689,-127.87206,1279.81543,635.60126,-165.41356,1245.77454,687.43378,-84.76974,1235.52319
105,0.867,559.48523,-127.63249,1279.78674,636.04254,-165.22743,1245.93359,687.50311,-85.06023,1235.75085
106,0.875,559.3736,-127.44328,1279.84119,636.55695,-165.31673,1246.58899,687.08972,-79.50829,1236.46045
107,0.883,559.36292,-127.28553,1280.02881,635.83698,-164.65085,1246.66431,687.08972,-79.50829,1236.46045
108,0.892,559.75128,-126.71168,1281.00586,636.44214,-164.41107,1246.91064,687.7915,-78.17705,1237.38684
109,0.9,559.65417,-126.33698,1281.72009,636.23132,-164.29883,1247.2439,688.06256,-81.43156,1237.50208
110,0.908,559.52985,-125.5491,1282.76953,636.23132,-164.29883,1247.2439,688.42804,-82.34689,1238.401
111,0.917,559.29034,-125.55228,1283.34668,636.50812,-164.22969,1248.23413,687.35492,-75.39156,1240.90295
112,0.925,559.28021,-125.79998,1283.49402,635.90314,-164.73593,1249.25317,687.58423,-82.01459,1240.03516
113,0.933,559.07904,-125.47272,1284.17639,635.78394,-164.17809,1250.35693,687.81464,-83.28887,1241.55469
114,0.942,559.11493,-125.29623,1284.69434,636.42908,-164.20293,1251.40576,687.79651,-81.6858,1241.90308
115,0.95,559.12378,-124.77051,1285.28271,636.58673,-163.79156,1251.87109,688.12366,-81.43983,1243.26929
116,0.958,559.2204,-124.22956,1286.99573,636.01459,-163.5919,1253.27881,687.29559,-80.28931,1245.09924
117,0.967,559.43884,-124.15134,1287.36108,635.93372,-163.4249,1253.66895,688.03735,-80.13224,1245.57031
118,0.975,559.48645,-124.03316,1288.14124,636.59668,-162.80072,1255.16443,687.96454,-80.71905,1245.84485
119,0.983,559.25555,-123.91287,1288.81018,636.22498,-161.42397,1255.37634,688.7373,-80.53773,1247.89636
120,0.992,559.28821,-123.95487,1289.33105,636.22028,-161.28099,1257.24915,687.70001,-79.16335,1248.92883
121,1,558.12042,-123.92075,1291.02075,635.08795,-160.84236,1257.55359,687.23602,-79.01607,1249.87122
122,1.008,558.14893,-123.53017,1291.88892,635.77985,-160.90282,1258.22009,687.55493,-78.94367,1250.85315
123,1.017,558.62225,-122.74847,1291.90259,636.42194,-160.61543,1258.7533,688.10211,-78.89157,1252.28149
124,1.025,558.77509,-122.69113,1292.77686,635.73828,-159.43169,1259.7644,687.65479,-78.2513,1253.74121
125,1.033,558.86572,-122.49206,1293.10107,636.3371,-158.71034,1260.45642,687.474,-77.84157,1254.31567
126,1.042,558.95044,-122.48508,1293.10193,636.56866,-158.31297,1260.88074,687.40082,-77.07243,1255.27942
127,1.05,558.52454,-121.97912,1294.87976,637.02911,-158.08409,1261.35376,687.28448,-77.21299,1255.46606
128,1.058,558.37592,-121.79819,1295.0647,636.38269,-157.24548,1261.87915,688.0694,-75.69749,1256.15112
129,1.067,558.62762,-121.4282,1295.47668,636.57666,-157.07663,1261.84521,688.89081,-76.42396,1257.1084
130,1.075,558.41333,-120.46715,1295.64185,636.77075,-156.90785,1261.8114,689.02179,-76.61813,1257.34143
131,1.083,558.52271,-120.33575,1295.90991,637.271,-156.70435,1262.02502,688.25146,-75.86026,1258.38379
132,1.092,558.51453,-120.08618,1295.9624,637.32782,-156.25359,1262.3938,688.16382,-75.26752,1258.19275
133,1.1,558.62976,-119.87611,1295.95203,637.32782,-156.25359,1262.3938,688.7348,-74.11164,1258.29944
134,1.108,558.74506,-119.66616,1295.94177,637.35938,-155.99466,1262.44958,688.63727,-73.76496,1257.8717
135,1.117,559.12445,-118.91491,1294.70837,637.6181,-155.76971,1262.40454,688.63727,-73.76496,1257.8717
136,1.125,559.09888,-118.46907,1294.75098,638.28833,-155.66139,1262.17139,688.99445,-73.3899,1257.08264
137,1.133,559.11298,-117.94423,1294.55688,638.54907,-155.40125,1261.80261,689.21313,-73.87582,1255.78528
138,1.142,559.28229,-116.80646,1294.22485,638.21198,-155.93938,1261.24097,689.21313,-73.87582,1255.78528
139,1.15,559.25604,-116.59831,1293.89441,638.21234,-155.24983,1261.19629,689.23645,-73.688,1255.5481
140,1.158,559.34973,-116.45663,1293.58289,638.1665,-154.66391,1261.1084,688.84686,-73.2281,1253.94824
141,1.167,559.64618,-117.01154,1293.55762,638.2663,-154.7822,1260.37634,688.84686,-73.2281,1253.94824
142,1.175,559.66711,-116.64503,1292.91895,638.37018,-153.64684,1259.34106,688.44153,-71.72855,1253.44678
143,1.183,559.75781,-115.85869,1291.58765,637.89996,-153.89221,1258.57788,688.50739,-70.88092,1252.51147
144,1.192,559.67163,-115.71652,1290.8335,638.07452,-153.98987,1258.3031,689.34662,-71.07104,1250.75916
145,1.2,559.53125,-116.1993,1290.45825,637.91235,-152.92229,1257.0697,689.23462,-71.31726,1250.13135
146,1.208,560.08325,-116.62221,1289.89514,638.28967,-153.46918,1256.50916,688.47009,-71.30226,1248.56628
147,1.217,560.16962,-116.08218,1289.50684,638.59662,-153.38565,1255.28638,688.16461,-71.87918,1248.24365
148,1.225,559.86664,-116.0797,1289.19409,638.26703,-153.26482,1254.63635,688.24536,-71.16466,1247.84888
149,1.233,560.01733,-115.66521,1288.02722,638.37708,-153.5181,1254.29089,687.78613,-69.2745,1246.62463
150,1.242,560.48035,-115.63808,1287.32275,638.98596,-153.57085,1253.70911,688.67816,-69.38252,1245.20105
151,1.25,560.92206,-115.38625,1286.77429,638.23962,-153.10146,1252.28784,688.48926,-69.91709,1243.45129
152,1.258,561.08588,-115.29467,1285.52051,637.67999,-153.27386,1251.32324,688.77686,-68.85567,1243.41174
153,1.267,561.03418,-115.27064,1285.20264,637.76581,-153.22737,1250.80847,688.47058,-69.74588,1242.56323
154,1.275,560.77325,-115.3257,1284.53699,637.98688,-153.2713,1250.42529,688.15875,-69.54347,1242.42139
155,1.283,561.22644,-115.55338,1283.63,638.23907,-153.04231,1249.34485,689.02789,-68.89615,1240.67603
156,1.292,561.84845,-115.56706,1283.02844,638.13513,-153.14926,1248.90845,689.07581,-70.4859,1240.43945
157,1.3,562.20404,-115.75555,1282.74707,638.63019,-152.63165,1247.6908,689.29089,-69.52982,1239.53235
158,1.308,562.29346,-115.83013,1282.64734,638.8313,-152.73701,1247.26135,688.96185,-69.35677,1238.52502
159,1.317,562.52966,-115.35226,1281.81372,639.00806,-152.66203,1246.49158,690.11865,-68.46909,1237.03955
160,1.325,562.60754,-115.0566,1281.48608,639.45477,-152.3017,1245.75134,690.0163,-65.18805,1236.92834
161,1.333,562.70306,-115.24715,1280.85632,639.81671,-152.28357,1245.74268,689.84241,-64.25071,1236.50574
162,1.342,562.76508,-115.18478,1280.76123,640.37347,-152.68279,1245.44153,691.18066,-70.55515,1235.54468
163,1.35,563.08948,-114.90753,1279.90906,640.66913,-151.93787,1245.15955,691.08154,-70.24316,1234.52625
164,1.358,563.87518,-114.29597,1279.65063,640.57904,-152.54883,1244.18176,691.08154,-70.24316,1234.52625
165,1.367,564.01404,-114.25554,1279.45667,640.57904,-152.54883,1244.18176,691.63879,-70.48672,1233.73853
166,1.375,563.78998,-114.33252,1279.16028,641.15833,-152.35426,1244.07922,692.07111,-71.09428,1232.84033
167,1.383,564.36169,-114.47211,1278.8158,641.92023,-152.11397,1243.93762,692.07111,-71.09428,1232.84033
168,1.392,564.86029,-114.60965,1278.64429,642.12323,-152.00569,1243.80164,692.32568,-70.01398,1232.54443
169,1.4,565.07007,-114.40108,1278.67017,642.12323,-152.00569,1243.80164,692.32568,-70.01398,1232.54443
170,1.408,565.07007,-114.40108,1278.67017,642.19452,-151.89328,1243.87219,692.32568,-70.01398,1232.54443
171,1.417,565.26007,-114.25492,1279.24292,642.28485,-151.82082,1243.97961,692.32568,-70.01398,1232.54443
172,1.425,565.26007,-114.25492,1279.24292,642.31995,-151.36823,1244.75903,692.40466,-70.25432,1232.73059
173,1.433,565.35193,-114.10588,1279.21936,642.98529,-151.81947,1244.93164,692.40466,-70.25432,1232.73059
174,1.442,565.60345,-113.60115,1279.85645,643.37616,-151.76888,1245.20593,692.40466,-70.25432,1232.73059
175,1.45,566.33392,-113.79102,1279.93872,643.30682,-151.7422,1245.35376,693.0332,-69.33139,1233.91589
176,1.458,565.49298,-113.61462,1280.05029,643.79102,-151.52322,1245.56091,692.89417,-69.53569,1235.30896
177,1.467,565.43384,-113.50229,1281.4353,643.55646,-151.4796,1245.65576,692.49744,-68.95625,1236.22754
178,1.475,565.70587,-113.26398,1281.94092,641.58405,-150.24576,1247.20532,692.27234,-68.56545,1236.72107
179,1.483,566.15302,-113.18947,1282.71411,641.89838,-149.80231,1247.91077,692.17578,-64.94123,1237.33411
180,1.492,566.23462,-113.41445,1283.36987,642.51953,-149.52737,1248.48816,693.16058,-67.33624,1237.81177
181,1.5,566.14856,-113.47404,1283.46362,643.07458,-149.33936,1248.85339,693.1134,-67.11739,1239.21375
182,1.508,566.13696,-113.08044,1284.19824,643.17944,-149.43874,1249.88806,692.63391,-65.61494,1241.13513
183,1.517,566.27277,-112.8643,1284.63464,644.35297,-148.99965,1251.19458,692.69879,-65.35922,1241.62695
184,1.525,565.81604,-113.08507,1285.76428,643.14417,-149.21313,1251.70825,692.58569,-65.96756,1242.2959
185,1.533,565.18445,-112.25092,1286.55371,643.22583,-148.9167,1252.62268,693.04004,-65.93376,1242.573
186,1.542,564.95862,-112.24296,1286.81689,643.38629,-148.99789,1252.88074,694.20038,-65.03921,1244.69116
187,1.55,565.23157,-112.29833,1287.23511,642.88916,-149.10568,1254.21533,693.46167,-65.32855,1245.56738
188,1.558,565.06775,-112.35413,1287.49646,642.66589,-148.67261,1254.87927,693.24664,-66.22527,1246.57983
189,1.567,565.0127,-112.2789,1288.57727,642.32843,-148.27177,1255.17175,692.91534,-66.39892,1246.82568
190,1.575,564.83997,-111.91149,1289.25134,643.19055,-148.17567,1255.81189,693.13855,-66.1405,1247.07178
191,1.583,563.99908,-111.80566,1290.02625,643.67407,-147.51459,1256.27905,692.85162,-66.27903,1248.59094
192,1.592,563.79889,-111.7263,1290.0271,644.74255,-147.29572,1257.18958,692.83405,-65.30278,1250.72498
