Frame#,Time,L.Forearm.x,L.Forearm.y,L.Forearm.z,L.Ulna.x,L.Ulna.y,L.Ulna.z,L.Radius.x,L.Radius.y,L.Radius.z
1,0,211.21443,187.53549,964.32117,301.18222,227.71307,983.00708,305.13519,143.48245,1006.69489
2,0.008,211.49312,187.42982,964.93066,301.02579,227.95561,983.62115,305.51105,143.09589,1006.94971
3,0.017,211.99634,186.53635,965.23059,302.07748,227.75279,984.23047,305.61523,142.62143,1007.49731
4,0.025,212.29547,187.20853,965.92932,301.97961,228.07806,984.93616,305.36136,142.52884,1007.80994
5,0.033,212.41846,187.3465,966.51599,302.23578,228.16083,985.06702,305.44437,142.64056,1007.65509
6,0.042,212.80779,187.20525,966.58948,302.71274,227.80278,984.9917,306.03778,143.58669,1007.80505
7,0.05,212.79836,187.5175,966.84131,302.89294,227.22865,984.77698,306.03778,143.58669,1007.80505
8,0.058,213.20198,187.53754,966.74683,302.89294,227.22865,984.77698,306.03778,143.58669,1007.80505
9,0.067,213.20198,187.53754,966.74683,302.89294,227.22865,984.77698,306.03778,143.58669,1007.80505
10,0.075,213.28867,187.08408,965.92731,302.60153,227.00659,984.33868,306.03778,143.58669,1007.80505
11,0.083,213.03136,187.2321,965.76996,302.5787,227.54422,983.96436,306.85275,144.47801,1007.27045
12,0.092,213.44624,187.8723,965.35645,303.37393,227.58006,982.81989,306.68405,144.99774,1007.54541
13,0.1,213.51207,188.91339,965.03021,303.89011,228.58382,982.552,306.55206,145.22977,1008.11554
14,0.108,213.58604,188.84595,964.53381,303.93219,228.84612,982.21857,305.71259,144.25934,1007.77588
15,0.117,212.72029,189.71176,963.84576,302.8667,228.96849,980.82227,306.12445,146.72478,1006.60663
16,0.125,213.55324,189.60818,963.08502,303.45804,231.00014,978.99194,305.44855,145.66589,1006.61133
17,0.133,212.59911,190.83278,962.39868,302.58017,231.65318,977.50293,305.0741,146.3651,1006.70227
18,0.142,211.87114,191.82211,961.75861,302.55295,231.99828,975.70752,301.87552,148.48094,1005.51495
19,0.15,211.63373,192.47684,960.56226,302.19403,231.79402,973.81873,301.59509,148.25877,1004.75177
20,0.158,211.12868,193.58937,958.99847,302.29626,232.09694,971.87439,300.92056,148.49733,1003.80548
21,0.167,210.24846,194.46077,957.11902,300.88687,232.84756,969.34802,300.91531,151.4758,1001.59357
22,0.175,209.31169,194.78528,955.49548,300.14911,233.84323,968.57904,299.35153,151.59502,1000.81689
23,0.183,208.68526,195.53177,953.54156,299.96814,234.09782,964.3653,297.11096,152.54964,999.42181
24,0.192,207.69562,196.97678,951.40356,299.63193,234.69716,963.35657,296.0816,153.02315,997.45941
25,0.2,205.76082,198.51633,949.80933,298.54935,235.0162,959.75323,294.71161,153.69514,995.82513
26,0.208,204.68883,199.46666,946.89966,298.23724,235.89029,956.89905,291.83987,156.81918,995.5564
27,0.217,204.63277,199.10316,944.60175,296.4097,236.63924,953.87872,289.32584,158.16963,995.37354
28,0.225,202.22389,201.53088,942.48199,294.78082,237.36786,950.98212,288.36221,159.03714,992.52765
29,0.233,200.31297,202.33658,940.14453,292.95062,238.31094,948.18787,285.87134,162.14093,990.5127
30,0.242,199.70012,203.40111,938.6377,291.59732,238.59441,945.13116,284.45822,163.0573,990.67657
31,0.25,197.40395,205.78572,936.2265,290.26425,239.83762,941.56128,281.31,166.06613,989.1449
32,0.258,196.04105,207.1853,933.35889,290.10657,240.17529,937.91071,279.39423,168.37532,986.54602
33,0.267,194.13751,208.61943,931.20404,288.94144,240.22446,934.07074,276.94766,170.77161,985.61957
34,0.275,192.62808,210.94641,929.94977,286.45212,240.30217,930.19812,273.48776,172.05373,983.83722
35,0.283,189.67789,212.87434,927.6366,284.84494,241.27156,926.93146,270.72223,174.48038,981.84839
36,0.292,187.17079,213.43878,924.49164,282.44495,241.92577,922.77203,266.33514,177.13647,979.91956
37,0.3,185.3981,215.4001,921.10101,280.93161,241.71535,917.57867,263.84402,180.21855,978.21149
38,0.308,182.92647,217.04376,918.53668,278.75513,240.41151,914.85413,260.07834,181.1758,976.22943
39,0.317,179.89955,219.07141,914.11548,276.08447,241.08406,910.2254,257.32132,184.73621,973.97327
40,0.325,179.14714,218.58864,911.89386,274.18274,242.19958,907.05621,254.31787,186.77066,971.47809
41,0.333,176.1003,219.94125,908.14905,271.55719,241.63766,903.38867,250.10173,189.26587,969.47369
42,0.342,173.61963,220.92513,904.32574,269.91785,239.57767,899.05396,248.14513,191.63808,966.41858
43,0.35,170.88878,221.83345,900.76044,266.56396,241.22479,895.64587,244.21013,194.21358,963.94427
44,0.358,167.94119,224.67001,896.4917,264.03998,242.45799,892.38647,240.97397,196.24673,960.2666
45,0.367,164.1729,226.47449,893.1582,262.24081,241.46292,889.06696,237.9863,196.07764,957.27393
46,0.375,163.36426,229.04646,889.90631,256.92291,241.8764,885.1579,233.75789,198.45291,954.56824
47,0.383,160.34509,227.30737,885.94922,254.68524,240.78236,882.11127,229.92484,199.35988,951.45251
48,0.392,157.44955,228.06905,881.39484,251.8629,241.74513,878.67596,226.88458,201.90306,948.27972
49,0.4,154.16756,230.82777,878.11346,249.23047,242.0659,875.49054,222.53625,202.78798,945.72266
50,0.408,150.67995,232.02499,874.60297,245.44107,240.06967,871.89447,220.53954,202.55693,942.06323
51,0.417,148.14079,228.54974,870.49371,243.27113,240.48119,869.46863,216.63623,205.70483,940.06647
52,0.425,145.59595,229.92882,867.58447,242.78947,239.799,866.60303,213.40927,206.70746,937.95758
53,0.433,142.72255,231.65178,864.15833,238.50159,240.21306,863.01282,211.06421,207.95491,935.17664
54,0.442,139.83176,233.08566,861.93024,236.0058,237.6441,861.1192,207.53178,207.40169,932.40039
55,0.45,137.4893,232.64047,859.45062,232.60455,237.68733,857.96521,204.44154,208.42041,930.86182
56,0.458,135.09119,231.9384,855.47076,230.53343,237.27774,855.47717,201.12234,209.50987,927.96417
57,0.467,132.24348,231.89442,853.77069,227.20509,235.68208,852.83557,197.39943,210.48183,925.8559
58,0.475,131.52654,232.33548,848.96155,224.50424,235.35759,850.04517,194.44156,210.23779,922.56592
59,0.483,127.50742,233.6451,847.7605,222.78571,234.88107,848.25385,191.4483,209.54167,920.92145
60,0.492,125.08435,233.85162,845.1947,219.19154,233.53267,845.81732,188.11058,209.5704,918.17163
61,0.5,122.49291,231.39983,842.65979,217.0079,233.39537,843.9278,185.46443,210.39311,917.04901
62,0.508,120.28149,232.35451,839.84174,214.35304,232.60799,842.87671,181.99342,210.91512,914.64429
63,0.517,117.79641,232.15019,837.77039,210.95897,229.97255,839.83478,179.8667,211.17831,913.11273
64,0.525,116.19014,231.33742,835.32214,208.35133,231.53531,837.96881,176.53366,209.82103,910.65216
65,0.533,112.88617,231.62697,833.28644,207.18781,230.82675,837.06415,174.24582,212.79448,909.96796
66,0.542,111.73331,231.59021,832.02161,205.22128,230.85652,835.4455,171.45633,211.5601,908.17322
67,0.55,109.49593,232.41711,831.18243,202.49374,227.8779,833.53656,168.51241,212.18942,906.89874
68,0.558,107.22385,232.02779,828.04681,200.02812,229.39595,832.18964,166.69888,211.75766,905.52423
69,0.567,105.79111,232.08339,826.65594,199.1965,229.49854,832.08142,164.42543,211.24329,904.31793
70,0.575,104.15273,232.09213,825.08331,198.1899,228.57193,830.1355,161.41383,212.95424,902.86938
71,0.583,102.04942,230.90814,824.34241,193.59503,226.35345,829.2428,159.47459,213.39301,902.25867
72,0.592,100.37294,231.04179,823.20764,192.41551,226.59256,828.16858,156.65825,213.44179,900.56854
73,0.6,98.88062,229.84267,820.69727,191.69798,226.65131,827.15601,155.44145,213.37717,899.89624
74,0.608,98.17484,230.02606,820.27881,189.95827,225.7235,826.53339,154.05566,213.43068,898.83002
75,0.617,97.05991,230.16568,819.6048,188.29124,224.17647,825.6593,152.11061,212.64967,897.55432
76,0.625,94.43204,230.26112,818.24524,186.69228,223.2739,824.979,151.85201,211.99164,896.41827
77,0.633,93.9991,230.46413,818.26965,185.1619,222.52061,824.19556,149.94722,212.17952,895.07843
78,0.642,92.97344,229.45137,816.78851,183.70598,221.70578,823.75995,148.43791,212.11143,894.91937
79,0.65,92.45936,228.44019,816.15765,183.36292,221.68318,822.99194,147.47856,212.88527,894.92444
80,0.658,91.6368,228.28857,815.93506,182.17155,220.95723,822.12683,145.80219,213.30222,894.8161
81,0.667,90.91502,228.49101,816.19232,180.93834,220.01276,821.91162,144.69003,213.34755,894.46124
82,0.675,89.85052,228.45705,815.68048,179.95126,219.996,821.50378,143.88243,213.61234,894.23169
83,0.683,88.07817,229.85561,816.02295,178.80464,219.1032,821.22125,142.53551,213.57745,894.28699
84,0.692,87.92591,230.08913,815.89111,178.80464,219.1032,821.22125,141.3756,212.78023,894.02856
85,0.7,87.56327,229.69528,815.84375,178.38708,219.24254,820.62994,140.35655,213.25352,894.25708
86,0.708,87.56327,229.69528,815.84375,177.28868,218.7932,820.53687,139.48936,212.18015,894.34631
87,0.717,86.91616,227.99115,815.82892,177.17705,219.06009,820.92426,139.25557,212.16946,893.99841
88,0.725,86.625,228.12518,815.59637,176.87776,218.98203,821.46521,138.80466,211.73401,893.63678
89,0.733,86.27967,226.77893,814.85889,176.64369,218.5329,821.29834,138.57768,210.84546,893.36914
90,0.742,86.16177,227.29561,814.39313,175.96751,217.66983,821.21826,138.57768,210.84546,893.36914
91,0.75,85.58252,227.5683,814.30151,175.72934,217.5818,821.29163,138.57768,210.84546,893.36914
92,0.758,85.83645,227.37875,814.37811,175.6683,217.22392,821.01477,138.57768,210.84546,893.36914
93,0.767,86.38782,227.26826,815.31641,175.6683,217.22392,821.01477,138.57768,210.84546,893.36914
94,0.775,86.38782,227.26826,815.31641,175.64473,216.47888,820.94305,138.57768,210.84546,893.36914
95,0.783,86.38782,227.26826,815.31641,175.64473,216.47888,820.94305,138.57768,210.84546,893.36914
96,0.792,86.38782,227.26826,815.31641,175.64473,216.47888,820.94305,138.57768,210.84546,893.36914
97,0.8,86.38782,227.26826,815.31641,175.10237,215.80168,820.84454,138.57768,210.84546,893.36914
98,0.808,86.13384,227.32779,815.33307,175.10237,215.80168,820.84454,138.26703,210.36343,893.1214
99,0.817,85.93067,227.49295,815.26251,175.12534,216.54666,820.91595,138.26703,210.36343,893.1214
100,0.825,86.38782,227.26826,815.31641,175.46989,215.17859,820.77167,138.26703,210.36343,893.1214
101,0.833,86.38782,227.26826,815.31641,176.01241,215.85576,820.87024,138.26703,210.36343,893.1214
102,0.842,86.38782,227.26826,815.31641,175.98952,215.1107,820.79877,138.26703,210.36343,893.1214
103,0.85,86.38782,227.26826,815.31641,176.10413,215.07014,820.36182,138.57768,210.84546,893.36914
104,0.858,86.38782,227.26826,815.31641,176.10413,215.07014,820.36182,138.83679,210.77083,893.36725
105,0.867,87.28233,227.00276,815.69598,176.10413,215.07014,820.36182,139.07057,210.78163,893.71533
106,0.875,87.28233,227.00276,815.69598,176.52892,215.05188,820.39874,139.07057,210.78163,893.71533
107,0.883,87.92945,228.70801,815.711,177.22165,214.96187,820.43494,139.36057,210.62206,893.20544
108,0.892,87.67818,227.93266,815.85455,177.46835,213.86534,820.34949,140.16447,210.23206,893.32861
109,0.9,87.83056,227.74063,815.95654,177.89314,213.84721,820.38654,140.65721,209.93085,893.9101
110,0.908,88.29206,228.7672,815.99805,178.56859,214.70946,820.46667,140.79253,210.10045,893.49878
111,0.917,88.29206,228.7672,815.99805,178.80025,214.70488,820.92169,141.16924,211.13419,893.62787
112,0.925,88.96317,228.62064,815.71143,180.0441,215.16391,821.03308,142.7048,209.61496,893.45612
113,0.933,90.10444,228.36511,815.68713,181.28793,215.62222,821.14484,144.19125,208.48232,893.21411
114,0.942,90.80039,228.04129,815.94635,181.51929,215.61839,821.59967,145.57172,208.33186,893.79346
115,0.95,91.63693,228.05405,816.10297,182.31758,216.59506,822.48132,145.81331,208.03726,893.98743
116,0.958,92.50158,226.99677,816.31158,182.43011,216.21696,822.74646,146.74797,209.53026,894.68109
117,0.967,93.04173,227.89021,817.50116,182.43011,216.21696,822.74646,148.15932,208.17032,895.62109
118,0.975,93.5913,228.27492,818.45642,185.42574,216.78285,823.6568,148.75612,207.97136,895.88257
119,0.983,94.55219,227.91518,819.04962,187.67021,218.4955,824.63483,150.45908,209.07993,896.8363
120,0.992,97.51752,228.15735,820.02362,188.56151,218.15775,825.82141,150.97501,209.41031,898.76666
121,1,98.62259,228.95682,820.55743,188.79166,218.15422,826.27527,153.925,209.01064,898.84241
122,1.008,98.88293,228.98911,821.63708,191.03111,218.20976,827.22882,155.67369,211.24178,899.54346
123,1.017,100.21425,228.89264,822.6275,191.9592,218.25031,827.42371,158.153,209.72623,900.18951
124,1.025,101.7136,229.72957,824.62415,192.83246,217.72285,828.41626,160.08276,210.09969,901.39465
125,1.033,103.2384,230.13864,825.41461,197.15283,219.70338,830.13861,163.9919,209.39384,903.37183
126,1.042,105.36461,229.82077,826.5918,198.43991,219.05699,830.88647,164.2184,210.11526,904.30786
127,1.05,106.61636,230.06253,827.401,200.36484,218.67252,832.14996,167.41853,211.11377,905.21069
128,1.058,110.17214,228.83368,829.91113,202.11226,219.0349,832.87402,169.2699,210.06949,906.44214
129,1.067,111.64986,228.53961,830.34033,205.09848,222.14653,834.72375,172.63139,209.50977,908.53119
130,1.075,113.14379,230.18697,832.91315,206.3683,222.20013,836.06836,174.3873,208.71384,909.5639
131,1.083,115.08813,229.65858,833.44458,207.77774,222.92581,837.92456,176.66646,209.13776,911.31592
132,1.092,117.45959,228.89798,834.79767,211.40392,224.11079,838.98468,179.43672,208.90138,912.24878
133,1.1,119.39262,229.58667,836.8045,213.33295,225.54503,841.69965,180.66878,210.59758,915.17517
134,1.108,121.38765,231.49237,839.33173,216.12848,225.8271,843.77069,183.69542,209.07733,916.93927
135,1.117,124.8683,227.91592,842.07416,216.55699,225.98268,844.4447,186.22961,208.57384,918.02026
136,1.125,126.35245,227.83142,843.62018,220.7744,227.28967,846.34998,187.79936,207.76221,919.12543
137,1.133,127.26944,230.33995,845.26093,222.51003,228.63278,848.08893,189.81177,207.65547,922.17426
138,1.142,130.00107,229.64923,846.51666,224.76007,229.18536,851.18713,192.77254,207.63608,924.02368
139,1.15,131.81261,229.6949,848.16144,227.16998,231.65692,852.73749,194.19473,207.73604,925.50568
140,1.158,132.41118,229.21196,851.44208,227.77322,233.33524,856.43634,196.88858,207.06232,927.41168
141,1.167,136.1376,229.61913,854.0694,230.79582,233.69513,858.43811,199.4881,205.24841,929.37427
142,1.175,136.51106,229.62671,855.46259,233.4436,235.60774,861.52063,201.41371,203.33058,931.71381
143,1.183,138.23764,228.82722,857.74194,235.49046,237.16811,863.56165,204.63306,202.87158,933.53656
144,1.192,141.46606,228.16133,859.50909,236.70007,236.45453,866.995,205.9926,201.47673,935.62006
145,1.2,142.4034,227.07013,862.99298,238.48631,238.94794,869.82361,209.0024,199.85463,936.87823
146,1.208,144.74385,226.82782,865.72949,241.73921,239.83624,871.48328,211.42198,197.72401,938.57263
147,1.217,146.51474,225.38029,867.97137,242.89528,239.6946,875.72046,214.87073,196.67201,940.79419
148,1.225,150.28209,225.51869,870.63031,244.52805,240.54778,877.25604,216.64604,195.02049,942.31958
149,1.233,151.54456,222.89845,872.96478,246.99483,241.38608,880.79413,219.81108,191.87656,944.51788
150,1.242,154.49326,221.89532,875.26709,248.9901,240.94954,883.15833,222.43117,190.41742,946.28992
151,1.25,156.9189,223.702,878.59833,252.097,242.20714,885.54126,225.65778,189.27776,947.07758
152,1.258,158.70566,220.6767,880.95734,252.98099,242.66414,889.77649,229.20274,187.23788,948.77521
153,1.267,161.53203,222.74445,881.92419,256.05771,241.02283,890.87146,231.73726,184.5336,950.0188
154,1.275,163.49248,219.49281,884.44983,257.30521,242.5,894.28662,235.59386,181.5016,951.46936
155,1.283,165.96535,218.62001,887.13287,260.8663,242.51181,896.74335,238.73216,180.78639,952.55426
156,1.292,168.5587,218.04756,889.6925,262.9259,243.38338,899.9986,242.06151,178.31631,953.11102
157,1.3,170.59775,216.56688,891.52173,265.3696,242.42592,903.13165,247.20262,175.61533,954.93719
158,1.308,174.71193,213.3605,892.79028,267.44907,243.06271,904.43427,249.74184,174.68025,955.53833
159,1.317,176.72539,213.95134,895.18903,271.48038,243.20226,907.77661,253.35776,173.15034,956.90759
160,1.325,180.05708,212.32721,897.40393,272.20303,242.95605,909.94989,255.75902,171.45132,959.10315
161,1.333,182.42183,211.47806,900.74207,275.19675,242.02106,912.33923,259.60913,170.19077,959.49292
162,1.342,185.15576,211.64667,903.95642,277.56638,241.68591,914.67255,262.4996,171.00613,960.91333
163,1.35,187.31197,210.12553,904.9151,279.23361,241.90388,917.31812,265.89908,169.461,964.17035
164,1.358,188.65367,210.41385,908.53436,279.86432,243.82202,918.60913,268.03455,168.16779,964.66663
165,1.367,190.56636,208.87779,910.76263,282.40302,242.32632,921.96124,272.03137,165.8223,965.16724
166,1.375,193.21085,205.78513,911.10046,284.63486,241.69347,922.9491,274.40326,166.86723,965.64911
167,1.383,194.77736,207.94052,914.54663,287.26166,241.87419,924.69916,278.25739,165.45587,967.6178
168,1.392,196.67091,205.80241,916.39087,290.11212,240.89612,926.77802,280.37479,163.5538,968.01086
169,1.4,200.21101,205.7522,917.82159,290.67123,240.1237,928.06116,284.3237,162.97655,968.48358
170,1.408,201.13249,205.96169,918.11206,293.83945,240.50671,929.21716,287.52466,163.58372,969.72211
171,1.417,205.15247,203.46272,919.35138,296.01382,240.7543,930.34198,291.82657,162.65323,970.18109
172,1.425,206.41699,202.42827,922.1358,299.302,240.28589,931.32465,293.80328,160.10481,970.65131
173,1.433,208.41347,202.34969,923.92163,301.08505,239.23431,932.19611,297.26755,160.47475,970.57306
174,1.442,210.81421,200.86148,925.2226,303.245,238.71924,933.1015,300.11218,160.51167,971.64569
175,1.45,212.04114,200.27492,928.72626,304.46442,239.0993,935.698,303.79123,159.16562,971.39087
176,1.458,212.94316,199.4043,929.97284,304.59125,238.59087,935.85956,306.04538,158.52408,972.59027
177,1.467,214.9563,199.12193,931.02161,306.24069,238.64284,938.28448,306.34723,157.0002,973.18555
178,1.475,216.11566,197.19511,934.12677,307.66885,237.40259,940.06812,308.72913,156.09821,973.55054
179,1.483,217.07997,197.34818,935.02441,308.68939,237.31425,940.37238,310.22693,155.4334,974.80878
180,1.492,217.90352,197.06784,935.50006,309.61072,238.22018,941.11395,311.31711,155.38593,974.77094
181,1.5,218.23218,196.81496,936.4342,309.76022,237.49113,944.22607,312.39764,154.99475,975.10016
182,1.508,219.96288,196.1651,937.05524,310.62918,237.24989,945.46191,314.30316,154.94838,975.84583
183,1.517,220.84096,194.34753,937.23645,311.41129,236.5553,945.91913,316.02554,154.74203,976.42523
184,1.525,221.37799,194.18779,937.20862,312.22696,236.43866,946.76483,316.94965,154.76575,976.45117
185,1.533,222.86694,194.04753,938.68665,313.6633,236.18709,947.03503,318.61243,154.39334,978.31726
186,1.542,223.47679,194.99622,938.58417,314.18127,236.12262,947.08655,319.35294,153.96863,978.17108
187,1.55,223.68365,193.15402,940.01947,315.10544,236.61269,947.19098,320.58566,152.90257,977.83429
188,1.558,224.93048,195.1665,940.27899,316.06085,236.48544,947.47101,321.25003,152.14249,977.92786
189,1.567,226.34351,194.47433,941.41718,316.31302,236.34619,947.26733,323.46506,153.2796,977.21783
190,1.575,227.12444,194.06154,942.04822,316.31302,236.34619,947.26733,325.00229,153.97533,978.25201
191,1.583,227.207,194.31711,942.21783,316.81183,236.2957,947.24731,325.00229,153.97533,978.25201
192,1.592,227.37703,194.38651,942.3631,317.84625,237.00026,947.2597,325.23242,154.19148,978.69904
193,1.6,228.04172,193.76956,942.53766,317.84625,237.00026,947.2597,325.4668,154.91534,978.94122
194,1.608,228.04172,193.76956,942.53766,318.38739,236.94238,947.00531,325.39078,154.78633,978.97992
195,1.617,228.04172,193.76956,942.53766,318.67065,236.87741,947.07092,325.39078,154.78633,978.97992
196,1.625,228.88332,193.5208,942.42889,319.19537,237.40858,947.19159,325.44159,154.99342,979.07928
197,1.633,229.03699,193.36719,942.53766,319.19537,237.40858,947.19159,325.98004,156.28658,979.14868
198,1.642,229.20703,193.43681,942.68304,319.41812,237.66458,946.98083,326.66064,155.68465,978.95251
199,1.65,229.35048,193.4924,942.56415,319.41812,237.66458,946.98083,326.66064,155.68465,978.95251
200,1.658,229.35048,193.4924,942.56415,319.63361,237.93665,946.5506,327.50003,155.92262,978.78143
201,1.667,229.58791,193.94254,942.40491,319.64417,237.57788,946.44342,328.06537,155.55908,978.38361
202,1.675,229.6227,194.53676,942.22339,319.64417,237.57788,946.44342,328.26511,155.95969,978.42944
