Frame#,Time,R.Forearm.x,R.Forearm.y,R.Forearm.z,R.Ulna.x,R.Ulna.y,R.Ulna.z,R.Radius.x,R.Radius.y,R.Radius.z
1,0,18.76028,-252.54178,692.83716,65.55748,-251.91609,610.80188,89.35599,-173.97508,637.7674
2,0.008,18.76028,-252.54178,692.83716,65.55748,-251.91609,610.80188,89.35599,-173.97508,637.7674
3,0.017,18.76028,-252.54178,692.83716,65.55748,-251.91609,610.80188,89.35599,-173.97508,637.7674
4,0.025,17.64199,-251.90814,692.31866,65.55748,-251.91609,610.80188,89.35599,-173.97508,637.7674
5,0.033,17.64199,-251.90814,692.31866,65.55748,-251.91609,610.80188,89.35599,-173.97508,637.7674
6,0.042,16.31582,-249.77335,691.25653,65.55748,-251.91609,610.80188,89.35599,-173.97508,637.7674
7,0.05,16.31582,-249.77335,691.25653,65.17434,-252.25658,609.8457,89.35599,-173.97508,637.7674
8,0.058,16.31582,-249.77335,691.25653,65.17434,-252.25658,609.8457,89.35599,-173.97508,637.7674
9,0.067,16.31582,-249.77335,691.25653,65.17434,-252.25658,609.8457,89.0476,-173.55096,637.76343
10,0.075,16.31582,-249.77335,691.25653,65.17434,-252.25658,609.8457,89.0476,-173.55096,637.76343
11,0.083,16.27272,-250.08794,690.94318,65.17434,-252.25658,609.8457,88.48061,-173.82138,637.6568
12,0.092,16.27272,-250.08794,690.94318,65.17434,-252.25658,609.8457,88.03798,-173.65987,637.65265
13,0.1,16.27272,-250.08794,690.94318,64.47195,-252.40617,610.08173,87.62015,-173.79303,637.92004
14,0.108,16.27272,-250.08794,690.94318,64.47195,-252.40617,610.08173,87.49419,-174.00908,637.70367
15,0.117,16.27272,-250.08794,690.94318,64.17099,-252.16496,609.73285,87.91205,-173.87593,637.43622
16,0.125,15.27334,-249.64079,689.89349,64.17099,-252.16496,609.73285,87.49419,-174.00908,637.70367
17,0.133,15.07055,-249.99498,689.6535,64.17099,-252.16496,609.73285,87.49419,-174.00908,637.70367
18,0.142,14.80781,-250.23627,689.48828,64.17099,-252.16496,609.73285,87.23363,-174.01082,637.24854
19,0.15,14.80781,-250.23627,689.48828,64.17099,-252.16496,609.73285,86.43327,-174.02405,636.99445
20,0.158,14.80781,-250.23627,689.48828,64.17099,-252.16496,609.73285,86.69376,-174.02219,637.44952
21,0.167,14.42512,-250.25119,689.47235,64.17099,-252.16496,609.73285,86.43327,-174.02405,636.99445
22,0.175,14.42512,-250.25119,689.47235,63.95302,-251.63173,609.70953,86.43327,-174.02405,636.99445
23,0.183,14.42512,-250.25119,689.47235,63.95302,-251.63173,609.70953,86.50455,-174.28676,636.89575
24,0.192,14.42512,-250.25119,689.47235,63.05083,-252.24936,609.68597,86.50455,-174.28676,636.89575
25,0.2,14.27889,-250.34306,688.88098,63.05083,-252.24936,609.68597,86.50455,-174.28676,636.89575
26,0.208,14.27889,-250.34306,688.88098,63.05083,-252.24936,609.68597,86.50455,-174.28676,636.89575
27,0.217,14.27889,-250.34306,688.88098,63.05083,-252.24936,609.68597,86.50455,-174.28676,636.89575
28,0.225,14.60381,-250.60165,689.60608,63.05083,-252.24936,609.68597,86.15015,-174.96719,636.90906
29,0.233,14.60381,-250.60165,689.60608,62.68438,-252.80302,609.26239,86.15015,-174.96719,636.90906
30,0.242,14.60381,-250.60165,689.60608,62.68438,-252.80302,609.26239,86.15015,-174.96719,636.90906
31,0.25,14.06173,-251.76254,689.35522,62.68438,-252.80302,609.26239,86.15015,-174.96719,636.90906
32,0.258,14.06173,-251.76254,689.35522,62.68438,-252.80302,609.26239,86.15015,-174.96719,636.90906
33,0.267,13.77273,-251.53249,688.54309,62.68438,-252.80302,609.26239,86.15015,-174.96719,636.90906
34,0.275,13.33123,-251.89699,688.38348,61.78275,-253.22142,608.70715,86.15015,-174.96719,636.90906
35,0.283,13.33123,-251.89699,688.38348,61.78275,-253.22142,608.70715,86.15015,-174.96719,636.90906
36,0.292,13.33123,-251.89699,688.38348,61.78275,-253.22142,608.70715,86.15015,-174.96719,636.90906
37,0.3,12.57178,-252.85559,689.04236,61.56469,-253.38339,607.97491,86.15015,-174.96719,636.90906
38,0.308,12.89716,-252.51274,688.02838,61.56469,-253.38339,607.97491,86.15015,-174.96719,636.90906
39,0.317,12.82402,-253.79608,688.00378,61.56469,-253.38339,607.97491,86.15015,-174.96719,636.90906
40,0.325,12.73418,-254.79906,687.5719,61.56469,-253.38339,607.97491,86.15015,-174.96719,636.90906
41,0.333,12.73418,-254.79906,687.5719,61.56469,-253.38339,607.97491,86.15015,-174.96719,636.90906
42,0.342,12.73418,-254.79906,687.5719,61.56469,-253.38339,607.97491,86.15015,-174.96719,636.90906
43,0.35,12.75187,-255.07851,687.97937,61.78548,-253.64474,607.72522,86.37012,-174.51768,636.6416
44,0.358,12.75187,-255.07851,687.97937,61.78548,-253.64474,607.72522,86.36414,-175.05846,636.78638
45,0.367,12.73418,-254.79906,687.5719,61.78548,-253.64474,607.72522,86.36414,-175.05846,636.78638
46,0.375,12.94378,-255.11049,687.91663,61.78548,-253.64474,607.72522,87.56261,-175.52574,636.13861
47,0.383,12.94378,-255.11049,687.91663,61.78548,-253.64474,607.72522,87.77574,-175.9679,635.78381
48,0.392,13.11749,-254.46623,687.48505,62.09757,-253.69182,607.22931,87.73748,-175.87202,635.80048
49,0.4,13.11749,-254.46623,687.48505,62.09757,-253.69182,607.22931,87.73748,-175.87202,635.80048
50,0.408,12.94378,-255.11049,687.91663,62.53708,-254.86823,606.47864,88.07738,-175.77968,635.15411
51,0.417,13.7981,-254.21762,687.52563,62.53708,-254.86823,606.47864,87.73748,-175.87202,635.80048
52,0.425,13.11749,-254.46623,687.48505,62.53708,-254.86823,606.47864,87.9391,-175.62747,635.4762
53,0.433,14.49094,-254.74925,687.47693,62.53708,-254.86823,606.47864,87.96455,-175.95201,635.23181
54,0.442,14.98449,-254.64758,687.55615,62.53708,-254.86823,606.47864,88.07738,-175.77968,635.15411
55,0.45,15.76476,-255.01442,688.21857,62.53708,-254.86823,606.47864,88.10087,-176.06378,634.92633
56,0.458,16.53951,-255.45847,688.27191,63.11879,-255.00909,606.30219,88.10087,-176.06378,634.92633
57,0.467,16.53951,-255.45847,688.27191,63.11879,-255.00909,606.30219,88.16026,-176.12093,634.99835
58,0.475,17.11824,-255.08531,688.39063,63.11879,-255.00909,606.30219,88.16026,-176.12093,634.99835
59,0.483,17.11824,-255.08531,688.39063,63.11879,-255.00909,606.30219,88.16026,-176.12093,634.99835
60,0.492,17.44686,-254.53981,687.86255,63.11879,-255.00909,606.30219,88.16026,-176.12093,634.99835
61,0.5,17.44686,-254.53981,687.86255,63.11879,-255.00909,606.30219,88.10087,-176.06378,634.92633
62,0.508,17.44686,-254.53981,687.86255,63.11879,-255.00909,606.30219,88.10087,-176.06378,634.92633
63,0.517,17.44686,-254.53981,687.86255,63.11879,-255.00909,606.30219,88.10087,-176.06378,634.92633
64,0.525,17.44686,-254.53981,687.86255,63.24427,-254.89322,606.70703,88.10087,-176.06378,634.92633
65,0.533,17.44686,-254.53981,687.86255,64.16071,-254.11217,606.68097,88.07738,-175.77968,635.15411
66,0.542,17.44686,-254.53981,687.86255,64.16071,-254.11217,606.68097,88.27889,-175.61203,635.0155
67,0.55,17.52597,-254.05162,687.36401,64.45653,-251.78258,605.59418,88.68763,-174.73813,634.91876
68,0.558,17.62961,-254.55234,686.87622,64.45653,-251.78258,605.59418,89.01065,-174.61159,634.46393
69,0.567,17.66485,-253.88994,686.25922,64.45653,-251.78258,605.59418,89.45937,-174.36899,634.57739
70,0.575,17.66485,-253.88994,686.25922,64.45653,-251.78258,605.59418,89.50887,-173.50276,634.65906
71,0.583,17.9616,-253.4635,686.09192,64.45653,-251.78258,605.59418,89.901,-172.98721,634.62616
72,0.592,17.9616,-253.4635,686.09192,64.45653,-251.78258,605.59418,89.901,-172.98721,634.62616
73,0.6,18.12082,-253.17886,685.59515,65.19818,-250.82449,605.21075,89.901,-172.98721,634.62616
74,0.608,18.12082,-253.17886,685.59515,66.06235,-250.18633,604.53699,89.98113,-172.98303,634.09698
75,0.617,18.12082,-253.17886,685.59515,66.11987,-249.76178,605.2467,89.67418,-172.44626,634.42249
76,0.625,18.32738,-253.08632,685.30365,66.06235,-250.18633,604.53699,89.94627,-170.75932,634.95477
77,0.633,18.32738,-253.08632,685.30365,66.06235,-250.18633,604.53699,89.94627,-170.75932,634.95477
78,0.642,18.32738,-253.08632,685.30365,66.06235,-250.18633,604.53699,89.96488,-172.35397,633.50525
79,0.65,18.32738,-253.08632,685.30365,66.06235,-250.18633,604.53699,89.91571,-170.59871,634.20032
80,0.658,18.32738,-253.08632,685.30365,66.06235,-250.18633,604.53699,89.91571,-170.59871,634.20032
81,0.667,18.32738,-253.08632,685.30365,66.06235,-250.18633,604.53699,89.91571,-170.59871,634.20032
82,0.675,18.32738,-253.08632,685.30365,66.06235,-250.18633,604.53699,89.92236,-170.59128,633.67224
83,0.683,18.32738,-253.08632,685.30365,66.61465,-249.50151,604.36041,89.6759,-170.54012,633.5705
84,0.692,17.92554,-251.22182,684.90332,66.67619,-248.90193,604.29633,89.28961,-170.52321,633.47864
85,0.7,17.92554,-251.22182,684.90332,66.12387,-249.58713,604.47308,89.47838,-170.62627,633.6239
86,0.708,17.92554,-251.22182,684.90332,65.75409,-249.96408,604.26019,89.17342,-170.94423,633.90283
87,0.717,17.92554,-251.22182,684.90332,65.75409,-249.96408,604.26019,88.80312,-170.87978,634.01709
88,0.725,18.03915,-251.25479,684.64386,66.12387,-249.58713,604.47308,88.52878,-170.61801,634.03833
89,0.733,17.92554,-251.22182,684.90332,65.4432,-249.85809,604.49908,88.52878,-170.61801,634.03833
90,0.742,17.17478,-250.741,684.86017,65.4432,-249.85809,604.49908,88.22997,-171.00983,633.87048
91,0.75,17.17478,-250.741,684.86017,65.75409,-249.96408,604.26019,88.40473,-170.50549,634.00531
92,0.758,17.17478,-250.741,684.86017,65.75409,-249.96408,604.26019,88.40473,-170.50549,634.00531
93,0.767,16.48779,-250.90442,684.52399,65.4432,-249.85809,604.49908,87.72223,-170.61703,633.99371
94,0.775,17.2888,-250.84447,684.58582,65.21331,-249.48512,604.06732,87.72223,-170.61703,633.99371
95,0.783,16.36561,-250.80478,684.81586,64.9025,-249.37903,604.30627,87.5474,-171.12135,633.85889
96,0.792,16.36561,-250.80478,684.81586,64.9025,-249.37903,604.30627,87.5474,-171.12135,633.85889
97,0.8,16.36561,-250.80478,684.81586,64.9025,-249.37903,604.30627,87.5474,-171.12135,633.85889
98,0.808,16.48779,-250.90442,684.52399,63.72282,-250.33987,604.40479,87.5474,-171.12135,633.85889
99,0.817,16.15466,-250.89496,685.05334,64.27458,-249.65398,604.2276,87.5474,-171.12135,633.85889
100,0.825,16.15466,-250.89496,685.05334,63.72282,-250.33987,604.40479,87.5474,-171.12135,633.85889
101,0.833,15.40375,-250.41577,685.01019,62.7767,-251.52666,604.63995,88.22997,-171.00983,633.87048
102,0.842,15.40375,-250.41577,685.01019,62.7767,-251.52666,604.63995,88.22997,-171.00983,633.87048
103,0.85,15.08828,-250.761,685.14417,62.7767,-251.52666,604.63995,87.83792,-171.52538,633.90338
104,0.858,14.9594,-250.59557,684.91962,62.7767,-251.52666,604.63995,88.22997,-171.00983,633.87048
105,0.867,14.9594,-250.59557,684.91962,62.7767,-251.52666,604.63995,87.68773,-171.28209,633.61658
106,0.875,14.9594,-250.59557,684.91962,62.07458,-251.67529,604.87592,87.68773,-171.28209,633.61658
107,0.883,14.9594,-250.59557,684.91962,62.07458,-251.67529,604.87592,87.95395,-171.10434,633.47919
108,0.892,14.9594,-250.59557,684.91962,62.07458,-251.67529,604.87592,87.78841,-170.99585,633.59351
109,0.9,14.64397,-250.94072,685.05353,62.07458,-251.67529,604.87592,87.78841,-170.99585,633.59351
110,0.908,14.64397,-250.94072,685.05353,62.07458,-251.67529,604.87592,87.78841,-170.99585,633.59351
111,0.917,14.64397,-250.94072,685.05353,62.07458,-251.67529,604.87592,86.83114,-171.08125,633.59265
112,0.925,14.32568,-251.14928,684.9306,62.07458,-251.67529,604.87592,86.69255,-171.10701,633.47095
113,0.933,13.90931,-250.91284,685.2851,62.07458,-251.67529,604.87592,86.69255,-171.10701,633.47095
114,0.942,13.90931,-250.91284,685.2851,62.07458,-251.67529,604.87592,86.69255,-171.10701,633.47095
115,0.95,13.64551,-250.77783,685.40039,62.07458,-251.67529,604.87592,86.69255,-171.10701,633.47095
116,0.958,13.64551,-250.77783,685.40039,62.07458,-251.67529,604.87592,86.69255,-171.10701,633.47095
117,0.967,13.64551,-250.77783,685.40039,62.07458,-251.67529,604.87592,86.48631,-171.38226,633.72296
118,0.975,13.64551,-250.77783,685.40039,62.07458,-251.67529,604.87592,86.26524,-171.8997,633.99719
119,0.983,13.64551,-250.77783,685.40039,62.07458,-251.67529,604.87592,86.48631,-171.38226,633.72296
120,0.992,13.64551,-250.77783,685.40039,62.07458,-251.67529,604.87592,86.48631,-171.38226,633.72296
121,1,13.64551,-250.77783,685.40039,62.07458,-251.67529,604.87592,86.48631,-171.38226,633.72296
122,1.008,13.64551,-250.77783,685.40039,62.07458,-251.67529,604.87592,86.48631,-171.38226,633.72296
123,1.017,13.64551,-250.77783,685.40039,62.07458,-251.67529,604.87592,86.43698,-171.56003,634.19531
124,1.025,13.95805,-250.62927,685.48163,62.07458,-251.67529,604.87592,86.43698,-171.56003,634.19531
125,1.033,13.95805,-250.62927,685.48163,62.07458,-251.67529,604.87592,86.52708,-171.70592,634.36743
126,1.042,13.95805,-250.62927,685.48163,62.07458,-251.67529,604.87592,86.71501,-171.50235,634.01685
127,1.05,13.95805,-250.62927,685.48163,62.07458,-251.67529,604.87592,86.71501,-171.50235,634.01685
128,1.058,13.95805,-250.62927,685.48163,62.07458,-251.67529,604.87592,86.52708,-171.70592,634.36743
129,1.067,13.95805,-250.62927,685.48163,62.07458,-251.67529,604.87592,86.52708,-171.70592,634.36743
130,1.075,13.95805,-250.62927,685.48163,62.07458,-251.67529,604.87592,86.71501,-171.50235,634.01685
131,1.083,14.23154,-250.7077,685.40564,62.07458,-251.67529,604.87592,86.71501,-171.50235,634.01685
132,1.092,14.23154,-250.7077,685.40564,62.07458,-251.67529,604.87592,86.52708,-171.70592,634.36743
133,1.1,14.23154,-250.7077,685.40564,61.87348,-251.39862,605.1889,86.52708,-171.70592,634.36743
134,1.108,14.23154,-250.7077,685.40564,62.07458,-251.67529,604.87592,86.71501,-171.50235,634.01685
135,1.117,14.23154,-250.7077,685.40564,61.87348,-251.39862,605.1889,87.0167,-170.82384,633.79358
136,1.125,14.55863,-252.06731,685.99371,62.13937,-251.7506,605.87268,86.83321,-171.10104,633.61401
137,1.133,14.73376,-251.21033,685.95154,62.13937,-251.7506,605.87268,86.57921,-171.37912,634.03101
138,1.142,15.05209,-252.57831,686.57965,62.13937,-251.7506,605.87268,86.79866,-170.84596,634.14368
139,1.15,15.05209,-252.57831,686.57965,62.74049,-251.09081,606.07959,86.57921,-171.37912,634.03101
140,1.158,15.05209,-252.57831,686.57965,63.64287,-250.47343,606.10358,86.83321,-171.10104,633.61401
141,1.167,15.05209,-252.57831,686.57965,63.64287,-250.47343,606.10358,87.05266,-170.56787,633.72675
142,1.175,14.6471,-252.47243,686.65149,63.41171,-250.90289,607.06976,86.61184,-171.05585,634.33014
143,1.183,14.6471,-252.47243,686.65149,63.38794,-251.82289,607.09503,86.61184,-171.05585,634.33014
144,1.192,14.6471,-252.47243,686.65149,62.77412,-251.42323,608.69098,85.97008,-171.20987,634.78418
145,1.2,14.59359,-251.8877,686.96808,62.38342,-252.56186,608.91351,85.97008,-171.20987,634.78418
146,1.208,14.59359,-251.8877,686.96808,63.28513,-251.94487,608.93713,85.97008,-171.20987,634.78418
147,1.217,14.50793,-250.74164,687.41937,62.38342,-252.56186,608.91351,86.09399,-171.32231,634.81726
148,1.225,14.50793,-250.74164,687.41937,62.38342,-252.56186,608.91351,86.09399,-171.32231,634.81726
149,1.233,14.50793,-250.74164,687.41937,62.38342,-252.56186,608.91351,86.18404,-171.4682,634.98938
150,1.242,14.50793,-250.74164,687.41937,62.38342,-252.56186,608.91351,86.11957,-171.22925,634.72363
151,1.25,14.50793,-250.74164,687.41937,62.38342,-252.56186,608.91351,85.58188,-170.99016,634.15662
152,1.258,14.50793,-250.74164,687.41937,62.38342,-252.56186,608.91351,85.58188,-170.99016,634.15662
153,1.267,14.34124,-250.62863,687.50519,62.38342,-252.56186,608.91351,85.46648,-171.11096,634.00317
154,1.275,14.34124,-250.62863,687.50519,62.38342,-252.56186,608.91351,85.96408,-171.11073,634.67804
155,1.283,14.10461,-250.8421,687.40771,61.87251,-252.04019,608.6673,85.58188,-170.99016,634.15662
156,1.292,14.10461,-250.8421,687.40771,62.38342,-252.56186,608.91351,85.46648,-171.11096,634.00317
157,1.3,14.10461,-250.8421,687.40771,61.87251,-252.04019,608.6673,85.46648,-171.11096,634.00317
158,1.308,14.10461,-250.8421,687.40771,61.87251,-252.04019,608.6673,85.84869,-171.23152,634.52466
159,1.317,14.10461,-250.8421,687.40771,61.87251,-252.04019,608.6673,85.96408,-171.11073,634.67804
160,1.325,14.34124,-250.62863,687.50519,61.87251,-252.04019,608.6673,85.96408,-171.11073,634.67804
161,1.333,14.34124,-250.62863,687.50519,61.87251,-252.04019,608.6673,85.96408,-171.11073,634.67804
162,1.342,14.34124,-250.62863,687.50519,61.87251,-252.04019,608.6673,85.96408,-171.11073,634.67804
163,1.35,14.34124,-250.62863,687.50519,62.38342,-252.56186,608.91351,86.11957,-171.22925,634.72363
164,1.358,14.34124,-250.62863,687.50519,62.38342,-252.56186,608.91351,86.11957,-171.22925,634.72363
165,1.367,14.34124,-250.62863,687.50519,62.74969,-252.00833,609.33716,86.03423,-170.99049,634.79834
166,1.375,14.34124,-250.62863,687.50519,62.74969,-252.00833,609.33716,86.03423,-170.99049,634.79834
167,1.383,13.75935,-250.69487,687.4787,62.74969,-252.00833,609.33716,86.03423,-170.99049,634.79834
168,1.392,13.75935,-250.69487,687.4787,62.74969,-252.00833,609.33716,86.03423,-170.99049,634.79834
169,1.4,14.4069,-250.52164,687.79755,62.74969,-252.00833,609.33716,86.03423,-170.99049,634.79834
170,1.408,14.4069,-250.52164,687.79755,63.65176,-251.39078,609.36066,86.03423,-170.99049,634.79834
171,1.417,14.4069,-250.52164,687.79755,63.65176,-251.39078,609.36066,86.03423,-170.99049,634.79834
172,1.425,14.4069,-250.52164,687.79755,63.65176,-251.39078,609.36066,86.03423,-170.99049,634.79834
173,1.433,14.33358,-250.72989,687.91144,63.65176,-251.39078,609.36066,86.03423,-170.99049,634.79834
174,1.442,14.4069,-250.52164,687.79755,63.65176,-251.39078,609.36066,85.8746,-169.84666,635.29596
175,1.45,14.4069,-250.52164,687.79755,63.65176,-251.39078,609.36066,85.8746,-169.84666,635.29596
176,1.458,14.33358,-250.72989,687.91144,63.65176,-251.39078,609.36066,85.8746,-169.84666,635.29596
177,1.467,14.33358,-250.72989,687.91144,63.65176,-251.39078,609.36066,85.8746,-169.84666,635.29596
178,1.475,14.4069,-250.52164,687.79755,63.65176,-251.39078,609.36066,86.3999,-169.23024,635.25122
179,1.483,14.4069,-250.52164,687.79755,63.65176,-251.39078,609.36066,86.3999,-169.23024,635.25122
180,1.492,14.33358,-250.72989,687.91144,63.65176,-251.39078,609.36066,86.3999,-169.23024,635.25122
181,1.5,14.13497,-250.58342,688.27441,63.65176,-251.39078,609.36066,86.3999,-169.23024,635.25122
182,1.508,14.33358,-250.72989,687.91144,63.65176,-251.39078,609.36066,86.3999,-169.23024,635.25122
183,1.517,14.13497,-250.58342,688.27441,63.65176,-251.39078,609.36066,86.3999,-169.23024,635.25122
184,1.525,14.13497,-250.58342,688.27441,63.65176,-251.39078,609.36066,86.3999,-169.23024,635.25122
185,1.533,14.13497,-250.58342,688.27441,63.65176,-251.39078,609.36066,86.3999,-169.23024,635.25122
186,1.542,14.17286,-250.33731,688.16321,63.65176,-251.39078,609.36066,86.3999,-169.23024,635.25122
187,1.55,14.13497,-250.58342,688.27441,63.65176,-251.39078,609.36066,86.3999,-169.23024,635.25122
188,1.558,14.13497,-250.58342,688.27441,63.65176,-251.39078,609.36066,86.3999,-169.23024,635.25122
189,1.567,14.17286,-250.33731,688.16321,63.65176,-251.39078,609.36066,86.3999,-169.23024,635.25122
190,1.575,14.17286,-250.33731,688.16321,63.65176,-251.39078,609.36066,85.8746,-169.84666,635.29596
191,1.583,14.17286,-250.33731,688.16321,63.65176,-251.39078,609.36066,85.8746,-169.84666,635.29596
192,1.592,14.17286,-250.33731,688.16321,63.65176,-251.39078,609.36066,86.44399,-170.81731,635.15192
193,1.6,14.17286,-250.33731,688.16321,63.65176,-251.39078,609.36066,86.44399,-170.81731,635.15192
194,1.608,14.17286,-250.33731,688.16321,63.95302,-251.63173,609.70953,86.44399,-170.81731,635.15192
195,1.617,14.17286,-250.33731,688.16321,63.65176,-251.39078,609.36066,86.44399,-170.81731,635.15192
196,1.625,14.17286,-250.33731,688.16321,63.65176,-251.39078,609.36066,86.44399,-170.81731,635.15192
197,1.633,14.17286,-250.33731,688.16321,63.65176,-251.39078,609.36066,86.27499,-171.34792,634.76929
198,1.642,14.41815,-250.23463,688.44891,63.65176,-251.39078,609.36066,85.8746,-169.84666,635.29596
199,1.65,14.17286,-250.33731,688.16321,63.65176,-251.39078,609.36066,86.24393,-171.8112,634.94995
200,1.658,14.17286,-250.33731,688.16321,63.95302,-251.63173,609.70953,86.27499,-171.34792,634.76929
201,1.667,14.17286,-250.33731,688.16321,63.95302,-251.63173,609.70953,85.91076,-172.00005,635.23267
