Frame#,Time,R.Forearm.x,R.Forearm.y,R.Forearm.z,R.Ulna.x,R.Ulna.y,R.Ulna.z,R.Radius.x,R.Radius.y,R.Radius.z
1,0,-4.5997,-141.47894,860.82825,62.40577,-85.21349,907.87653,22.30006,-84.48942,987.51532
2,0.008,-4.73822,-141.36586,860.65472,62.27148,-85.02684,907.70996,22.44231,-84.18431,987.20923
3,0.017,-4.61725,-141.05704,860.61597,62.57165,-84.4921,907.61273,22.70091,-84.12017,987.24731
4,0.025,-4.40401,-140.70769,860.87964,62.3954,-84.44009,907.5658,22.95984,-83.96726,986.76111
5,0.033,-4.40401,-140.70769,860.87964,62.86234,-84.29375,907.56061,22.85941,-83.33179,987.13556
6,0.042,-4.24326,-140.442,860.99268,62.95073,-84.43364,907.7522,23.09688,-82.97968,987.31262
7,0.05,-4.32036,-140.96536,861.62488,63.30442,-84.54949,907.71338,23.44065,-82.2636,987.64929
8,0.058,-4.32036,-140.96536,861.62488,63.43214,-83.6437,907.90784,23.81837,-81.94776,987.7392
9,0.067,-4.3217,-140.64288,862.3479,63.84975,-83.48071,908.37439,23.78163,-81.80338,987.92511
10,0.075,-4.3217,-140.64288,862.3479,63.83099,-83.58467,908.56073,24.02021,-81.56723,987.97394
11,0.083,-4.3217,-140.64288,862.3479,63.8901,-83.38383,908.67883,24.04372,-81.97782,988.39758
12,0.092,-3.98181,-140.58984,862.6629,64.01094,-83.02524,908.7403,24.07876,-81.8568,988.46277
13,0.1,-3.70823,-139.95296,862.60022,64.4356,-82.54523,909.65417,24.31829,-81.67623,988.52942
14,0.108,-3.70823,-139.95296,862.60022,64.46834,-82.34734,909.78265,24.4105,-81.81736,988.8786
15,0.117,-3.69092,-139.78694,862.71051,64.91492,-82.25281,910.31006,24.40285,-81.71455,989.06366
16,0.125,-3.6865,-139.93466,863.31512,65.10466,-81.84845,910.5025,24.17641,-81.78996,989.23444
17,0.133,-3.78191,-140.18666,863.42603,64.82309,-82.19335,910.79572,24.15714,-81.96368,989.54065
18,0.142,-2.92929,-139.53902,863.58673,64.70213,-81.89628,910.84161,24.83377,-81.86153,990.16467
19,0.15,-2.56583,-139.36227,864.49756,64.60057,-81.9503,910.89331,24.83377,-81.86153,990.16467
20,0.158,-2.82926,-139.4984,864.86084,64.72814,-82.07918,911.34442,24.83377,-81.86153,990.16467
21,0.167,-2.1604,-139.63535,864.95599,64.56928,-82.07793,911.76703,24.96687,-81.95775,990.19232
22,0.175,-2.27565,-140.02756,865.34076,64.56928,-82.07793,911.76703,24.79375,-81.71623,990.47919
23,0.183,-2.02753,-140.1236,865.37268,64.56928,-82.07793,911.76703,24.92685,-81.81245,990.50684
24,0.192,-2.02753,-140.1236,865.37268,64.36869,-82.39849,911.86713,25.05441,-81.71824,990.91412
25,0.2,-2.48248,-139.77975,865.46051,64.36869,-82.39849,911.86713,24.97,-81.14709,990.90039
26,0.208,-2.56906,-139.71851,865.76337,64.40017,-82.5134,912.02179,24.92259,-81.35682,991.19653
27,0.217,-2.57606,-139.50749,866.07074,64.20432,-81.53869,912.61835,24.88943,-81.46272,991.51306
28,0.225,-2.53638,-139.57927,866.26685,64.48833,-81.51836,913.02368,25.13835,-81.18648,991.65552
29,0.233,-2.37775,-139.6765,866.4082,64.48833,-81.51836,913.02368,25.41227,-80.92248,992.09149
30,0.242,-2.39728,-140.02626,866.73273,64.54016,-81.58483,913.17242,25.73555,-80.93282,992.2132
31,0.25,-2.08051,-140.32562,867.31738,64.69546,-81.6814,913.2937,25.94009,-80.83625,992.39197
32,0.258,-2.08051,-140.32562,867.31738,64.83146,-81.59621,913.47894,25.99635,-80.86342,992.71918
33,0.267,-1.92104,-140.17488,867.4953,64.87923,-81.75302,913.60773,26.06657,-81.00166,993.20801
34,0.275,-1.7281,-140.6053,867.84552,65.64624,-82.15039,914.12628,26.36794,-80.86835,993.39734
35,0.283,-1.7281,-140.6053,867.84552,66.18017,-82.55469,914.4837,26.48354,-81.0539,993.58154
36,0.292,-1.7818,-140.78076,867.98865,66.58382,-82.52606,914.49323,26.80555,-81.1153,993.60004
37,0.3,-1.7818,-140.78076,867.98865,66.78571,-82.51967,914.93079,26.76201,-81.16574,994.03845
38,0.308,-1.87903,-141.08141,868.32074,67.15644,-82.08198,915.45465,27.29407,-81.7125,994.31488
39,0.317,-1.26197,-141.10429,868.99518,67.32385,-82.23064,915.56488,27.42699,-82.32404,994.31873
40,0.325,-0.97763,-141.14249,869.37262,67.63194,-83.3075,916.00293,27.62988,-82.38474,994.57166
41,0.333,-0.97763,-141.14249,869.37262,68.2253,-83.84713,916.57727,28.25168,-83.21185,994.83862
42,0.342,-1.08983,-141.23326,869.38287,68.43949,-84.09592,916.89471,28.34161,-83.29583,995.14136
43,0.35,-0.36041,-141.31917,869.45819,68.48425,-84.16058,917.04431,28.98696,-83.37855,995.41553
44,0.358,-0.35728,-141.41118,869.87335,68.85409,-85.08391,917.09827,29.19609,-83.29379,995.56116
45,0.367,0.12848,-141.56236,870.06238,69.06802,-85.16656,917.10425,29.4878,-83.47366,995.68665
46,0.375,0.42098,-141.74664,870.28809,69.6787,-84.94449,917.68439,30.47052,-83.39705,996.31891
47,0.383,0.50469,-142.04514,870.68823,70.21752,-85.64806,917.73328,31.24414,-83.50847,996.50122
48,0.392,0.66589,-142.32689,870.69043,70.69343,-86.12097,917.92316,31.74536,-83.92071,996.99738
49,0.4,1.84847,-142.31853,870.92511,71.83446,-87.10407,917.14783,32.37767,-84.76537,997.06989
50,0.408,1.66488,-143.54512,871.61414,72.30756,-88.2275,918.23584,32.84825,-84.7584,997.28516
51,0.417,2.26667,-142.69786,871.58435,73.42049,-88.5461,918.62512,33.47739,-85.90232,998.1236
52,0.425,2.81735,-143.74724,872.26489,74.0192,-89.15717,919.07129,33.88971,-86.28246,998.73969
53,0.433,2.98014,-144.20094,872.37732,74.89466,-90.63939,919.97388,35.96246,-87.58139,999.15186
54,0.442,3.84009,-144.48975,872.7464,75.8801,-91.52425,920.8645,36.97083,-87.56563,999.67877
55,0.45,4.70883,-144.83669,873.50299,77.33206,-91.78327,921.81476,37.717,-87.90435,1000.5296
56,0.458,5.63395,-145.29764,874.04138,78.64178,-92.38326,922.04279,39.69484,-88.16945,1002.1275
57,0.467,5.57422,-145.57365,875.10229,80.4477,-93.7407,922.90479,40.38559,-88.47919,1002.10382
58,0.475,6.49844,-145.34692,876.09137,81.40578,-95.04019,923.3125,42.4477,-88.22654,1003.00391
59,0.483,7.202,-145.18347,876.98456,82.97166,-95.98764,924.46472,43.76053,-89.23488,1003.98969
60,0.492,8.84713,-145.57361,877.88324,84.47408,-97.29503,926.20032,45.0784,-90.35983,1005.46881
61,0.5,10.11652,-146.12646,879.22174,86.63573,-98.59702,927.60736,47.3525,-90.95089,1006.68231
62,0.508,11.30228,-146.63068,880.45935,88.50769,-100.00692,928.87335,49.42281,-90.82388,1007.54895
63,0.517,12.00133,-146.54536,882.052,90.93768,-100.72673,929.74548,51.5232,-90.4854,1008.91962
64,0.525,12.96257,-146.66608,883.31946,92.89725,-102.27955,930.75739,54.19676,-91.26358,1010.58295
65,0.533,14.76068,-146.54091,885.56476,94.87876,-103.8013,932.23175,56.47351,-91.02289,1011.39844
66,0.542,15.48575,-146.43785,886.94214,97.29476,-104.5138,933.76544,60.30573,-90.58678,1013.99164
67,0.55,18.06125,-148.04434,889.36792,99.76916,-106.37991,935.37695,62.27075,-91.68715,1015.22565
68,0.558,19.11826,-147.8316,891.62354,101.82446,-108.27989,936.54254,65.00598,-93.71442,1017.24719
69,0.567,20.91704,-148.15871,893.8363,105.03249,-108.9716,938.52191,68.55264,-93.13203,1018.56519
70,0.575,22.74168,-148.707,895.69995,107.83865,-109.73914,939.94574,71.13316,-93.15855,1020.42358
71,0.583,24.80184,-148.60233,897.52509,110.14058,-111.74662,941.37433,74.29686,-94.14063,1021.66467
72,0.592,26.45716,-148.92224,899.34088,112.40088,-113.20667,943.61719,77.07564,-93.97307,1023.83667
73,0.6,27.97811,-148.80029,901.8811,115.68763,-113.12683,945.54028,80.23021,-94.98212,1025.88098
74,0.608,29.77102,-149.40036,903.55548,118.0742,-115.7086,947.12372,82.37502,-95.42579,1027.58618
75,0.617,31.40169,-149.62822,905.16998,120.59187,-116.95507,948.65259,85.79958,-93.81772,1028.77429
76,0.625,33.65108,-149.67982,907.90527,122.71965,-117.72609,950.05017,88.82043,-94.40858,1030.81189
77,0.633,34.83575,-149.9472,909.3042,125.568,-120.01724,952.22943,91.44205,-95.66314,1032.71167
78,0.642,36.50656,-149.44203,911.87323,128.37846,-121.40677,953.82898,94.48044,-93.8426,1034.04663
79,0.65,37.89112,-149.88651,913.99054,129.52222,-123.31526,955.0921,97.19866,-95.13326,1035.04443
80,0.658,39.92391,-149.44505,914.70313,133.22214,-124.123,958.04816,100.27277,-94.94046,1036.95544
81,0.667,41.64795,-148.35101,917.91882,134.75177,-124.94006,958.60559,103.2169,-93.85069,1038.19019
82,0.675,43.47631,-148.39261,919.95544,137.4128,-126.55753,960.9585,105.14206,-94.05055,1039.76477
83,0.683,44.76014,-148.50056,922.03027,139.6214,-126.90817,962.80231,108.75745,-93.30743,1041.75854
84,0.692,46.42568,-147.88615,923.85223,141.9444,-129.1837,964.48981,110.77322,-92.69749,1042.73083
85,0.7,48.03046,-148.60893,926.44104,144.62051,-131.11588,965.88116,114.28725,-92.63921,1044.09631
86,0.708,50.16763,-149.54849,929.14117,146.46832,-131.11169,967.36432,117.00693,-90.93881,1045.81677
87,0.717,52.39874,-147.6609,930.55164,149.73573,-131.89673,969.55823,120.93239,-90.67298,1047.54932
88,0.725,54.30969,-147.35426,933.80359,151.95944,-133.57755,971.1123,125.20493,-90.48618,1049.61853
89,0.733,56.7088,-146.80234,935.90839,154.32394,-133.93622,972.63074,128.77025,-89.81778,1050.83887
90,0.742,58.4143,-146.3739,938.85089,156.90291,-134.65688,975.00696,132.43181,-89.59855,1052.62183
91,0.75,60.76799,-145.72963,941.87305,159.93567,-134.67761,977.12677,136.59331,-89.00266,1054.0249
92,0.758,62.98361,-145.15292,944.27075,163.20056,-136.06116,979.50592,140.3358,-88.26801,1055.50635
93,0.767,64.61169,-144.88902,947.51251,165.42314,-137.98558,980.58435,144.54494,-87.32358,1057.45837
94,0.775,67.05321,-144.65718,949.75458,168.16167,-139.33244,983.91223,148.45386,-86.27613,1058.70422
95,0.783,69.47046,-142.43668,952.00391,170.34363,-140.50374,986.76007,151.94492,-84.82423,1060.11182
96,0.792,70.35376,-141.54712,954.90784,172.3593,-141.10777,989.19043,155.61858,-84.37133,1061.95032
97,0.8,74.03239,-139.43071,958.74292,175.15549,-141.13527,991.90222,160.34792,-82.91242,1063.14185
98,0.808,75.66024,-138.46284,960.75092,176.67027,-142.29926,994.26385,164.62233,-81.85119,1064.53162
99,0.817,78.27503,-137.03661,964.37677,179.26605,-143.70479,996.76532,169.33308,-80.30399,1066.20081
100,0.825,80.00482,-137.12265,967.40289,182.9917,-142.27899,999.03119,172.58534,-79.10639,1067.77332
101,0.833,82.86893,-134.09911,970.45007,185.20444,-142.43916,1001.0307,177.03722,-77.07895,1069.47815
102,0.842,84.35468,-133.60399,973.69769,187.25243,-142.71082,1004.01642,181.54692,-76.08195,1070.20496
103,0.85,87.44669,-130.45918,976.50452,190.19662,-142.3589,1006.56207,186.28191,-74.08379,1070.96448
104,0.858,88.92783,-129.74506,979.93683,192.31197,-141.68874,1007.92029,190.42912,-71.80804,1071.90332
105,0.867,92.31014,-127.93005,983.3587,195.64024,-140.96269,1010.23871,195.44823,-70.0349,1072.33398
106,0.875,93.35513,-127.50096,985.96405,197.80072,-140.86186,1012.36298,200.6013,-67.91162,1072.50073
107,0.883,96.37425,-125.46039,989.57074,200.53723,-140.34854,1014.18469,204.43141,-66.37145,1072.94189
108,0.892,98.84141,-122.82695,992.04218,203.32213,-139.72203,1015.78003,209.6794,-63.90004,1073.04077
109,0.9,100.84826,-120.2354,995.40588,205.64021,-139.15909,1018.3316,214.62399,-61.9847,1073.31311
110,0.908,102.77107,-119.31635,998.88568,208.20552,-138.19391,1019.98291,219.03738,-60.03353,1072.99939
111,0.917,106.34821,-116.64188,1000.10907,210.60233,-137.80081,1021.12799,224.12155,-58.96526,1073.05347
112,0.925,108.48112,-114.18705,1002.61639,213.20216,-137.17538,1023.06732,228.84438,-56.47072,1073.22412
113,0.933,111.98901,-111.08436,1004.83185,215.01595,-136.42522,1024.80664,232.13629,-54.61661,1073.30957
114,0.942,113.28725,-108.98598,1007.63208,216.92146,-135.80916,1026.6488,237.0705,-54.31596,1072.96191
115,0.95,115.60664,-106.21316,1009.50861,219.12239,-135.76805,1028.30212,240.12889,-52.95733,1073.09595
116,0.958,117.33519,-103.95286,1010.81586,221.05147,-134.17848,1029.16211,244.25713,-51.462,1072.93335
117,0.967,119.29361,-101.58942,1013.33612,222.36386,-132.97795,1031.41235,248.44934,-49.58838,1071.59753
118,0.975,121.30156,-99.26807,1014.79633,224.16777,-131.56535,1033.56763,251.57564,-47.82505,1070.01111
119,0.983,123.29208,-97.14352,1016.78009,225.2415,-130.96645,1034.78284,255.09431,-46.13284,1069.49158
120,0.992,124.76138,-94.35453,1018.24133,226.86162,-129.3175,1036.1449,257.89044,-44.53485,1069.02124
121,1,126.45686,-92.01713,1019.53387,227.83134,-127.43414,1036.51697,261.32449,-42.09501,1068.88733
122,1.008,128.08029,-90.44647,1020.63733,229.19489,-126.49736,1037.7323,263.08231,-42.19016,1067.51868
123,1.017,129.24455,-88.49341,1021.92938,229.98021,-125.95035,1038.95178,266.31827,-40.50157,1067.4707
124,1.025,130.07556,-84.7676,1023.36597,231.0074,-125.10452,1040.33154,268.72809,-41.07359,1066.78918
125,1.033,131.83011,-82.93539,1024.48853,231.85632,-123.42454,1041.0592,269.90228,-38.67255,1065.43738
126,1.042,132.95256,-81.91637,1025.42664,233.0717,-122.77708,1041.97815,273.28171,-37.30857,1065.08411
127,1.05,134.05714,-79.78494,1026.29041,234.01558,-121.67551,1042.05432,274.59869,-36.341,1065.14685
128,1.058,134.60268,-77.7885,1027.00903,234.07246,-120.05235,1042.30505,275.90741,-36.1682,1064.92896
129,1.067,135.35704,-76.42431,1027.69885,235.57973,-118.27563,1042.90564,278.27014,-35.1104,1064.43384
130,1.075,136.79556,-74.64859,1028.46423,236.40956,-117.45274,1043.20935,278.77979,-31.55616,1064.71289
131,1.083,137.35001,-73.43462,1028.64294,236.54979,-116.76093,1043.09192,280.6163,-32.92332,1063.85852
132,1.092,137.79979,-71.40232,1029.09937,237.38104,-115.68013,1042.93677,280.82825,-32.54721,1063.44873
133,1.1,138.51714,-68.99078,1029.4884,238.03473,-114.36288,1042.68958,282.88553,-31.50826,1061.71021
134,1.108,138.54507,-67.98034,1029.51025,238.5162,-113.23825,1042.89648,283.93481,-31.69577,1061.19629
135,1.117,139.40688,-66.98636,1029.5144,238.79466,-111.696,1042.97363,284.85712,-30.13907,1061.56787
136,1.125,140.0499,-64.88347,1029.61743,238.60657,-110.39819,1042.74695,286.11127,-29.69425,1061.01208
137,1.133,140.63086,-63.40302,1030.23645,239.01396,-109.41699,1042.93787,286.24948,-27.60731,1061.21399
138,1.142,140.78119,-62.39882,1030.37939,239.13884,-109.02464,1042.78625,286.75665,-27.09755,1061.29065
139,1.15,141.26273,-60.98021,1030.70947,240.07372,-108.00187,1042.5177,287.16833,-26.13625,1060.85498
140,1.158,141.67235,-59.66142,1031.16028,240.63066,-107.05827,1042.32532,287.22116,-25.76678,1060.91882
141,1.167,142.92346,-57.77002,1031.85547,241.03828,-106.31454,1042.19189,288.66864,-24.41329,1060.54797
142,1.175,142.36191,-55.91515,1032.20764,241.37059,-105.30637,1042.19922,289.88815,-23.70365,1060.63989
143,1.183,142.34196,-55.092,1032.7157,241.78259,-103.95966,1042.43921,290.62451,-23.20519,1060.26599
144,1.192,142.66373,-53.30353,1033.14209,241.47153,-102.37555,1043.04004,291.29736,-22.75796,1060.17285
145,1.2,143.06975,-52.35876,1032.88757,241.65131,-101.31133,1043.39026,292.87225,-22.88187,1059.62073
146,1.208,143.28151,-51.88085,1033.15247,241.67226,-100.29334,1043.03528,293.23944,-22.52438,1058.01685
147,1.217,144.55489,-48.15459,1033.70813,241.60535,-99.47456,1043.00085,294.02646,-23.22649,1057.06433
148,1.225,144.75345,-47.13975,1033.81836,242.40652,-98.65981,1043.36023,294.80032,-21.58383,1056.53931
149,1.233,145.23688,-46.6195,1034.02405,242.44022,-96.86668,1043.48425,294.73706,-17.35269,1056.97681
150,1.242,145.74338,-45.29762,1034.58948,242.61806,-96.02366,1043.87219,295.43576,-16.64992,1056.85181
151,1.25,146.51265,-44.52749,1034.78931,242.45308,-94.87514,1044.30383,295.68857,-16.31077,1056.6239
152,1.258,146.06111,-43.16518,1035.29614,242.74191,-94.0164,1044.61072,296.12839,-16.52539,1056.44922
153,1.267,146.67566,-41.45212,1035.39331,242.80949,-93.74539,1045.35571,296.34943,-16.35925,1056.19409
154,1.275,146.90726,-40.33013,1035.40186,242.97523,-93.84415,1045.27893,296.68521,-13.78191,1056.39429
155,1.283,146.45363,-39.93012,1035.58936,243.07103,-93.38009,1045.42944,296.64502,-12.95054,1056.10352
156,1.292,146.77246,-39.20898,1035.71729,243.02748,-92.99774,1045.40344,297.13083,-12.38905,1056.18445
157,1.3,146.6853,-38.52718,1035.73291,242.84868,-92.87865,1045.51062,297.97354,-13.1777,1056.37842
158,1.308,147.21977,-38.09309,1035.94385,243.62338,-90.71125,1045.28406,298.63251,-12.05939,1056.58862
159,1.317,147.233,-37.07524,1036.46948,243.71295,-90.03156,1045.56616,298.54935,-12.13431,1056.69763
160,1.325,147.62836,-36.31459,1036.41882,243.38698,-88.85425,1046.021,298.55301,-10.79538,1056.98462
161,1.333,147.24872,-35.47632,1036.83191,243.49825,-88.92355,1046.81494,298.76443,-11.56952,1056.70459
162,1.342,147.11162,-35.36926,1036.93188,243.42686,-89.07506,1047.16626,298.51205,-11.90866,1056.9325
163,1.35,146.84238,-34.92955,1037.09229,243.87982,-88.45785,1047.52539,298.70325,-9.54558,1057.81677
164,1.358,147.47743,-34.17182,1036.79419,243.59599,-88.06754,1047.67603,298.70325,-9.54558,1057.81677
165,1.367,147.56659,-32.35975,1037.11353,243.73778,-87.17217,1048.38086,298.62473,-8.71053,1058.13257
166,1.375,147.33469,-32.32811,1037.07813,243.78459,-86.51534,1049.40308,298.60144,-8.06629,1058.22168
167,1.383,147.39442,-31.88771,1037.69141,243.62564,-85.67233,1049.62329,298.01895,-8.33054,1058.69104
168,1.392,147.93521,-31.40612,1038.58447,243.46515,-85.1604,1049.64111,297.73956,-6.52923,1059.10168
169,1.4,147.92424,-30.85027,1038.62146,243.11455,-84.0375,1049.32666,298.3096,-5.54539,1059.11572
170,1.408,147.63992,-30.83175,1038.48486,242.99431,-82.67702,1049.70862,297.93048,-4.07251,1059.40027
171,1.417,147.53745,-30.26459,1038.45923,243.37378,-82.57585,1050.40417,297.44067,-3.63685,1060.14392
172,1.425,147.28751,-29.08689,1038.69299,242.44984,-81.2051,1051.2583,297.04068,-2.5096,1060.62744
173,1.433,147.28751,-29.08689,1038.69299,242.6787,-80.60107,1051.70056,296.86542,-1.67114,1060.85547
174,1.442,147.1954,-27.58494,1039.25256,242.71188,-80.07675,1051.72107,296.85675,-0.75908,1061.33276
175,1.45,146.98889,-27.11165,1039.20349,242.72797,-79.82207,1051.68713,296.81131,-0.21429,1061.33411
176,1.458,147.25595,-26.63842,1039.08533,242.8215,-79.67349,1051.93835,297.10559,0.50419,1061.55505
177,1.467,147.46922,-26.30842,1039.13916,243.02676,-79.07076,1052.09961,296.9751,1.10781,1061.6676
178,1.475,147.81416,-25.73806,1039.20093,243.05788,-77.02799,1052.33789,296.59192,1.41818,1061.88477
179,1.483,147.52568,-24.48192,1039.73987,243.5123,-75.51847,1052.84082,297.18921,2.43009,1062.76709
180,1.492,146.8752,-23.80092,1040.01343,243.46301,-74.73716,1053.25598,297.18921,2.43009,1062.76709
181,1.5,146.39134,-24.23865,1040.1604,243.68881,-74.65091,1053.15833,296.52576,3.39083,1062.67419
182,1.508,146.92525,-23.71186,1040.37854,243.62659,-74.53688,1053.66711,296.40259,3.49045,1062.59253
183,1.517,147.35988,-21.88626,1040.88098,243.30818,-74.07271,1053.73315,296.73734,5.07123,1062.27441
184,1.525,147.18156,-21.25278,1040.90942,243.45319,-73.68632,1054.08618,297.22693,5.68824,1062.36011
185,1.533,147.06424,-21.84058,1041.27637,243.90082,-73.63651,1054.1106,297.03363,6.23495,1062.71313
186,1.542,147.06424,-21.84058,1041.27637,243.90082,-73.63651,1054.1106,297.35001,5.58876,1062.44165
187,1.55,146.97044,-21.23316,1041.28955,243.62878,-73.4315,1054.25232,297.48959,6.64936,1062.75867
188,1.558,147.26462,-21.21374,1041.44983,243.73497,-73.12428,1054.44067,297.48019,5.92888,1062.65503
189,1.567,147.3987,-21.24111,1041.48096,243.73497,-73.12428,1054.44067,297.39948,5.97989,1063.22717
190,1.575,146.96176,-20.58902,1042.23706,243.74712,-72.99479,1054.55713,296.72797,6.75697,1063.68701
191,1.583,147.04126,-20.57899,1042.82166,243.88242,-72.83054,1054.62061,297.05014,6.72857,1064.39624
192,1.592,147.39688,-20.85769,1042.36816,244.1434,-72.35334,1054.98242,297.05014,6.72857,1064.39624
193,1.6,148.05482,-20.82498,1042.81909,244.62758,-72.40263,1055.39636,297.94699,6.71821,1065.54395
194,1.608,147.55377,-20.64297,1043.23657,244.4868,-71.70788,1055.28308,298.07959,6.45469,1065.9176
195,1.617,147.55377,-20.64297,1043.23657,244.57408,-73.03271,1055.6615,298.1279,6.31472,1066.05017
196,1.625,148.18982,-21.05691,1042.83545,244.70352,-73.14214,1055.80225,297.76129,6.17143,1066.49097
197,1.633,148.18982,-21.05691,1042.83545,244.44124,-73.05534,1055.87524,297.76129,6.17143,1066.49097
198,1.642,147.6685,-20.86912,1043.26807,244.44124,-73.05534,1055.87524,297.90457,6.25268,1066.9093
199,1.65,147.37001,-20.92864,1043.60962,244.54291,-72.56989,1055.55225,297.91409,6.81418,1067.20435
200,1.658,147.37791,-20.8167,1044.05786,244.5977,-72.79599,1055.68262,298.12714,6.43501,1067.46082
