Frame#,Time,L.Forearm.x,L.Forearm.y,L.Forearm.z,L.Ulna.x,L.Ulna.y,L.Ulna.z,L.Radius.x,L.Radius.y,L.Radius.z
1,0,224.22337,322.11987,816.64703,255.23387,351.07614,733.64343,302.88773,267.67456,751.19702
2,0.008,225.53108,322.08063,816.43561,256.18015,351.20901,733.98846,302.99628,267.58728,751.26147
3,0.017,226.18008,322.91718,816.61963,256.76126,351.59741,734.19238,303.24808,267.37201,751.2041
4,0.025,227.7355,322.70099,816.2627,257.73581,352.79968,734.15723,303.52185,267.40622,750.74005
5,0.033,228.27623,323.65863,816.29108,257.73581,352.79968,734.15723,303.72095,267.29919,749.6828
6,0.042,228.38931,323.24115,816.23993,257.45117,352.38858,733.72437,303.15839,266.89536,748.76727
7,0.05,228.44385,323.01981,815.56519,257.2345,352.43991,733.72784,303.23535,266.43829,748.01013
8,0.058,228.45143,323.00201,814.89923,256.8909,352.63904,733.48285,301.86115,266.09674,746.94843
9,0.067,227.50778,323.1265,814.83362,256.73621,351.73203,732.41187,300.78546,265.44376,745.50739
10,0.075,227.75212,321.44373,813.01892,256.32867,351.39734,731.41266,300.29437,265.75214,744.73248
11,0.083,227.51047,321.01691,812.7663,254.45309,351.43323,730.44196,298.50839,264.75864,743.95923
12,0.092,227.44269,320.36615,812.50946,254.23381,351.13312,729.92151,297.85651,263.85257,743.51917
13,0.1,225.40411,319.65811,811.99884,254.45515,351.01651,729.75262,297.49155,263.01202,743.2428
14,0.108,225.07507,319.86145,811.34271,255.25864,350.15329,729.09369,296.65698,263.30692,742.64246
15,0.117,225.06471,319.45172,810.24628,255.21614,349.60254,728.65021,296.16138,262.83737,742.47076
16,0.125,224.11649,319.1658,809.39398,255.36414,349.55804,728.31635,296.16138,262.83737,742.47076
17,0.133,223.63219,318.54092,809.08844,255.78632,349.4603,728.33221,296.22327,262.01685,742.29547
18,0.142,222.6796,318.77591,809.80981,255.78632,349.4603,728.33221,296.5473,262.14255,742.45557
19,0.15,222.6796,318.77591,809.80981,256.20856,349.36273,728.34808,297.00803,261.85791,742.36298
20,0.158,222.6796,318.77591,809.80981,256.20856,349.36273,728.34808,297.51056,262.40527,742.47528
21,0.167,222.89923,318.67657,809.55133,256.68729,349.23132,728.61566,297.77411,261.91608,742.83679
22,0.175,224.12169,318.50992,809.16162,256.68729,349.23132,728.61566,298.69528,261.89508,743.09613
23,0.183,225.14166,318.694,809.20618,257.15118,349.33054,728.63672,300.14529,262.92072,743.85083
24,0.192,226.5007,318.39621,809.81683,257.88974,349.92746,728.73309,301.89816,262.8222,743.74554
25,0.2,227.24673,319.02408,810.74115,258.3168,349.79715,728.94025,302.74112,264.5639,744.41223
26,0.208,227.94118,319.59262,811.15942,258.65314,349.71548,729.18225,303.24396,264.73892,745.21967
27,0.217,228.39799,319.99088,811.71185,258.85364,349.65082,729.40118,304.22003,264.88361,745.77942
28,0.225,228.70706,320.32474,812.13641,259.30197,349.75967,729.4986,304.99332,264.79028,746.13147
29,0.233,229.45779,320.84698,812.67749,260.78949,349.81836,730.63965,305.98071,265.16339,746.53571
30,0.242,230.34583,321.66266,812.9386,261.35379,350.4277,730.84174,306.91098,264.81015,747.17529
31,0.25,230.65225,321.54288,813.02411,261.67026,350.7735,731.00958,306.86844,264.86301,746.93097
32,0.258,231.94789,320.6059,813.11804,262.00696,351.25598,730.98999,306.96384,264.93573,746.87958
33,0.267,232.276,320.79727,813.2403,262.00696,351.25598,730.98999,307.07605,265.17139,746.75964
34,0.275,232.44984,320.69583,813.13824,262.40753,351.3779,730.67432,306.89896,265.54184,746.30817
35,0.283,232.20004,320.84341,813.09583,262.33188,351.48846,730.58197,306.85681,265.86176,746.06635
36,0.292,232.15997,321.1835,812.88379,261.75134,350.47577,730.03271,306.53586,265.77771,745.60785
37,0.3,232.45085,320.9671,812.81067,260.76651,349.36249,729.34375,305.6731,265.6781,745.36774
38,0.308,232.29654,321.01862,812.64056,259.76685,349.55655,728.86078,305.03229,264.64951,744.89612
39,0.317,231.98932,321.16205,812.49823,259.20032,349.74588,728.51959,303.86011,263.79205,744.48242
40,0.325,230.62239,319.54733,811.59296,259.20032,349.74588,728.51959,302.55185,262.89529,743.72412
41,0.333,230.03125,318.37405,810.841,258.99411,349.52722,728.46588,302.25397,261.90823,743.45111
42,0.342,228.73523,318.15228,810.784,258.93417,348.85852,728.21613,301.30161,261.12399,742.92413
43,0.35,228.4321,317.64764,810.44781,259.28268,348.66879,728.32648,300.73303,260.3981,742.68024
44,0.358,228.27727,317.33331,809.96106,260.0011,347.72598,728.92712,300.55563,260.10709,742.69281
45,0.367,227.96751,317.02145,809.86053,260.53543,348.2691,729.09326,300.79529,259.83032,743.0105
46,0.375,227.81015,316.68591,809.81958,261.28445,348.13678,729.29309,300.7157,259.66956,743.2077
47,0.383,227.38513,316.34998,810.20911,261.46533,348.05603,729.35968,301.38474,259.6665,743.80792
48,0.392,227.31711,316.66943,810.82782,261.96045,348.1326,729.34277,301.57898,260.21527,744.85876
49,0.4,227.41071,316.38977,811.3559,261.7641,348.45154,730.18909,302.65329,260.29102,745.95667
50,0.408,227.82387,316.71634,812.17902,261.72617,349.02057,730.4325,302.37039,260.87924,747.05359
51,0.417,227.58379,316.66919,812.72882,261.72617,349.02057,730.4325,303.13425,260.81409,747.77795
52,0.425,227.48465,318.24005,814.06567,261.9913,348.99673,731.21582,303.87692,261.1478,748.33173
53,0.433,228.72969,318.23151,813.66663,261.52396,348.59088,732.38812,304.39087,261.05362,749.06696
54,0.442,229.71268,318.11591,814.50586,261.23868,349.06137,733.03149,305.7999,262.0686,750.16754
55,0.45,230.10712,318.44714,814.85638,261.0098,349.02011,733.66357,306.23685,262.22375,750.88971
56,0.458,230.22461,318.86093,816.04865,261.67642,349.55682,734.22083,306.3768,262.65817,751.62756
57,0.467,230.97517,318.93524,816.42456,262.2012,350.10498,734.5293,306.82864,262.90216,752.10272
58,0.475,231.45013,319.35999,816.90344,262.46808,350.67166,735.35577,306.85843,262.80536,752.17499
59,0.483,231.56273,319.19275,816.99518,262.69897,350.61707,735.5368,306.80838,263.33322,752.05853
60,0.492,231.56273,319.19275,816.99518,263.08682,350.52573,735.5307,306.81073,263.5376,751.90588
61,0.5,231.56273,319.19275,816.99518,262.91058,350.5451,735.55585,306.49332,263.47556,751.26245
62,0.508,231.23921,319.39044,816.91492,262.53845,350.63943,735.55511,306.37344,263.06555,750.73224
63,0.517,231.56143,319.33472,816.91309,262.30756,350.694,735.37408,305.86008,262.68073,749.43781
64,0.525,231.23711,319.49286,816.59216,261.95044,350.6954,734.92834,303.87415,261.93216,748.7132
65,0.533,230.35181,319.79251,815.6546,260.62793,349.7308,733.64093,303.26862,262.2674,748.34143
66,0.542,229.62219,318.68234,815.22266,259.60394,348.99509,733.21198,301.59244,260.87912,747.42749
67,0.55,228.80121,318.31406,814.37012,259.03342,349.34174,732.70966,301.19077,261.05664,746.94244
68,0.558,228.48964,318.42773,813.74683,258.23178,349.59689,731.6087,299.52319,260.58844,746.49591
69,0.567,227.58528,317.10718,812.93378,258.01199,349.16464,730.85284,298.47321,260.32242,745.59558
70,0.575,226.9566,316.77863,812.51178,257.63245,348.04688,730.59583,297.59384,260.50638,745.21191
71,0.583,225.95146,317.02567,812.41962,257.41544,348.0983,730.5993,297.37521,260.28961,744.93738
72,0.592,224.3918,317.91046,812.0014,256.89072,347.93332,730.76147,296.74292,259.7858,744.86865
73,0.6,222.15448,317.67368,811.99927,256.78455,347.68246,730.81726,296.57669,259.64899,745.52655
74,0.608,222.64743,315.79987,811.94781,256.78455,347.68246,730.81726,296.23984,259.19614,746.07532
75,0.617,222.35548,315.61554,811.96088,256.28741,347.41467,731.07495,296.39526,259.71497,746.47626
76,0.625,222.27866,315.54636,812.00464,255.94852,347.0311,731.82886,296.41681,259.34671,746.94098
77,0.633,222.33795,315.81863,812.1546,256.28503,347.31613,732.68475,296.69391,259.66763,747.57336
78,0.642,222.31102,316.13525,812.42981,256.45773,347.30844,733.1012,297.2403,259.7066,748.17023
79,0.65,222.70377,317.01202,813.11816,256.62851,348.07175,731.71899,298.33121,260.35559,748.9845
80,0.658,221.96666,318.34338,814.74274,256.7594,348.00037,733.47412,298.66074,260.28217,749.60834
81,0.667,223.43475,318.69043,814.92114,257.01898,347.99286,733.70471,299.29556,261.71304,750.32025
82,0.675,223.67819,319.13647,815.17542,256.9397,348.71957,734.3924,300.14084,261.70221,752.17261
83,0.683,223.89957,319.74704,816.7926,257.14627,349.37866,735.07043,300.96051,262.45807,752.89484
84,0.692,223.31964,320.14102,818.63098,257.33615,349.23044,735.51617,301.59601,262.31772,752.92242
85,0.7,225.05951,320.43173,818.18427,257.63412,349.23419,736.22461,301.74622,264.00494,754.35339
86,0.708,225.12189,320.45398,818.52777,258.56628,349.71075,736.81689,302.00238,264.36951,754.6532
87,0.717,225.42276,320.94455,819.16998,258.50574,349.61609,737.72815,302.02774,264.61301,754.81958
88,0.725,225.70073,320.78864,819.19,258.51187,350.19601,738.20001,302.20914,264.75653,755.23016
89,0.733,225.76302,321.82742,819.39691,258.28238,350.20566,738.44476,302.02576,264.89429,754.93958
90,0.742,225.88443,322.27182,819.63782,258.10437,350.52072,739.01135,301.23584,264.6651,754.85974
91,0.75,225.96997,322.30823,819.30212,258.14566,350.25519,738.71069,300.45499,264.12219,754.15723
92,0.758,225.20816,321.64584,819.32745,257.61594,349.87335,738.67834,299.30063,263.15253,753.72815
93,0.767,224.80704,321.57761,819.19995,257.43311,349.8873,738.1543,298.73581,262.86774,753.41779
94,0.775,224.32289,321.12543,818.94202,257.07166,350.46243,737.30475,297.67715,263.09918,753.08466
95,0.783,223.01895,321.48981,819.57983,256.27634,350.19037,736.94165,297.51709,262.86874,752.96265
96,0.792,222.83096,320.83014,819.31732,255.93739,350.01611,737.14398,296.2034,262.54794,752.7569
97,0.8,223.33189,319.54251,817.98193,255.22935,349.77805,737.04938,295.68005,262.27628,752.84125
98,0.808,222.16415,319.30048,817.65863,255.31839,349.38748,736.67664,295.53339,261.33603,753.02966
99,0.817,220.30952,319.16693,817.56458,255.17215,349.67072,737.15796,294.75583,261.15796,753.35046
100,0.825,219.44299,318.60083,817.72516,254.96048,349.20471,736.98413,294.04391,260.83078,753.2157
101,0.833,218.59099,318.53397,818.49731,254.94427,349.06985,735.88361,293.728,259.86563,753.63647
102,0.842,218.32207,318.51245,818.83105,254.57637,348.60272,736.11243,294.28513,259.80798,753.98096
103,0.85,217.92642,318.34277,818.78534,254.87016,349.24069,736.89941,294.48267,260.67041,754.11005
104,0.858,218.04018,318.55215,818.89587,256.2215,348.46884,738.10547,294.54062,260.67065,754.74243
105,0.867,219.08356,318.20145,818.06152,256.66022,349.00839,738.34412,294.7468,260.45575,755.40466
106,0.875,219.01382,318.68784,818.66656,256.67197,349.68207,739.42242,295.37091,261.23267,756.5083
107,0.883,218.8643,318.22461,819.61627,256.76208,350.13132,740.03314,295.88928,262.06357,757.94476
108,0.892,218.48746,318.00775,820.70551,256.41705,350.121,739.39514,296.88965,262.00198,759.19464
109,0.9,219.4005,319.19986,821.48767,256.51389,350.23932,739.51447,297.1026,262.29468,759.38409
110,0.908,219.71237,320.50864,822.12256,257.13428,350.20563,740.58661,298.11981,262.6846,760.63641
111,0.917,220.2323,321.01035,822.63696,257.01147,350.26117,741.13593,298.51358,262.46283,760.66827
112,0.925,220.70776,320.92709,823.27234,257.43719,350.49847,741.39606,298.58261,262.32428,761.42041
113,0.933,221.08478,320.47229,824.56702,256.92624,349.65976,742.87213,298.82083,262.16489,761.63464
114,0.942,221.05431,320.81781,824.573,256.86078,349.8186,744.13953,298.82083,262.16489,761.63464
115,0.95,221.66989,320.7504,824.79327,256.69342,348.99701,744.54828,298.70935,261.92825,761.75391
116,0.958,222.12386,320.54599,824.82556,256.89313,348.93243,744.76703,298.70935,261.92825,761.75391
117,0.967,221.64941,320.6889,824.76099,256.61963,348.9791,745.0213,298.70935,261.92825,761.75391
118,0.975,222.16612,320.32327,825.10144,256.41132,349.18384,744.52722,298.11407,262.28479,761.54089
119,0.983,222.00107,320.54633,824.85431,256.41132,349.18384,744.52722,297.76291,261.94696,760.81372
120,0.992,221.25351,320.4053,824.43445,256.27225,349.40295,744.00055,296.79922,261.11591,760.3396
121,1,220.9097,320.26849,824.42804,255.49759,348.44577,743.04443,295.38736,260.27695,760.17786
122,1.008,220.20358,320.35889,822.84753,253.81879,348.34695,741.59613,294.20764,260.1149,758.76874
123,1.017,219.39642,318.5473,822.38232,253.82014,348.49118,740.89728,293.33365,259.35892,757.53656
124,1.025,217.99622,317.90659,822.50262,253.25529,348.44553,740.53308,292.03934,259.31128,756.95868
125,1.033,218.01915,317.74197,820.97864,252.32524,347.26657,740.66162,291.40698,258.59836,756.2514
126,1.042,218.01584,317.50406,820.70868,252.53806,346.65994,739.19672,290.5882,258.43842,756.14642
127,1.05,217.15909,317.35196,819.9884,252.31334,346.45932,739.0791,290.06213,258.19708,755.7442
128,1.058,216.56958,317.02115,820.03033,252.31334,346.45932,739.0791,289.4454,257.66772,755.97577
129,1.067,216.2226,316.27377,819.71332,252.10522,346.52811,739.06305,289.7674,257.51056,755.81921
130,1.075,215.31541,316.24326,818.54388,252.10522,346.52811,739.06305,289.7674,257.51056,755.81921
131,1.083,214.77983,316.49878,818.487,252.10522,346.52811,739.06305,289.58942,258.01065,756.09546
132,1.092,214.72589,316.99109,818.64343,252.27049,346.77005,739.09869,290.11514,258.72836,756.72339
133,1.1,214.55702,317.47159,818.6369,252.04855,346.88818,739.26764,290.63919,258.41245,756.94611
134,1.108,214.35165,317.79279,819.45581,252.03358,346.8923,739.45013,291.27194,258.92941,757.94177
135,1.117,214.96477,317.97791,820.43817,252.02348,347.0336,739.61084,291.72888,260.04449,759.19006
136,1.125,215.09209,318.27103,820.44812,251.75212,348.38641,740.20245,292.07101,259.97604,759.63544
137,1.133,215.43248,319.31689,821.39819,252.00224,348.53009,740.74451,293.24622,259.95648,760.57001
138,1.142,215.60178,319.89493,821.48279,252.21017,348.62033,741.00464,293.95795,261.82895,760.70557
139,1.15,216.08488,320.26956,822.11914,252.35042,348.96359,741.03333,294.55035,261.92435,760.4411
140,1.158,216.9431,320.60269,822.45013,252.24037,348.91211,742.22083,295.15286,262.41083,760.65729
141,1.167,217.96698,320.40546,824.04779,252.96599,349.64819,742.41193,295.6814,263.32904,761.05438
142,1.175,218.40916,320.61908,824.48737,253.56134,350.28354,743.41321,296.3782,264.26651,761.28497
143,1.183,219.2016,320.91907,824.53888,253.71086,350.53,743.63092,296.3782,264.26651,761.28497
144,1.192,219.48622,320.86972,824.81604,254.00587,350.32819,743.95844,296.69617,264.10663,761.16058
145,1.2,218.99118,321.7821,824.59772,254.15002,350.78787,743.80981,296.69617,264.10663,761.16058
146,1.208,219.94511,321.34949,824.61865,253.97546,351.16,744.47961,296.63528,264.57159,760.51038
147,1.217,219.58218,322.16174,823.39203,254.17296,351.02548,744.1358,295.89127,264.52341,760.26416
148,1.225,219.63264,322.0766,823.62335,254.1102,350.84579,743.57605,295.01968,263.40277,758.75079
149,1.233,219.87474,321.67242,823.25806,253.0448,350.3793,742.69922,294.84839,263.93503,758.08539
150,1.242,218.78969,322.18689,823.5675,252.14195,351.31714,741.29144,293.32239,263.4509,756.39575
151,1.25,218.79291,321.59186,821.52301,251.42723,351.47766,740.57306,292.2688,263.25433,755.62323
152,1.258,218.14923,322.08167,820.8811,250.63142,351.96536,740.12958,290.90756,262.98752,754.7124
153,1.267,217.68295,319.84753,820.04315,249.83864,350.48892,739.51044,290.10434,262.18518,753.71332
154,1.275,217.57938,319.37878,819.75183,249.83226,350.44705,739.2771,289.91452,261.54779,753.55023
155,1.283,216.11209,320.95999,818.64087,249.6286,349.73132,738.52209,289.83267,261.37589,753.12701
156,1.292,215.01341,319.91965,817.68256,249.56439,350.01224,738.19855,289.73813,262.09451,752.74078
157,1.3,214.84311,319.95294,817.37384,249.2744,350.01718,737.89441,290.61252,262.26239,753.10181
158,1.308,214.81683,319.71802,817.23438,250.26422,350.12994,737.37494,291.12897,262.50827,753.32037
159,1.317,214.92181,319.97971,817.13611,250.91718,350.44318,737.35724,292.048,262.54163,753.19055
160,1.325,215.11981,319.98358,816.9173,251.77209,350.83774,737.23376,292.87643,262.76056,753.56702
161,1.333,216.50162,319.54886,816.60974,252.19449,350.73953,737.24939,293.83597,263.28708,754.99707
162,1.342,216.88983,320.20569,816.78943,252.7868,350.67776,737.44098,295.6416,264.2612,754.84747
163,1.35,218.51662,319.58856,817.25806,252.7868,350.67776,737.44098,296.2998,265.24426,755.40851
164,1.358,219.06883,320.07617,817.86578,253.47043,350.41177,738.02289,297.07751,265.91724,755.83441
165,1.367,219.85422,320.77325,818.45917,254.00273,350.88788,738.23712,299.15112,266.4689,756.34631
166,1.375,220.99754,321.91541,818.88373,254.29671,351.3736,739.18463,299.97913,266.92966,756.93384
167,1.383,221.28441,322.64398,820.26306,254.34041,351.62741,740.24823,301.24762,267.20392,757.49023
168,1.392,222.88927,322.52499,820.75519,255.71587,352.08612,740.78894,303.0491,268.36298,758.0614
169,1.4,224.39505,322.79947,821.29248,256.94321,353.56781,740.82727,303.39825,268.49426,758.77606
170,1.408,225.93022,322.49332,820.99139,258.01099,354.17465,740.98657,304.25549,268.76181,759.17969
171,1.417,226.17114,322.98267,821.08215,258.62354,354.14685,741.14362,304.35992,268.42874,759.21063
172,1.425,225.74899,323.96405,822.55774,259.41296,353.8988,741.27899,304.92493,268.42673,759.28485
173,1.433,227.05472,323.47153,822.6272,260.27359,353.80441,741.68024,305.32513,268.48456,759.29346
174,1.442,228.03491,323.39877,822.51691,260.27359,353.80441,741.68024,305.43118,267.81094,759.02972
175,1.45,228.19899,323.85837,822.55078,260.78561,353.14319,741.51233,304.91965,267.04144,758.50256
176,1.458,227.60535,323.60605,823.54517,260.95474,352.90799,741.13397,304.24689,266.95963,757.60779
177,1.467,228.74709,323.0965,822.04242,260.95474,352.90799,741.13397,304.10519,266.69714,756.3327
178,1.475,228.72931,322.24228,821.87903,260.37891,352.48016,741.1156,303.15414,265.67493,755.18738
179,1.483,228.41138,321.63022,821.54858,260.14362,352.4649,740.57172,302.46484,265.23502,754.9129
180,1.492,228.14093,321.28668,820.34351,258.92773,351.56485,739.7807,301.53809,264.41235,754.28296
181,1.5,227.49442,320.18625,819.10693,258.7113,350.4537,738.45203,300.01788,262.84589,753.29199
182,1.508,227.4406,319.22,818.60754,258.61865,349.8403,737.20001,299.1011,262.75644,753.11664
183,1.517,226.62425,319.15463,817.89722,258.62177,349.45071,736.65698,298.36273,261.59116,752.25177
184,1.525,225.99837,318.49228,817.20532,258.15652,348.71576,735.92542,298.1196,260.58066,751.59808
185,1.533,225.66356,316.89648,816.87524,257.88779,348.38229,735.41724,297.95978,260.42847,751.32947
186,1.542,224.8327,317.50845,816.66046,258.34753,347.06055,735.23804,297.65359,259.36584,750.87048
187,1.55,224.9171,316.76196,815.992,258.5275,347.07443,734.14532,297.94449,259.07614,750.54932
188,1.558,224.69461,316.58063,815.03955,258.56506,346.48785,733.64111,298.5762,258.83945,750.33264
189,1.567,225.1554,315.83154,814.10297,259.07462,346.23578,733.34357,298.81543,259.10788,750.6109
190,1.575,225.45299,315.5043,814.15869,260.27185,345.33957,733.32959,300.01971,258.41742,750.72571
191,1.583,225.93088,315.72171,814.35712,260.35519,345.09097,733.45111,300.68326,258.70529,751.49792
192,1.592,226.98404,316.25491,814.51758,260.39542,345.03305,733.77344,301.57224,259.80997,752.01849
193,1.6,226.99055,317.08813,814.55103,260.87143,344.9519,734.38251,302.43661,259.97153,752.28058
194,1.608,227.58469,317.45612,814.65424,261.36343,344.52332,734.64618,303.8114,259.55484,752.37927
195,1.617,227.81546,317.28284,815.61176,261.56381,344.45862,734.8653,305.18002,259.47443,752.74457
196,1.625,229.18562,317.27237,816.30341,262.01071,344.29337,734.91901,305.78391,259.73276,752.76257
197,1.633,231.01927,316.99725,816.75812,263.71326,343.74286,735.30212,306.50607,260.095,752.83722
198,1.642,231.19229,317.31622,816.92621,264.1015,343.86838,735.76233,307.32791,259.97333,753.16748
199,1.65,231.83931,317.80515,816.88226,264.80484,344.45386,735.86035,307.82645,259.71918,753.24536
200,1.658,232.68108,317.94293,817.52692,265.43866,345.4343,736.22278,308.60587,259.59894,753.16449
201,1.667,232.95357,318.15103,817.78241,266.01111,346.06729,736.13232,308.6059,259.31302,753.10815
202,1.675,233.40291,318.06052,817.80664,266.44647,346.13702,736.42236,308.6496,259.32352,752.79413
