Frame#,Time,L.Forearm.x,L.Forearm.y,L.Forearm.z,L.Ulna.x,L.Ulna.y,L.Ulna.z,L.Radius.x,L.Radius.y,L.Radius.z
1,0,426.16418,412.65634,1017.37299,399.29639,484.81256,964.67029,429.14551,412.30951,887.26404
2,0.008,426.16418,412.65634,1017.37299,399.19833,484.62445,964.80371,430.26392,412.8989,887.20599
3,0.017,425.88849,412.72543,1017.54895,399.10077,484.71112,964.74042,430.26392,412.8989,887.20599
4,0.025,425.88849,412.72543,1017.54895,399.19882,484.8992,964.60699,429.70462,412.60431,887.23499
5,0.033,425.88849,412.72543,1017.54895,399.26431,485.0163,964.45441,429.14551,412.30951,887.26404
6,0.042,425.88849,412.72543,1017.54895,399.10077,484.71112,964.74042,429.14551,412.30951,887.26404
7,0.05,425.88849,412.72543,1017.54895,399.10077,484.71112,964.74042,429.14551,412.30951,887.26404
8,0.058,425.88849,412.72543,1017.54895,399.10077,484.71112,964.74042,429.14551,412.30951,887.26404
9,0.067,425.88849,412.72543,1017.54895,399.10077,484.71112,964.74042,429.15887,412.62814,887.25061
10,0.075,425.88849,412.72543,1017.54895,398.69547,484.88889,964.79315,429.15887,412.62814,887.25061
11,0.083,425.88849,412.72543,1017.54895,398.57062,484.89767,964.81311,429.15887,412.62814,887.25061
12,0.092,425.88849,412.72543,1017.54895,398.57062,484.89767,964.81311,429.15887,412.62814,887.25061
13,0.1,425.88849,412.72543,1017.54895,398.57062,484.89767,964.81311,429.15887,412.62814,887.25061
14,0.108,425.69849,412.65567,1017.61212,398.57062,484.89767,964.81311,429.15887,412.62814,887.25061
15,0.117,425.69849,412.65567,1017.61212,398.38989,484.93845,964.81433,429.15887,412.62814,887.25061
16,0.125,425.69849,412.65567,1017.61212,398.38989,484.93845,964.81433,429.15887,412.62814,887.25061
17,0.133,425.69849,412.65567,1017.61212,398.38989,484.93845,964.81433,429.15887,412.62814,887.25061
18,0.142,425.50546,412.97244,1017.29767,398.38989,484.93845,964.81433,429.15887,412.62814,887.25061
19,0.15,425.50546,412.97244,1017.29767,398.3013,485.12518,964.90631,428.57785,413.56876,886.85895
20,0.158,425.50546,412.97244,1017.29767,398.11234,485.19669,965.04095,428.57785,413.56876,886.85895
21,0.167,425.50546,412.97244,1017.29767,398.11234,485.19669,965.04095,428.57785,413.56876,886.85895
22,0.175,425.22479,412.65216,1017.26221,398.11234,485.19669,965.04095,427.96872,414.16901,886.71973
23,0.183,425.50546,412.97244,1017.29767,397.85922,485.54361,965.02917,427.96872,414.16901,886.71973
24,0.192,425.02881,413.10126,1017.17938,397.66452,485.59631,964.89709,427.86401,414.20938,886.37982
25,0.2,425.24136,412.99979,1017.27228,397.66452,485.59631,964.89709,427.86401,414.20938,886.37982
26,0.208,425.24136,412.99979,1017.27228,397.66452,485.59631,964.89709,427.86401,414.20938,886.37982
27,0.217,424.49033,412.81781,1017.11011,397.85922,485.54361,965.02917,427.96872,414.16901,886.71973
28,0.225,424.49033,412.81781,1017.11011,397.66452,485.59631,964.89709,427.96872,414.16901,886.71973
29,0.233,424.28183,412.65598,1016.76801,397.66452,485.59631,964.89709,428.17896,414.423,886.92603
30,0.242,424.28183,412.65598,1016.76801,397.60065,485.78003,965.15747,428.17896,414.423,886.92603
31,0.25,424.64334,413.23218,1017.26855,397.66452,485.59631,964.89709,428.17896,414.423,886.92603
32,0.258,424.49033,412.81781,1017.11011,397.66452,485.59631,964.89709,428.17896,414.423,886.92603
33,0.267,424.15402,412.75,1016.89093,397.66452,485.59631,964.89709,427.68707,414.2114,886.75098
34,0.275,424.15402,412.75,1016.89093,397.66452,485.59631,964.89709,427.68707,414.2114,886.75098
35,0.283,424.36252,412.91183,1017.23303,397.66452,485.59631,964.89709,427.96872,414.16901,886.71973
36,0.292,424.49033,412.81781,1017.11011,397.66452,485.59631,964.89709,427.96872,414.16901,886.71973
37,0.3,424.15402,412.75,1016.89093,397.66452,485.59631,964.89709,427.47678,413.95749,886.54468
38,0.308,424.15402,412.75,1016.89093,397.54361,485.29547,964.90308,427.47678,413.95749,886.54468
39,0.317,424.15402,412.75,1016.89093,397.54361,485.29547,964.90308,427.71063,413.68698,886.64044
40,0.325,424.28183,412.65598,1016.76801,397.79672,484.94852,964.91486,427.71063,413.68698,886.64044
41,0.333,424.28183,412.65598,1016.76801,397.79672,484.94852,964.91486,427.71063,413.68698,886.64044
42,0.342,424.15402,412.75,1016.89093,397.88528,484.76175,964.82281,427.29138,413.5271,886.40436
43,0.35,424.28183,412.65598,1016.76801,397.76456,484.73056,964.97711,428.24857,412.25647,886.83978
44,0.358,424.28183,412.65598,1016.76801,397.85312,484.54379,964.88513,428.66742,412.41647,887.07568
45,0.367,424.47507,412.33923,1017.08258,397.85312,484.54379,964.88513,428.23514,411.93781,886.85327
46,0.375,424.68124,412.22833,1017.1839,397.85312,484.54379,964.88513,428.23514,411.93781,886.85327
47,0.383,424.45172,412.2287,1017.42694,397.85312,484.54379,964.88513,428.23514,411.93781,886.85327
48,0.392,424.19189,411.91354,1017.46771,397.85312,484.54379,964.88513,428.23514,411.93781,886.85327
49,0.4,424.39807,411.80267,1017.56903,397.85312,484.54379,964.88513,428.23514,411.93781,886.85327
50,0.408,424.15411,411.05533,1017.55804,397.85312,484.54379,964.88513,428.23514,411.93781,886.85327
51,0.417,424.15411,411.05533,1017.55804,397.85312,484.54379,964.88513,428.23514,411.93781,886.85327
52,0.425,424.15411,411.05533,1017.55804,397.85312,484.54379,964.88513,428.23514,411.93781,886.85327
53,0.433,424.15411,411.05533,1017.55804,397.85312,484.54379,964.88513,428.23514,411.93781,886.85327
54,0.442,424.15411,411.05533,1017.55804,397.85312,484.54379,964.88513,428.23514,411.93781,886.85327
55,0.45,424.15411,411.05533,1017.55804,397.85312,484.54379,964.88513,428.23514,411.93781,886.85327
56,0.458,424.41843,411.02795,1017.58344,397.81894,484.37424,964.69397,428.23514,411.93781,886.85327
57,0.467,424.4263,410.58167,1017.60944,397.81894,484.37424,964.69397,428.23514,411.93781,886.85327
58,0.475,424.39294,410.60718,1017.34222,397.81894,484.37424,964.69397,428.23514,411.93781,886.85327
59,0.483,424.39294,410.60718,1017.34222,397.81894,484.37424,964.69397,427.56271,411.63019,886.96466
60,0.492,424.44839,410.23203,1017.26099,397.81894,484.37424,964.69397,427.56271,411.63019,886.96466
61,0.5,424.56329,409.97421,1017.31952,398.2027,484.24991,964.69141,427.56271,411.63019,886.96466
62,0.508,424.56329,409.97421,1017.31952,398.35565,483.9996,964.80231,427.56271,411.63019,886.96466
63,0.517,424.54123,410.32385,1017.66797,398.35565,483.9996,964.80231,427.56271,411.63019,886.96466
64,0.525,424.80554,410.29663,1017.69348,398.35565,483.9996,964.80231,427.56271,411.63019,886.96466
65,0.533,424.80554,410.29663,1017.69348,398.35565,483.9996,964.80231,427.56271,411.63019,886.96466
66,0.542,424.54123,410.32385,1017.66797,398.61411,483.82205,964.91821,427.56271,411.63019,886.96466
67,0.55,424.80554,410.29663,1017.69348,398.49304,483.9126,964.85663,427.24252,411.28366,887.39136
68,0.558,424.80554,410.29663,1017.69348,398.64825,483.99167,965.10938,427.43182,411.42786,887.13794
69,0.567,424.80554,410.29663,1017.69348,398.61411,483.82205,964.91821,427.43182,411.42786,887.13794
70,0.575,424.80554,410.29663,1017.69348,398.61411,483.82205,964.91821,427.43182,411.42786,887.13794
71,0.583,424.80554,410.29663,1017.69348,398.61411,483.82205,964.91821,427.24252,411.28366,887.39136
72,0.592,424.80554,410.29663,1017.69348,398.61411,483.82205,964.91821,427.24252,411.28366,887.39136
73,0.6,424.80554,410.29663,1017.69348,398.57248,483.91721,965.3703,427.24252,411.28366,887.39136
74,0.608,424.80554,410.29663,1017.69348,398.81174,483.96277,965.10046,427.43182,411.42786,887.13794
75,0.617,424.99481,410.47281,1017.88269,398.81204,483.72598,964.86023,428.10431,411.73547,887.02661
76,0.625,424.99481,410.47281,1017.88269,398.8414,483.85944,965.10132,428.33401,411.75131,887.51587
77,0.633,424.99481,410.47281,1017.88269,398.8414,483.85944,965.10132,428.33401,411.75131,887.51587
78,0.642,425.54254,411.04803,1017.81482,398.76349,483.80057,965.32288,428.52319,411.89551,887.26251
79,0.65,425.54254,411.04803,1017.81482,399.14383,483.73764,965.54297,428.65402,412.09784,887.08917
80,0.658,425.54254,411.04803,1017.81482,399.14383,483.73764,965.54297,428.65402,412.09784,887.08917
81,0.667,425.84616,411.02322,1018.00995,399.38031,483.67462,965.45618,428.52319,411.89551,887.26251
82,0.675,425.84616,411.02322,1018.00995,399.52094,483.65784,965.44922,428.65402,412.09784,887.08917
83,0.683,425.84616,411.02322,1018.00995,399.52094,483.65784,965.44922,428.93637,412.18472,887.54395
84,0.692,425.84616,411.02322,1018.00995,399.52094,483.65784,965.44922,429.14551,412.30951,887.26404
85,0.7,426.05237,410.91263,1018.11139,399.52094,483.65784,965.44922,429.14551,412.30951,887.26404
86,0.708,426.30048,411.20416,1018.10889,399.52094,483.65784,965.44922,428.93637,412.18472,887.54395
87,0.717,426.30048,411.20416,1018.10889,399.8418,483.57916,965.45093,428.93637,412.18472,887.54395
88,0.725,426.30048,411.20416,1018.10889,399.8418,483.57916,965.45093,429.14551,412.30951,887.26404
89,0.733,426.49384,410.88751,1018.4234,399.94843,483.62372,966.0553,429.14551,412.30951,887.26404
90,0.742,426.48584,411.33389,1018.39734,400.13571,483.9043,966.00269,429.14551,412.30951,887.26404
91,0.75,426.48584,411.33389,1018.39734,400.10242,483.96463,966.59424,428.93637,412.18472,887.54395
92,0.758,426.48584,411.33389,1018.39734,400.26859,483.91721,966.61646,429.35562,412.56351,887.47028
93,0.767,426.48584,411.33389,1018.39734,401.20248,484.08408,966.52814,429.35562,412.56351,887.47028
94,0.775,426.48584,411.33389,1018.39734,401.31219,484.08423,966.96045,429.35562,412.56351,887.47028
95,0.783,426.36517,412.13925,1018.65625,401.31219,484.08423,966.96045,429.70563,412.73352,887.72101
96,0.792,426.4212,411.67538,1018.57996,401.23865,484.22168,967.03607,430.47391,413.15298,887.41211
97,0.8,426.52951,412.0076,1018.77692,401.23865,484.22168,967.03607,430.47391,413.15298,887.41211
98,0.808,427.09497,411.89163,1018.61041,401.61478,484.01428,967.03247,430.26495,413.02817,887.69189
99,0.817,426.9306,412.02338,1018.48975,401.54126,484.15173,967.10809,430.47391,413.15298,887.41211
100,0.825,427.52362,411.95212,1018.69434,401.54126,484.15173,967.10809,430.39572,413.37332,887.81702
101,0.833,427.52362,411.95212,1018.69434,401.97275,484.26083,967.05414,430.40897,413.69199,887.80353
102,0.842,427.68805,411.82025,1018.815,401.67368,485.17886,967.13782,430.40897,413.69199,887.80353
103,0.85,427.68805,411.82025,1018.815,401.67368,485.17886,967.13782,430.40897,413.69199,887.80353
104,0.858,427.68805,411.82025,1018.815,401.78876,485.38766,967.23022,430.40897,413.69199,887.80353
105,0.867,427.68805,411.82025,1018.815,401.79575,485.39471,967.3811,430.40897,413.69199,887.80353
106,0.875,427.68805,411.82025,1018.815,402.02121,484.61423,967.37299,430.40897,413.69199,887.80353
107,0.883,427.68805,411.82025,1018.815,402.02121,484.61423,967.37299,430.40897,413.69199,887.80353
108,0.892,427.68805,411.82025,1018.815,402.02121,484.61423,967.37299,430.90784,413.97943,887.81134
109,0.9,428.02173,411.98987,1018.66077,401.79575,485.39471,967.3811,430.90784,413.97943,887.81134
110,0.908,427.76611,412.11258,1018.98889,402.01953,485.60126,967.27686,430.90784,413.97943,887.81134
111,0.917,428.09973,412.28217,1018.83466,402.01953,485.60126,967.27686,430.90784,413.97943,887.81134
112,0.925,428.09973,412.28217,1018.83466,402.01953,485.60126,967.27686,430.90784,413.97943,887.81134
113,0.933,428.09973,412.28217,1018.83466,402.01953,485.60126,967.27686,430.90784,413.97943,887.81134
114,0.942,428.09973,412.28217,1018.83466,402.245,484.8208,967.2688,430.90784,413.97943,887.81134
115,0.95,428.09973,412.28217,1018.83466,402.245,484.8208,967.2688,430.90784,413.97943,887.81134
116,0.958,428.09973,412.28217,1018.83466,402.01953,485.60126,967.27686,430.90784,413.97943,887.81134
117,0.967,428.09973,412.28217,1018.83466,402.13571,485.61453,967.24121,430.90784,413.97943,887.81134
118,0.975,428.09973,412.28217,1018.83466,402.26709,485.54947,967.28918,430.90784,413.97943,887.81134
119,0.983,428.28879,412.45792,1019.02374,402.30124,485.66891,967.46179,430.90784,413.97943,887.81134
120,0.992,428.60583,412.45581,1019.40424,403.03146,485.50156,967.64362,430.90784,413.97943,887.81134
121,1,428.60583,412.45581,1019.40424,403.03146,485.50156,967.64362,430.90784,413.97943,887.81134
122,1.008,428.60583,412.45581,1019.40424,403.03146,485.50156,967.64362,430.90784,413.97943,887.81134
123,1.017,428.83536,412.69205,1019.53821,403.03146,485.50156,967.64362,431.39938,414.19086,887.98615
124,1.025,428.93042,412.84854,1019.35297,403.03146,485.50156,967.64362,432.93912,413.73969,888.71051
125,1.033,428.93042,412.84854,1019.35297,403.03146,485.50156,967.64362,431.39938,414.19086,887.98615
126,1.042,428.93042,412.84854,1019.35297,402.86368,486.10696,967.53601,432.93912,413.73969,888.71051
127,1.05,428.83536,412.69205,1019.53821,403.3067,485.9826,967.77008,432.93912,413.73969,888.71051
128,1.058,429.19434,412.82132,1019.37842,403.82639,485.65259,967.86865,432.93912,413.73969,888.71051
129,1.067,429.45825,412.79428,1019.40399,404.62128,485.86783,967.86334,432.93912,413.73969,888.71051
130,1.075,429.45825,412.79428,1019.40399,404.53711,486.34512,967.89661,432.93912,413.73969,888.71051
131,1.083,429.45825,412.79428,1019.40399,404.8342,486.75912,968.00391,432.93912,413.73969,888.71051
132,1.092,429.45825,412.79428,1019.40399,404.8342,486.75912,968.00391,432.93912,413.73969,888.71051
133,1.1,429.86087,413.43451,1019.3703,405.30524,486.62997,967.99188,432.93912,413.73969,888.71051
134,1.108,429.86087,413.43451,1019.3703,405.63382,486.52393,967.98969,433.52097,413.86084,889.0351
135,1.117,429.86087,413.43451,1019.3703,405.63382,486.52393,967.98969,433.52097,413.86084,889.0351
136,1.125,430.17752,413.43301,1019.75073,405.63382,486.52393,967.98969,433.52097,413.86084,889.0351
137,1.133,430.33493,413.29767,1019.87457,405.63382,486.52393,967.98969,433.52097,413.86084,889.0351
138,1.142,430.17752,413.43301,1019.75073,405.61038,486.8056,968.32684,433.74738,414.0289,888.73883
139,1.15,430.38351,413.32248,1019.85217,405.74686,486.68954,968.36664,433.74738,414.0289,888.73883
140,1.158,430.38351,413.32248,1019.85217,405.90356,486.48563,968.46161,433.74738,414.0289,888.73883
141,1.167,430.54785,413.19083,1019.9729,405.91742,486.62589,968.39056,434.36429,414.28052,888.80109
142,1.175,430.54785,413.19083,1019.9729,406.16177,486.53891,968.28516,434.36429,414.28052,888.80109
143,1.183,431.14035,413.12042,1020.17743,406.16177,486.53891,968.28516,434.36429,414.28052,888.80109
144,1.192,431.14035,413.12042,1020.17743,406.16177,486.53891,968.28516,435.58401,414.17197,889.7049
145,1.2,431.70557,413.00491,1020.01105,406.03912,486.79529,968.17438,435.5065,414.39206,890.1098
146,1.208,431.70557,413.00491,1020.01105,406.03912,486.79529,968.17438,434.36429,414.28052,888.80109
147,1.217,431.70557,413.00491,1020.01105,406.16177,486.53891,968.28516,435.58401,414.17197,889.7049
148,1.225,431.70557,413.00491,1020.01105,406.35883,486.63351,967.94086,435.58401,414.17197,889.7049
149,1.233,431.70557,413.00491,1020.01105,406.57983,486.46289,967.92993,435.58401,414.17197,889.7049
150,1.242,431.95328,413.29547,1020.0083,406.96976,486.72058,967.72131,435.5065,414.39206,890.1098
151,1.25,431.95328,413.29547,1020.0083,406.96976,486.72058,967.72131,435.58401,414.17197,889.7049
152,1.258,432.27435,413.62637,1019.96173,407.16406,486.66843,967.85327,435.58401,414.17197,889.7049
153,1.267,432.48468,413.7157,1019.82037,407.16406,486.66843,967.85327,436.02969,414.26959,889.46857
154,1.275,432.93155,413.51028,1019.60712,407.16406,486.66843,967.85327,436.02969,414.26959,889.46857
155,1.283,433.4411,413.70917,1019.24298,407.16406,486.66843,967.85327,436.02969,414.26959,889.46857
156,1.292,433.4411,413.70917,1019.24298,407.16406,486.66843,967.85327,436.7963,414.50229,888.89215
157,1.3,433.57675,413.81436,1019.14746,407.16406,486.66843,967.85327,436.7963,414.50229,888.89215
158,1.308,433.57675,413.81436,1019.14746,407.28708,486.79782,967.91449,436.7963,414.50229,888.89215
159,1.317,433.57675,413.81436,1019.14746,407.41245,486.59668,967.95532,436.7963,414.50229,888.89215
160,1.325,433.57675,413.81436,1019.14746,407.41245,486.59668,967.95532,436.7963,414.50229,888.89215
161,1.333,433.57675,413.81436,1019.14746,407.88632,486.71695,967.80835,436.7963,414.50229,888.89215
162,1.342,433.57675,413.81436,1019.14746,407.88632,486.71695,967.80835,436.7963,414.50229,888.89215
163,1.35,433.57675,413.81436,1019.14746,407.88632,486.71695,967.80835,436.7963,414.50229,888.89215
164,1.358,433.57675,413.81436,1019.14746,408.16995,486.59436,967.86469,436.7963,414.50229,888.89215
165,1.367,433.57675,413.81436,1019.14746,408.16995,486.59436,967.86469,436.56168,414.19244,888.28455
166,1.375,433.8385,413.72372,1018.78625,408.63632,486.40521,967.91333,436.7963,414.50229,888.89215
167,1.383,434.10226,413.69662,1018.81189,409.12393,486.67722,967.85138,436.56168,414.19244,888.28455
168,1.392,434.10226,413.69662,1018.81189,409.12393,486.67722,967.85138,436.81277,414.14392,888.13049
169,1.4,434.10226,413.69662,1018.81189,409.21176,486.78458,967.54468,436.96628,414.15784,887.92438
170,1.408,434.33926,413.26266,1018.83832,409.20236,486.34909,967.62744,436.96628,414.15784,887.92438
171,1.417,434.33926,413.26266,1018.83832,409.74811,486.61719,967.4527,436.96628,414.15784,887.92438
172,1.425,434.33926,413.26266,1018.83832,409.66028,486.50989,967.7594,436.96628,414.15784,887.92438
173,1.433,434.60306,413.23575,1018.86395,409.81357,486.73407,967.30042,436.96628,414.15784,887.92438
174,1.442,434.68323,413.42789,1018.67236,409.93701,486.54608,967.31818,436.96628,414.15784,887.92438
175,1.45,434.60306,413.23575,1018.86395,410.00244,486.66296,967.16589,436.96628,414.15784,887.92438
176,1.458,434.68323,413.42789,1018.67236,409.93701,486.54608,967.31818,437.52521,414.45209,887.89539
177,1.467,434.68323,413.42789,1018.67236,410.00244,486.66296,967.16589,437.52521,414.45209,887.89539
178,1.475,435.36136,413.05048,1018.28943,410.10452,486.40848,967.02283,438.08423,414.74615,887.86639
179,1.483,435.24805,413.31351,1018.50604,410.27515,486.34491,967.04694,438.53751,414.49805,887.75873
180,1.492,435.36136,413.05048,1018.28943,410.27515,486.34491,967.04694,438.53751,414.49805,887.75873
181,1.5,435.36136,413.05048,1018.28943,410.76761,486.08554,967.15143,438.30215,414.18692,887.15161
182,1.508,435.36136,413.05048,1018.28943,410.53412,486.10846,966.91907,438.53751,414.49805,887.75873
183,1.517,435.36136,413.05048,1018.28943,410.76761,486.08554,967.15143,438.30215,414.18692,887.15161
184,1.525,435.95352,412.98062,1018.49396,410.88177,486.10349,967.10803,438.30215,414.18692,887.15161
185,1.533,436.01901,412.63943,1018.31189,411.13562,485.75653,967.12,438.30215,414.18692,887.15161
186,1.542,436.01901,412.63943,1018.31189,411.13562,485.75653,967.12,438.30215,414.18692,887.15161
187,1.55,436.01901,412.63943,1018.31189,411.23254,485.78635,967.06885,438.30215,414.18692,887.15161
188,1.558,436.20755,412.81436,1018.50067,411.23254,485.78635,967.06885,438.30215,414.18692,887.15161
189,1.567,436.27826,411.98138,1018.44336,411.47534,485.2807,966.97302,438.30215,414.18692,887.15161
190,1.575,436.27826,411.98138,1018.44336,411.47534,485.2807,966.97302,438.62845,413.63205,887.31812
191,1.583,436.46674,412.15634,1018.63208,411.23254,485.78635,967.06885,438.86142,413.36218,887.41376
192,1.592,436.43655,413.04956,1018.6344,411.56686,484.90701,967.24146,438.86142,413.36218,887.41376
193,1.6,436.69568,412.39157,1018.76581,411.56686,484.90701,967.24146,438.86142,413.36218,887.41376
194,1.608,436.46674,412.15634,1018.63208,411.56686,484.90701,967.24146,438.86142,413.36218,887.41376
195,1.617,436.69568,412.39157,1018.76581,411.36356,485.28104,967.31628,438.86142,413.36218,887.41376
196,1.625,436.69568,412.39157,1018.76581,411.36356,485.28104,967.31628,438.86142,413.36218,887.41376
197,1.633,436.64267,412.93896,1018.73602,411.23254,485.78635,967.06885,438.62845,413.63205,887.31812
198,1.642,436.43655,413.04956,1018.6344,411.23254,485.78635,967.06885,438.30215,414.18692,887.15161
199,1.65,436.43655,413.04956,1018.6344,411.23254,485.78635,967.06885,438.30215,414.18692,887.15161
