Frame#,Time,R.Forearm.x,R.Forearm.y,R.Forearm.z,R.Ulna.x,R.Ulna.y,R.Ulna.z,R.Radius.x,R.Radius.y,R.Radius.z
1,0,408.49463,-211.57384,680.4729,465.23651,-238.45943,602.65509,494.03729,-158.09958,629.63983
2,0.008,408.49463,-211.57384,680.4729,465.23651,-238.45943,602.65509,494.16119,-158.29535,629.42572
3,0.017,408.49463,-211.57384,680.4729,465.26688,-238.48088,602.88129,494.39026,-158.16638,629.15887
4,0.025,408.54556,-211.4688,681.36725,465.26688,-238.48088,602.88129,494.16119,-158.29535,629.42572
5,0.033,408.54556,-211.4688,681.36725,465.03439,-238.83391,602.65881,494.16119,-158.29535,629.42572
6,0.042,408.93533,-211.41048,681.50757,465.26688,-238.48088,602.88129,494.39026,-158.16638,629.15887
7,0.05,409.11493,-211.32594,681.71948,465.26688,-238.48088,602.88129,494.16119,-158.29535,629.42572
8,0.058,409.11493,-211.32594,681.71948,465.26688,-238.48088,602.88129,494.16119,-158.29535,629.42572
9,0.067,409.11493,-211.32594,681.71948,465.26688,-238.48088,602.88129,494.36121,-157.75662,629.599
10,0.075,409.11493,-211.32594,681.71948,465.56802,-238.22011,603.03162,494.14294,-157.31664,629.18799
11,0.083,409.11493,-211.32594,681.71948,465.56802,-238.22011,603.03162,494.14294,-157.31664,629.18799
12,0.092,409.39902,-210.94849,681.93469,465.56802,-238.22011,603.03162,494.21954,-156.99983,628.95142
13,0.1,409.39902,-210.94849,681.93469,465.56802,-238.22011,603.03162,494.12796,-156.75902,629.1745
14,0.108,409.23004,-210.92662,682.07947,465.56802,-238.22011,603.03162,494.12796,-156.75902,629.1745
15,0.117,409.13074,-210.77068,682.19824,465.56802,-238.22011,603.03162,494.17905,-156.21538,628.96521
16,0.125,409.44763,-210.60422,681.96161,465.56802,-238.22011,603.03162,494.17905,-156.21538,628.96521
17,0.133,409.44763,-210.60422,681.96161,465.83578,-238.50931,603.31873,494.17905,-156.21538,628.96521
18,0.142,409.27863,-210.58237,682.10638,465.56802,-238.22011,603.03162,494.46909,-155.98511,629.2403
19,0.15,409.40265,-210.50659,682.47021,465.83578,-238.50931,603.31873,494.46909,-155.98511,629.2403
20,0.158,409.40128,-210.63144,682.74597,465.83578,-238.50931,603.31873,494.46909,-155.98511,629.2403
21,0.167,409.40128,-210.63144,682.74597,465.83578,-238.50931,603.31873,494.46909,-155.98511,629.2403
22,0.175,409.40128,-210.63144,682.74597,465.83578,-238.50931,603.31873,494.17905,-156.21538,628.96521
23,0.183,409.56775,-210.39461,682.58746,465.83578,-238.50931,603.31873,494.40994,-157.29845,629.90265
24,0.192,409.56775,-210.39461,682.58746,465.56802,-238.22011,603.03162,494.69977,-157.06818,630.17743
25,0.2,409.40265,-210.50659,682.47021,465.83578,-238.50931,603.31873,494.41797,-156.52876,629.44952
26,0.208,409.40128,-210.63144,682.74597,465.83578,-238.50931,603.31873,494.69977,-157.06818,630.17743
27,0.217,409.40128,-210.63144,682.74597,465.83578,-238.50931,603.31873,494.69977,-157.06818,630.17743
28,0.225,409.40128,-210.63144,682.74597,465.83578,-238.50931,603.31873,494.75104,-156.52449,629.9682
29,0.233,409.40128,-210.63144,682.74597,465.56802,-238.22011,603.03162,494.46909,-155.98511,629.2403
30,0.242,409.40128,-210.63144,682.74597,465.56802,-238.22011,603.03162,494.46909,-155.98511,629.2403
31,0.25,409.40265,-210.50659,682.47021,465.56802,-238.22011,603.03162,494.46909,-155.98511,629.2403
32,0.258,409.40128,-210.63144,682.74597,465.56802,-238.22011,603.03162,494.17905,-156.21538,628.96521
33,0.267,409.29248,-210.5242,682.26392,465.56802,-238.22011,603.03162,493.64804,-155.5356,628.93768
34,0.275,409.29248,-210.5242,682.26392,465.56802,-238.22011,603.03162,493.98572,-156.0047,629.19263
35,0.283,409.29248,-210.5242,682.26392,465.56802,-238.22011,603.03162,493.64804,-155.5356,628.93768
36,0.292,409.29248,-210.5242,682.26392,465.56802,-238.22011,603.03162,493.64804,-155.5356,628.93768
37,0.3,409.29248,-210.5242,682.26392,465.56802,-238.22011,603.03162,494.13153,-155.51605,628.98541
38,0.308,409.29248,-210.5242,682.26392,465.56802,-238.22011,603.03162,493.32193,-155.82248,629.21399
39,0.317,409.29248,-210.5242,682.26392,465.56802,-238.22011,603.03162,493.27194,-155.79364,628.62665
40,0.325,409.13074,-210.77068,682.19824,465.56802,-238.22011,603.03162,493.60974,-156.26277,628.88171
41,0.333,408.91092,-210.97725,682.17004,465.56802,-238.22011,603.03162,493.53809,-156.62489,629.11267
42,0.342,408.91092,-210.97725,682.17004,465.56802,-238.22011,603.03162,493.48221,-157.12326,629.32758
43,0.35,408.91092,-210.97725,682.17004,465.56802,-238.22011,603.03162,494.14001,-157.40475,630.36646
44,0.358,408.91092,-210.97725,682.17004,465.56802,-238.22011,603.03162,493.76434,-157.66283,630.05585
45,0.367,408.91092,-210.97725,682.17004,465.56802,-238.22011,603.03162,493.44043,-158.00569,630.09668
46,0.375,408.73132,-211.06184,681.95819,465.56802,-238.22011,603.03162,493.44043,-158.00569,630.09668
47,0.383,408.54828,-211.04491,682.02588,465.56802,-238.22011,603.03162,493.41336,-157.86407,630.63715
48,0.392,408.54828,-211.04491,682.02588,465.56802,-238.22011,603.03162,493.44043,-158.00569,630.09668
49,0.4,408.36865,-211.12946,681.8139,465.26688,-238.48088,602.88129,493.44043,-158.00569,630.09668
50,0.408,408.36865,-211.12946,681.8139,465.26688,-238.48088,602.88129,493.44043,-158.00569,630.09668
51,0.417,408.36865,-211.12946,681.8139,465.26688,-238.48088,602.88129,493.44043,-158.00569,630.09668
52,0.425,408.36865,-211.12946,681.8139,465.26688,-238.48088,602.88129,493.44043,-158.00569,630.09668
53,0.433,408.36865,-211.12946,681.8139,465.26688,-238.48088,602.88129,493.44043,-158.00569,630.09668
54,0.442,408.33603,-211.35402,682.01367,465.15781,-238.79173,603.08575,493.44043,-158.00569,630.09668
55,0.45,408.36865,-211.12946,681.8139,465.26688,-238.48088,602.88129,493.44043,-158.00569,630.09668
56,0.458,408.36865,-211.12946,681.8139,465.26688,-238.48088,602.88129,493.44043,-158.00569,630.09668
57,0.467,408.36865,-211.12946,681.8139,465.26688,-238.48088,602.88129,493.44043,-158.00569,630.09668
58,0.475,408.36865,-211.12946,681.8139,465.26688,-238.48088,602.88129,492.87155,-158.05333,630.01343
59,0.483,408.36865,-211.12946,681.8139,465.56802,-238.22011,603.03162,493.41336,-157.86407,630.63715
60,0.492,408.33603,-211.35402,682.01367,465.26688,-238.48088,602.88129,493.41336,-157.86407,630.63715
61,0.5,408.33603,-211.35402,682.01367,464.88547,-239.21988,603.02722,493.41336,-157.86407,630.63715
62,0.508,408.3327,-211.60809,681.6983,464.98703,-238.97398,602.83887,493.44043,-158.00569,630.09668
63,0.517,408.33603,-211.35402,682.01367,464.98703,-238.97398,602.83887,493.44043,-158.00569,630.09668
64,0.525,408.35873,-211.62538,682.13574,464.98703,-238.97398,602.83887,493.44043,-158.00569,630.09668
65,0.533,408.2673,-211.78693,681.9527,464.98703,-238.97398,602.83887,493.44043,-158.00569,630.09668
66,0.542,408.2673,-211.78693,681.9527,464.98703,-238.97398,602.83887,493.6337,-158.21629,629.86951
67,0.55,408.2673,-211.78693,681.9527,464.65146,-239.53143,602.80536,493.44043,-158.00569,630.09668
68,0.558,408.2673,-211.78693,681.9527,464.98703,-238.97398,602.83887,494.00931,-157.95819,630.18005
69,0.567,408.2673,-211.78693,681.9527,464.98703,-238.97398,602.83887,494.13327,-158.15399,629.966
70,0.575,408.48715,-211.96651,681.65851,464.75455,-239.32686,602.61633,494.13327,-158.15399,629.966
71,0.583,408.84583,-212.55185,681.68091,464.75455,-239.32686,602.61633,494.13327,-158.15399,629.966
72,0.592,408.84583,-212.55185,681.68091,464.75455,-239.32686,602.61633,494.13327,-158.15399,629.966
73,0.6,409.18439,-212.59529,681.3916,464.75455,-239.32686,602.61633,494.16119,-158.29535,629.42572
74,0.608,408.87912,-212.61037,681.72363,464.75455,-239.32686,602.61633,494.16119,-158.29535,629.42572
75,0.617,408.87912,-212.61037,681.72363,464.75455,-239.32686,602.61633,494.16119,-158.29535,629.42572
76,0.625,408.47665,-211.69525,681.36041,464.75455,-239.32686,602.61633,494.16119,-158.29535,629.42572
77,0.633,408.51129,-211.50157,681.14081,464.75455,-239.32686,602.61633,494.16119,-158.29535,629.42572
78,0.642,408.51129,-211.50157,681.14081,464.75455,-239.32686,602.61633,494.16119,-158.29535,629.42572
79,0.65,408.4874,-211.47318,680.63562,464.75455,-239.32686,602.61633,494.16119,-158.29535,629.42572
80,0.658,408.4874,-211.47318,680.63562,464.75455,-239.32686,602.61633,494.03729,-158.09958,629.63983
81,0.667,408.4874,-211.47318,680.63562,464.75455,-239.32686,602.61633,494.16119,-158.29535,629.42572
82,0.675,408.4874,-211.47318,680.63562,464.75455,-239.32686,602.61633,494.03729,-158.09958,629.63983
83,0.683,408.4874,-211.47318,680.63562,465.03439,-238.83391,602.65881,494.16119,-158.29535,629.42572
84,0.692,408.4874,-211.47318,680.63562,464.75455,-239.32686,602.61633,494.16119,-158.29535,629.42572
85,0.7,408.4874,-211.47318,680.63562,464.75455,-239.32686,602.61633,494.16119,-158.29535,629.42572
86,0.708,408.4874,-211.47318,680.63562,464.75455,-239.32686,602.61633,494.53958,-158.34117,629.39423
87,0.717,408.4874,-211.47318,680.63562,464.70874,-239.09387,601.81732,494.53958,-158.34117,629.39423
88,0.725,408.96265,-212.45787,681.44415,464.70874,-239.09387,601.81732,494.53958,-158.34117,629.39423
89,0.733,409.2262,-212.53423,681.06799,464.98309,-239.30377,601.68671,494.53958,-158.34117,629.39423
90,0.742,409.01978,-212.59549,680.62683,464.98309,-239.30377,601.68671,495.19171,-158.91267,629.55035
91,0.75,408.65271,-212.16095,680.43188,464.98309,-239.30377,601.68671,495.39587,-159.2818,630.23145
92,0.758,408.65271,-212.16095,680.43188,465.18753,-239.3204,601.33405,495.39587,-159.2818,630.23145
93,0.767,408.65271,-212.16095,680.43188,464.98309,-239.30377,601.68671,495.20456,-159.45255,630.02948
94,0.775,408.65271,-212.16095,680.43188,465.04507,-239.584,601.51239,495.00027,-159.0834,629.34827
95,0.783,408.99109,-212.20442,680.14246,464.71231,-239.62302,601.40283,494.63315,-159.06241,629.35229
96,0.792,408.99109,-212.20442,680.14246,464.71231,-239.62302,601.40283,494.63315,-159.06241,629.35229
97,0.8,408.64728,-212.0583,680.30255,464.91583,-239.60281,600.98029,494.63315,-159.06241,629.35229
98,0.808,408.64728,-212.0583,680.30255,464.66608,-240.01468,600.73523,494.63315,-159.06241,629.35229
99,0.817,408.43716,-212.19084,680.14978,465.02557,-239.95294,601.27063,494.63315,-159.06241,629.35229
100,0.825,408.43716,-212.19084,680.14978,464.71231,-239.62302,601.40283,493.89905,-159.02054,629.36066
101,0.833,408.43716,-212.19084,680.14978,464.71231,-239.62302,601.40283,494.29538,-158.59366,629.09717
102,0.842,407.8764,-212.3605,679.51721,464.71231,-239.62302,601.40283,493.81213,-158.3956,629.14996
103,0.85,407.8764,-212.3605,679.51721,465.21753,-239.88036,600.85712,494.15479,-159.32611,629.84192
104,0.858,407.8764,-212.3605,679.51721,464.1568,-239.78267,601.29639,493.80713,-159.35838,629.74451
105,0.867,408.33804,-213.05876,679.58392,464.36438,-239.73709,600.85828,493.80713,-159.35838,629.74451
106,0.875,407.8764,-212.3605,679.51721,463.95239,-240.09064,601.22394,494.10083,-159.51627,629.59625
107,0.883,408.36127,-213.08725,680.08923,464.15891,-239.9933,600.77344,493.72787,-159.92763,629.73761
108,0.892,408.33804,-213.05876,679.58392,464.46057,-240.27081,600.65033,493.72787,-159.92763,629.73761
109,0.9,408.33804,-213.05876,679.58392,464.46057,-240.27081,600.65033,493.72787,-159.92763,629.73761
110,0.908,408.48462,-213.1391,679.35254,463.95239,-240.09064,601.22394,493.72787,-159.92763,629.73761
111,0.917,408.48462,-213.1391,679.35254,464.10553,-240.61778,600.93073,493.57516,-159.61436,629.50665
112,0.925,408.48462,-213.1391,679.35254,464.10553,-240.61778,600.93073,493.57516,-159.61436,629.50665
113,0.933,408.11523,-213.4248,679.50238,464.29605,-240.43887,600.48999,493.72787,-159.92763,629.73761
114,0.942,408.06042,-213.68764,679.83777,464.06543,-240.79674,600.56805,493.72787,-159.92763,629.73761
115,0.95,407.76193,-213.75694,679.67773,464.29605,-240.43887,600.48999,493.72787,-159.92763,629.73761
116,0.958,407.76193,-213.75694,679.67773,464.06543,-240.79674,600.56805,493.72787,-159.92763,629.73761
117,0.967,407.76193,-213.75694,679.67773,464.29605,-240.43887,600.48999,493.72787,-159.92763,629.73761
118,0.975,407.83286,-213.54063,679.36798,464.29605,-240.43887,600.48999,493.72787,-159.92763,629.73761
119,0.983,407.76193,-213.75694,679.67773,464.29605,-240.43887,600.48999,493.57516,-159.61436,629.50665
120,0.992,407.83286,-213.54063,679.36798,463.86945,-241.0567,601.04285,493.57516,-159.61436,629.50665
121,1,407.83286,-213.54063,679.36798,464.06543,-240.79674,600.56805,493.57516,-159.61436,629.50665
122,1.008,407.83286,-213.54063,679.36798,464.06543,-240.79674,600.56805,493.91299,-160.08316,629.76178
123,1.017,407.83286,-213.54063,679.36798,464.10553,-240.61778,600.93073,493.91299,-160.08316,629.76178
124,1.025,408.18613,-213.20845,679.1925,464.52414,-240.62729,600.27216,493.91299,-160.08316,629.76178
125,1.033,408.18613,-213.20845,679.1925,464.29605,-240.43887,600.48999,493.91299,-160.08316,629.76178
126,1.042,408.18613,-213.20845,679.1925,464.52414,-240.62729,600.27216,493.91299,-160.08316,629.76178
127,1.05,408.18613,-213.20845,679.1925,464.52414,-240.62729,600.27216,493.91299,-160.08316,629.76178
128,1.058,408.26706,-213.35757,679.06323,464.52414,-240.62729,600.27216,493.91299,-160.08316,629.76178
129,1.067,408.18613,-213.20845,679.1925,464.52414,-240.62729,600.27216,493.91299,-160.08316,629.76178
130,1.075,408.18613,-213.20845,679.1925,464.52414,-240.62729,600.27216,493.91299,-160.08316,629.76178
131,1.083,408.26706,-213.35757,679.06323,464.52414,-240.62729,600.27216,493.91299,-160.08316,629.76178
132,1.092,408.26706,-213.35757,679.06323,464.52414,-240.62729,600.27216,493.91299,-160.08316,629.76178
133,1.1,408.26706,-213.35757,679.06323,464.52414,-240.62729,600.27216,493.91299,-160.08316,629.76178
134,1.108,408.26706,-213.35757,679.06323,464.50223,-240.53456,599.85999,493.91299,-160.08316,629.76178
135,1.117,408.26706,-213.35757,679.06323,464.10089,-240.07831,599.52148,493.91299,-160.08316,629.76178
136,1.125,408.41888,-213.37622,678.8147,464.10089,-240.07831,599.52148,493.91299,-160.08316,629.76178
137,1.133,408.41888,-213.37622,678.8147,464.10089,-240.07831,599.52148,493.91299,-160.08316,629.76178
138,1.142,408.41888,-213.37622,678.8147,464.14215,-240.04662,599.09705,493.70828,-159.71394,629.0802
139,1.15,408.41888,-213.37622,678.8147,464.10089,-240.07831,599.52148,494.07382,-159.3456,628.99426
140,1.158,408.41888,-213.37622,678.8147,464.14215,-240.04662,599.09705,494.07382,-159.3456,628.99426
141,1.167,408.41888,-213.37622,678.8147,464.10089,-240.07831,599.52148,494.07382,-159.3456,628.99426
142,1.175,408.41888,-213.37622,678.8147,464.3067,-239.87872,599.25739,494.07382,-159.3456,628.99426
143,1.183,408.41888,-213.37622,678.8147,464.26544,-239.91034,599.68182,494.07382,-159.3456,628.99426
144,1.192,408.41888,-213.37622,678.8147,464.26544,-239.91034,599.68182,494.07382,-159.3456,628.99426
145,1.2,408.41888,-213.37622,678.8147,464.26544,-239.91034,599.68182,494.07382,-159.3456,628.99426
146,1.208,408.41888,-213.37622,678.8147,464.26544,-239.91034,599.68182,494.40021,-159.2663,629.44153
147,1.217,408.09882,-213.01988,678.6748,464.26544,-239.91034,599.68182,494.40021,-159.2663,629.44153
148,1.225,408.09882,-213.01988,678.6748,464.10089,-240.07831,599.52148,494.07382,-159.3456,628.99426
149,1.233,408.29663,-213.43282,679.01459,464.10089,-240.07831,599.52148,494.40021,-159.2663,629.44153
150,1.242,408.29663,-213.43282,679.01459,464.10089,-240.07831,599.52148,494.04572,-159.62097,629.5498
151,1.25,408.29663,-213.43282,679.01459,464.10089,-240.07831,599.52148,494.12616,-159.93944,630.11462
152,1.258,408.29663,-213.43282,679.01459,464.10089,-240.07831,599.52148,494.04572,-159.62097,629.5498
153,1.267,407.7771,-213.53896,678.79938,463.52438,-239.50221,599.49457,493.91299,-160.08316,629.76178
154,1.275,407.96646,-213.38597,678.99359,463.68924,-239.57912,598.9906,494.12616,-159.93944,630.11462
155,1.283,407.30679,-213.67574,678.9328,464.14215,-240.04662,599.09705,494.12616,-159.93944,630.11462
156,1.292,407.05103,-213.85022,678.70313,463.68924,-239.57912,598.9906,493.91299,-160.08316,629.76178
157,1.3,407.05103,-213.85022,678.70313,463.68924,-239.57912,598.9906,493.13049,-160.18507,628.7359
158,1.308,407.05103,-213.85022,678.70313,463.79398,-240.03658,598.67621,493.6239,-160.38992,629.87543
159,1.317,406.8447,-213.99033,678.55627,463.60052,-239.85104,598.7959,493.5433,-160.07146,629.31042
160,1.325,406.8447,-213.99033,678.55627,463.60052,-239.85104,598.7959,493.5433,-160.07146,629.31042
161,1.333,406.59549,-214.2672,678.61963,463.36993,-240.20914,598.87421,493.18646,-160.50197,629.82574
162,1.342,406.57715,-214.42786,678.44604,463.36993,-240.20914,598.87421,493.10574,-160.18347,629.26068
163,1.35,406.57715,-214.42786,678.44604,463.36993,-240.20914,598.87421,493.10574,-160.18347,629.26068
164,1.358,406.57715,-214.42786,678.44604,463.36993,-240.20914,598.87421,493.10574,-160.18347,629.26068
165,1.367,406.57715,-214.42786,678.44604,463.36993,-240.20914,598.87421,492.62115,-160.26195,628.6225
166,1.375,406.57715,-214.42786,678.44604,463.36993,-240.20914,598.87421,493.10574,-160.18347,629.26068
167,1.383,406.57715,-214.42786,678.44604,463.36993,-240.20914,598.87421,493.10574,-160.18347,629.26068
168,1.392,406.57715,-214.42786,678.44604,463.36993,-240.20914,598.87421,493.10574,-160.18347,629.26068
169,1.4,406.57715,-214.42786,678.44604,463.36993,-240.20914,598.87421,493.10574,-160.18347,629.26068
170,1.408,406.57715,-214.42786,678.44604,463.36993,-240.20914,598.87421,493.10574,-160.18347,629.26068
171,1.417,406.57715,-214.42786,678.44604,463.15372,-239.91672,598.4165,492.83664,-160.48357,628.73706
172,1.425,406.57715,-214.42786,678.44604,463.3472,-240.10225,598.29681,492.82632,-160.63124,629.30457
173,1.433,406.57715,-214.42786,678.44604,463.57281,-240.35896,598.57318,493.35489,-160.69014,629.35193
174,1.442,406.57715,-214.42786,678.44604,463.57281,-240.35896,598.57318,492.91745,-160.80209,629.30225
175,1.45,406.57715,-214.42786,678.44604,463.57281,-240.35896,598.57318,493.50534,-161.11081,629.45282
176,1.458,406.57715,-214.42786,678.44604,463.57281,-240.35896,598.57318,493.35489,-160.69014,629.35193
177,1.467,406.70953,-214.66438,678.27362,463.57281,-240.35896,598.57318,493.48236,-160.97707,629.05408
178,1.475,406.70953,-214.66438,678.27362,463.57281,-240.35896,598.57318,493.48236,-160.97707,629.05408
179,1.483,406.70953,-214.66438,678.27362,463.7663,-240.54434,598.45343,493.37198,-160.38411,628.55243
180,1.492,406.70953,-214.66438,678.27362,463.7663,-240.54434,598.45343,493.37198,-160.38411,628.55243
181,1.5,406.70953,-214.66438,678.27362,463.7663,-240.54434,598.45343,493.37198,-160.38411,628.55243
182,1.508,406.68506,-214.85617,678.07434,463.57281,-240.35896,598.57318,493.21408,-160.21851,628.47058
183,1.517,406.68506,-214.85617,678.07434,463.7663,-240.54434,598.45343,493.21408,-160.21851,628.47058
184,1.525,406.95871,-214.38756,678.21033,463.99692,-240.18633,598.375,493.37198,-160.38411,628.55243
185,1.533,406.95871,-214.38756,678.21033,463.99692,-240.18633,598.375,493.21408,-160.21851,628.47058
186,1.542,406.95871,-214.38756,678.21033,463.99692,-240.18633,598.375,493.21408,-160.21851,628.47058
187,1.55,406.95871,-214.38756,678.21033,463.99692,-240.18633,598.375,493.37198,-160.38411,628.55243
188,1.558,406.95871,-214.38756,678.21033,463.99692,-240.18633,598.375,493.37198,-160.38411,628.55243
189,1.567,406.95871,-214.38756,678.21033,463.99692,-240.18633,598.375,493.37198,-160.38411,628.55243
190,1.575,406.95871,-214.38756,678.21033,463.99692,-240.18633,598.375,493.37198,-160.38411,628.55243
191,1.583,406.82635,-214.15103,678.38269,463.99692,-240.18633,598.375,493.37198,-160.38411,628.55243
192,1.592,406.82635,-214.15103,678.38269,463.99692,-240.18633,598.375,493.37198,-160.38411,628.55243
193,1.6,406.82635,-214.15103,678.38269,463.99692,-240.18633,598.375,493.6171,-160.07266,628.60016
194,1.608,406.95871,-214.38756,678.21033,463.99692,-240.18633,598.375,493.93149,-159.88394,628.76074
195,1.617,406.95871,-214.38756,678.21033,463.99692,-240.18633,598.375,493.21408,-160.21851,628.47058
196,1.625,406.95871,-214.38756,678.21033,463.99692,-240.18633,598.375,493.75153,-160.34055,628.53406
