Frame#,Time,R.Forearm.x,R.Forearm.y,R.Forearm.z,R.Ulna.x,R.Ulna.y,R.Ulna.z,R.Radius.x,R.Radius.y,R.Radius.z
1,0,74.47649,-113.13285,1075.9696,187.86092,-163.72687,1063.46619,245.69437,-78.00149,1039.77161
2,0.008,74.38705,-112.94678,1075.76965,187.91003,-163.79492,1063.63611,245.69437,-78.00149,1039.77161
3,0.017,74.47649,-113.13285,1075.9696,187.7798,-163.82121,1063.56775,245.69437,-78.00149,1039.77161
4,0.025,74.47649,-113.13285,1075.9696,187.7798,-163.82121,1063.56775,245.69437,-78.00149,1039.77161
5,0.033,74.47649,-113.13285,1075.9696,187.80885,-163.87643,1063.71045,245.69437,-78.00149,1039.77161
6,0.042,74.5844,-113.22702,1076.55164,187.72551,-164.00658,1063.7832,245.69437,-78.00149,1039.77161
7,0.05,74.5844,-113.22702,1076.55164,187.80885,-163.87643,1063.71045,246.05661,-73.63058,1041.34558
8,0.058,74.47649,-113.13285,1075.9696,187.66243,-164.02991,1063.90698,245.47197,-77.00051,1040.04285
9,0.067,74.07199,-113.1524,1076.75122,187.66243,-164.02991,1063.90698,245.47197,-77.00051,1040.04285
10,0.075,73.96404,-113.05825,1076.16919,187.66243,-164.02991,1063.90698,246.05661,-73.63058,1041.34558
11,0.083,73.80334,-112.8724,1076.21729,187.66243,-164.02991,1063.90698,246.05661,-73.63058,1041.34558
12,0.092,73.96404,-113.05825,1076.16919,187.53043,-164.01617,1063.96997,246.05661,-73.63058,1041.34558
13,0.1,73.96404,-113.05825,1076.16919,187.53043,-164.01617,1063.96997,246.05661,-73.63058,1041.34558
14,0.108,73.79253,-112.72581,1076.41882,187.53043,-164.01617,1063.96997,245.32066,-73.42023,1041.8623
15,0.117,73.95898,-112.60816,1076.68933,187.53043,-164.01617,1063.96997,244.76859,-76.56852,1040.63184
16,0.125,73.95898,-112.60816,1076.68933,187.61377,-163.88606,1063.89722,244.76859,-76.56852,1040.63184
17,0.133,73.95898,-112.60816,1076.68933,187.53043,-164.01617,1063.96997,244.76859,-76.56852,1040.63184
18,0.142,73.95898,-112.60816,1076.68933,187.64503,-163.93619,1064.02197,244.58916,-75.71308,1041.50854
19,0.15,73.95898,-112.60816,1076.68933,187.55028,-163.89806,1064.01624,244.91412,-75.4227,1042.03235
20,0.158,73.95898,-112.60816,1076.68933,187.46695,-164.02817,1064.08899,244.91412,-75.4227,1042.03235
21,0.167,73.95898,-112.60816,1076.68933,187.4982,-164.07828,1064.21387,244.91412,-75.4227,1042.03235
22,0.175,73.95898,-112.60816,1076.68933,187.4411,-163.80144,1064.10413,244.91412,-75.4227,1042.03235
23,0.183,73.95898,-112.60816,1076.68933,187.91156,-164.75996,1063.81421,244.91412,-75.4227,1042.03235
24,0.192,73.95898,-112.60816,1076.68933,187.78297,-163.72581,1064.13074,244.91412,-75.4227,1042.03235
25,0.2,73.95898,-112.60816,1076.68933,187.81186,-164.50499,1063.74707,244.58916,-75.71308,1041.50854
26,0.208,73.95898,-112.60816,1076.68933,187.97333,-164.75037,1063.68518,244.91412,-75.4227,1042.03235
27,0.217,74.06689,-112.70233,1077.27124,187.97333,-164.75037,1063.68518,244.87849,-75.57546,1041.37402
28,0.225,74.06689,-112.70233,1077.27124,188.10599,-164.7731,1063.61768,244.87849,-75.57546,1041.37402
29,0.233,74.06689,-112.70233,1077.27124,188.28247,-164.65163,1063.53333,244.87849,-75.57546,1041.37402
30,0.242,74.16258,-112.33969,1077.06641,188.26564,-164.66151,1063.40393,245.24544,-76.20273,1040.83533
31,0.25,74.16258,-112.33969,1077.06641,188.26564,-164.66151,1063.40393,245.058,-76.43117,1040.49719
32,0.258,74.13603,-112.50354,1076.69861,188.31693,-164.55133,1063.30615,245.47197,-77.00051,1040.04285
33,0.267,73.90222,-112.69665,1076.58777,188.19302,-163.84753,1062.8894,245.69437,-78.00149,1039.77161
34,0.275,74.12016,-112.77924,1076.37476,188.40561,-163.60962,1062.96765,245.69437,-78.00149,1039.77161
35,0.283,73.80002,-113.04973,1076.13452,188.40561,-163.60962,1062.96765,245.69437,-78.00149,1039.77161
36,0.292,74.10832,-112.98621,1076.13196,188.40561,-163.60962,1062.96765,245.38882,-78.28711,1039.19702
37,0.3,74.02369,-112.12856,1076.43579,188.40968,-163.29828,1062.98242,245.38882,-78.28711,1039.19702
38,0.308,74.12249,-111.85875,1076.13623,188.40266,-163.11308,1062.97327,245.38882,-78.28711,1039.19702
39,0.317,73.90251,-111.81066,1076.30896,188.52185,-163.18451,1063.03699,245.69437,-78.00149,1039.77161
40,0.325,73.90251,-111.81066,1076.30896,188.40601,-162.44699,1062.61047,245.69437,-78.00149,1039.77161
41,0.333,73.98079,-111.84954,1076.76587,188.44809,-162.5929,1062.7002,245.37866,-76.37975,1039.39282
42,0.342,73.98079,-111.84954,1076.76587,188.24461,-162.20174,1062.67224,244.73286,-76.72077,1039.97363
43,0.35,73.98079,-111.84954,1076.76587,188.2867,-162.34763,1062.76196,245.058,-76.43117,1040.49719
44,0.358,73.98079,-111.84954,1076.76587,188.24461,-162.20174,1062.67224,244.87849,-75.57546,1041.37402
45,0.367,73.98079,-111.84954,1076.76587,188.24461,-162.20174,1062.67224,245.07944,-74.45905,1041.03064
46,0.375,73.98079,-111.84954,1076.76587,188.13622,-160.8535,1063.02332,244.23039,-75.29034,1041.40576
47,0.383,73.98079,-111.84954,1076.76587,188.13622,-160.8535,1063.02332,244.87849,-75.57546,1041.37402
48,0.392,73.98079,-111.84954,1076.76587,188.33777,-162.19075,1062.83337,244.87849,-75.57546,1041.37402
49,0.4,73.98079,-111.84954,1076.76587,188.03163,-160.83138,1063.08423,244.87849,-75.57546,1041.37402
50,0.408,73.98079,-111.84954,1076.76587,188.13622,-160.8535,1063.02332,244.87849,-75.57546,1041.37402
51,0.417,73.98079,-111.84954,1076.76587,188.13622,-160.8535,1063.02332,244.87849,-75.57546,1041.37402
52,0.425,73.98079,-111.84954,1076.76587,188.13622,-160.8535,1063.02332,244.87849,-75.57546,1041.37402
53,0.433,73.98079,-111.84954,1076.76587,188.13622,-160.8535,1063.02332,244.87849,-75.57546,1041.37402
54,0.442,73.98079,-111.84954,1076.76587,188.13622,-160.8535,1063.02332,244.87849,-75.57546,1041.37402
55,0.45,73.98079,-111.84954,1076.76587,188.33777,-162.19075,1062.83337,244.87849,-75.57546,1041.37402
56,0.458,73.98079,-111.84954,1076.76587,188.13622,-160.8535,1063.02332,244.87849,-75.57546,1041.37402
57,0.467,73.98079,-111.84954,1076.76587,188.13622,-160.8535,1063.02332,245.25891,-75.31435,1040.15405
58,0.475,73.98079,-111.84954,1076.76587,188.13622,-160.8535,1063.02332,245.50819,-75.14169,1039.99951
59,0.483,74.30239,-111.86293,1076.75134,188.45819,-162.05531,1062.73975,245.92203,-75.71095,1039.54517
60,0.492,74.52122,-111.88528,1076.60242,188.13622,-160.8535,1063.02332,245.92203,-75.71095,1039.54517
61,0.5,74.52122,-111.88528,1076.60242,188.45819,-162.05531,1062.73975,245.92203,-75.71095,1039.54517
62,0.508,74.52122,-111.88528,1076.60242,188.61958,-162.30058,1062.67798,245.92203,-75.71095,1039.54517
63,0.517,74.52122,-111.88528,1076.60242,188.45819,-162.05531,1062.73975,245.92203,-75.71095,1039.54517
64,0.525,74.52122,-111.88528,1076.60242,188.61958,-162.30058,1062.67798,245.92203,-75.71095,1039.54517
65,0.533,74.52122,-111.88528,1076.60242,188.7341,-162.40675,1062.5946,245.92203,-75.71095,1039.54517
66,0.542,74.52122,-111.88528,1076.60242,188.56851,-162.45747,1062.60645,245.92203,-75.71095,1039.54517
67,0.55,74.52122,-111.88528,1076.60242,188.56851,-162.45747,1062.60645,245.92203,-75.71095,1039.54517
68,0.558,74.52122,-111.88528,1076.60242,188.56851,-162.45747,1062.60645,245.92203,-75.71095,1039.54517
69,0.567,74.52122,-111.88528,1076.60242,188.56851,-162.45747,1062.60645,245.92203,-75.71095,1039.54517
70,0.575,74.61997,-112.11003,1076.69714,188.93777,-162.56316,1062.52209,245.92203,-75.71095,1039.54517
71,0.583,74.61997,-112.11003,1076.69714,188.72386,-162.47589,1062.49316,245.92203,-75.71095,1039.54517
72,0.592,74.61997,-112.11003,1076.69714,188.56851,-162.45747,1062.60645,245.92203,-75.71095,1039.54517
73,0.6,74.61997,-112.11003,1076.69714,188.77617,-162.55267,1062.68433,245.92203,-75.71095,1039.54517
74,0.608,74.61997,-112.11003,1076.69714,188.7341,-162.40675,1062.5946,245.92203,-75.71095,1039.54517
75,0.617,74.61997,-112.11003,1076.69714,188.93152,-162.57106,1062.57104,245.92203,-75.71095,1039.54517
76,0.625,74.61997,-112.11003,1076.69714,188.88945,-162.42513,1062.48132,245.92203,-75.71095,1039.54517
77,0.633,74.51218,-112.01586,1076.11536,189.14543,-162.65829,1062.59998,245.92203,-75.71095,1039.54517
78,0.642,74.5952,-112.2813,1076.32117,188.57816,-161.3544,1062.79175,245.92203,-75.71095,1039.54517
79,0.65,74.72131,-112.30868,1076.17395,188.56798,-161.41367,1062.69897,245.92203,-75.71095,1039.54517
80,0.658,74.71621,-112.6294,1076.07813,188.94304,-161.43019,1062.71204,245.92203,-75.71095,1039.54517
81,0.667,74.5555,-112.44353,1076.1261,188.95116,-161.58362,1062.61914,245.92203,-75.71095,1039.54517
82,0.675,74.88203,-112.49459,1076.12598,188.95116,-161.58362,1062.61914,245.92203,-75.71095,1039.54517
83,0.683,74.84232,-112.65677,1075.93091,188.97076,-161.90868,1062.91724,245.92203,-75.71095,1039.54517
84,0.692,75.03673,-112.33392,1075.61719,188.97076,-161.90868,1062.91724,245.62799,-76.2073,1039.23816
85,0.7,75.07641,-112.17172,1075.81226,189.16757,-161.97279,1062.87878,245.84726,-76.84052,1038.86975
86,0.708,75.11978,-112.59935,1075.823,189.14305,-161.62672,1062.58667,245.84726,-76.84052,1038.86975
87,0.717,75.11978,-112.59935,1075.823,189.13408,-161.92194,1062.91003,245.84726,-76.84052,1038.86975
88,0.725,75.11978,-112.59935,1075.823,188.81966,-162.11223,1062.45203,245.80301,-76.39216,1038.64709
89,0.733,75.03673,-112.33392,1075.61719,189.16138,-162.08325,1062.35571,245.80301,-76.39216,1038.64709
90,0.742,75.34305,-113.15321,1075.58362,189.34622,-162.41615,1062.35046,245.84726,-76.84052,1038.86975
91,0.75,75.22987,-112.88519,1075.33044,189.34622,-162.41615,1062.35046,245.84726,-76.84052,1038.86975
92,0.758,74.99785,-112.96372,1075.47705,189.41212,-162.23987,1062.2168,245.84726,-76.84052,1038.86975
93,0.767,75.34305,-113.15321,1075.58362,189.63805,-164.18181,1062.06287,245.84726,-76.84052,1038.86975
94,0.775,75.13228,-113.37855,1075.42224,189.30359,-164.21606,1062.08643,245.84726,-76.84052,1038.86975
95,0.783,74.90025,-113.45707,1075.56885,189.4724,-164.18433,1062.02087,245.84726,-76.84052,1038.86975
96,0.792,75.00874,-113.69685,1075.4585,189.63805,-164.18181,1062.06287,245.84726,-76.84052,1038.86975
97,0.8,74.90025,-113.45707,1075.56885,189.26842,-164.22714,1061.96008,245.84726,-76.84052,1038.86975
98,0.808,74.73269,-113.74934,1075.58215,189.26842,-164.22714,1061.96008,245.84726,-76.84052,1038.86975
99,0.817,74.90025,-113.45707,1075.56885,189.26842,-164.22714,1061.96008,245.84726,-76.84052,1038.86975
100,0.825,75.00874,-113.69685,1075.4585,189.30359,-164.21606,1062.08643,245.84726,-76.84052,1038.86975
101,0.833,74.38742,-113.41445,1075.46765,189.40686,-164.42638,1062.22632,245.84726,-76.84052,1038.86975
102,0.842,75.00874,-113.69685,1075.4585,189.04883,-164.35504,1062.26074,245.84726,-76.84052,1038.86975
103,0.85,74.90025,-113.45707,1075.56885,188.83237,-164.26402,1062.22327,245.84726,-76.84052,1038.86975
104,0.858,75.00874,-113.69685,1075.4585,189.22876,-164.39053,1062.31274,245.84726,-76.84052,1038.86975
105,0.867,74.73269,-113.74934,1075.58215,189.21146,-164.36559,1062.25684,245.84726,-76.84052,1038.86975
106,0.875,75.00874,-113.69685,1075.4585,189.22876,-164.39053,1062.31274,245.84726,-76.84052,1038.86975
107,0.883,74.40655,-112.87977,1075.04053,189.40686,-164.42638,1062.22632,245.84726,-76.84052,1038.86975
108,0.892,74.40655,-112.87977,1075.04053,189.22876,-164.39053,1062.31274,245.84726,-76.84052,1038.86975
109,0.9,74.40655,-112.87977,1075.04053,189.22876,-164.39053,1062.31274,245.84726,-76.84052,1038.86975
110,0.908,74.68404,-112.82238,1074.93262,189.03438,-164.33136,1062.3468,245.84726,-76.84052,1038.86975
111,0.917,74.68404,-112.82238,1074.93262,189.14995,-164.23257,1062.39648,245.84726,-76.84052,1038.86975
112,0.925,74.79065,-112.91673,1075.51453,189.03438,-164.33136,1062.3468,245.84726,-76.84052,1038.86975
113,0.933,74.72686,-112.78813,1075.75452,189.22876,-164.39053,1062.31274,245.84726,-76.84052,1038.86975
114,0.942,74.72686,-112.78813,1075.75452,189.21146,-164.36559,1062.25684,245.84726,-76.84052,1038.86975
115,0.95,74.72686,-112.78813,1075.75452,189.22876,-164.39053,1062.31274,245.84726,-76.84052,1038.86975
116,0.958,74.72686,-112.78813,1075.75452,189.03438,-164.33136,1062.3468,245.84726,-76.84052,1038.86975
117,0.967,74.72686,-112.78813,1075.75452,189.03438,-164.33136,1062.3468,245.84726,-76.84052,1038.86975
118,0.975,74.83475,-112.88226,1076.33643,189.03438,-164.33136,1062.3468,245.84726,-76.84052,1038.86975
119,0.983,74.83503,-113.28423,1075.85376,188.82056,-164.2442,1062.31775,245.84726,-76.84052,1038.86975
120,0.992,74.83503,-113.28423,1075.85376,188.87175,-164.32082,1062.35071,245.84726,-76.84052,1038.86975
121,1,74.90025,-113.45707,1075.56885,188.55743,-162.33531,1062.40234,245.84726,-76.84052,1038.86975
122,1.008,74.62422,-113.50957,1075.6925,188.53471,-162.48779,1062.4364,245.84726,-76.84052,1038.86975
123,1.017,74.78705,-113.18909,1075.31567,188.53471,-162.48779,1062.4364,245.84726,-76.84052,1038.86975
124,1.025,74.51105,-113.24161,1075.43945,188.32527,-162.42065,1062.41089,245.84726,-76.84052,1038.86975
125,1.033,74.62422,-113.50957,1075.6925,188.3911,-162.2444,1062.27722,245.84726,-76.84052,1038.86975
126,1.042,74.51105,-113.24161,1075.43945,188.32527,-162.42065,1062.41089,245.84726,-76.84052,1038.86975
127,1.05,74.51105,-113.24161,1075.43945,188.32527,-162.42065,1062.41089,245.84726,-76.84052,1038.86975
128,1.058,74.51105,-113.24161,1075.43945,188.3911,-162.2444,1062.27722,245.84726,-76.84052,1038.86975
129,1.067,74.72186,-113.01624,1075.60071,188.64812,-163.16847,1062.38831,245.84726,-76.84052,1038.86975
130,1.075,74.72186,-113.01624,1075.60071,188.61551,-163.00499,1062.31567,245.84726,-76.84052,1038.86975
131,1.083,74.54568,-112.74935,1075.64685,188.56798,-161.41367,1062.69897,245.84726,-76.84052,1038.86975
132,1.092,74.42029,-112.70403,1075.82056,188.49239,-161.35028,1062.5542,245.84726,-76.84052,1038.86975
133,1.1,74.53694,-112.43693,1076.02454,188.76593,-162.62181,1062.58289,245.84726,-76.84052,1038.86975
134,1.108,74.57366,-112.22776,1076.2572,188.76593,-162.62181,1062.58289,245.84726,-76.84052,1038.86975
135,1.117,74.57366,-112.22776,1076.2572,188.56798,-161.41367,1062.69897,245.84726,-76.84052,1038.86975
136,1.125,74.61997,-112.11003,1076.69714,188.41263,-161.40501,1062.8042,246.11687,-76.22997,1039.20544
137,1.133,74.61997,-112.11003,1076.69714,188.41263,-161.40501,1062.8042,245.92203,-75.71095,1039.54517
138,1.142,74.61997,-112.11003,1076.69714,188.46585,-161.26801,1062.86853,245.92203,-75.71095,1039.54517
139,1.15,74.51218,-112.01586,1076.11536,188.46585,-161.26801,1062.86853,245.92203,-75.71095,1039.54517
140,1.158,74.19453,-111.76878,1076.16956,188.31076,-161.06317,1062.92517,245.92203,-75.71095,1039.54517
141,1.167,74.19453,-111.76878,1076.16956,188.55479,-162.70203,1063.18298,245.92203,-75.71095,1039.54517
142,1.175,74.19453,-111.76878,1076.16956,188.27092,-161.27483,1063.07141,245.92203,-75.71095,1039.54517
143,1.183,74.19453,-111.76878,1076.16956,188.28217,-161.0914,1062.74927,245.92203,-75.71095,1039.54517
144,1.192,74.19453,-111.76878,1076.16956,188.28217,-161.0914,1062.74927,245.92203,-75.71095,1039.54517
145,1.2,74.19453,-111.76878,1076.16956,188.4265,-162.09181,1063.073,245.92203,-75.71095,1039.54517
146,1.208,74.19453,-111.76878,1076.16956,188.28217,-161.0914,1062.74927,245.92203,-75.71095,1039.54517
147,1.217,74.30239,-111.86293,1076.75134,188.45819,-162.05531,1062.73975,245.92203,-75.71095,1039.54517
148,1.225,74.30239,-111.86293,1076.75134,188.44771,-161.04077,1062.73694,245.92203,-75.71095,1039.54517
149,1.233,74.30239,-111.86293,1076.75134,188.28217,-161.0914,1062.74927,245.92203,-75.71095,1039.54517
150,1.242,74.52122,-111.88528,1076.60242,188.27399,-160.93794,1062.84229,245.92203,-75.71095,1039.54517
151,1.25,74.52122,-111.88528,1076.60242,188.59492,-160.89597,1062.72461,245.92203,-75.71095,1039.54517
152,1.258,74.45251,-111.90987,1076.13037,188.77917,-162.02299,1062.6145,246.11687,-76.22997,1039.20544
153,1.267,74.45251,-111.90987,1076.13037,188.94054,-162.26825,1062.55273,246.11687,-76.22997,1039.20544
154,1.275,74.45251,-111.90987,1076.13037,188.94054,-162.26825,1062.55273,246.11687,-76.22997,1039.20544
155,1.283,74.45251,-111.90987,1076.13037,188.94054,-162.26825,1062.55273,246.11687,-76.22997,1039.20544
156,1.292,74.45251,-111.90987,1076.13037,188.77805,-162.25775,1062.55676,246.11687,-76.22997,1039.20544
157,1.3,74.45251,-111.90987,1076.13037,188.94054,-162.26825,1062.55273,246.11687,-76.22997,1039.20544
158,1.308,74.45251,-111.90987,1076.13037,188.94054,-162.26825,1062.55273,246.11687,-76.22997,1039.20544
159,1.317,74.45251,-111.90987,1076.13037,188.94054,-162.26825,1062.55273,246.11687,-76.22997,1039.20544
160,1.325,74.45251,-111.90987,1076.13037,188.94054,-162.26825,1062.55273,246.11687,-76.22997,1039.20544
161,1.333,74.45251,-111.90987,1076.13037,188.94054,-162.26825,1062.55273,246.11687,-76.22997,1039.20544
162,1.342,74.45251,-111.90987,1076.13037,188.77917,-162.02299,1062.6145,246.11687,-76.22997,1039.20544
163,1.35,74.45251,-111.90987,1076.13037,189.15446,-162.3555,1062.58179,246.11687,-76.22997,1039.20544
164,1.358,74.52122,-111.88528,1076.60242,189.15446,-162.3555,1062.58179,246.11687,-76.22997,1039.20544
165,1.367,74.52122,-111.88528,1076.60242,188.80449,-160.96317,1062.75012,245.92203,-75.71095,1039.54517
166,1.375,74.52122,-111.88528,1076.60242,188.92953,-160.81676,1062.80908,245.92203,-75.71095,1039.54517
167,1.383,74.55346,-111.48851,1076.573,188.77829,-160.84645,1062.93298,245.92203,-75.71095,1039.54517
168,1.392,74.44562,-111.39435,1075.99121,188.6666,-160.63266,1062.9751,245.92203,-75.71095,1039.54517
169,1.4,74.44562,-111.39435,1075.99121,188.67477,-160.78612,1062.8822,245.88821,-75.41983,1039.34155
170,1.408,74.55598,-111.15875,1076.10266,188.67477,-160.78612,1062.8822,245.88821,-75.41983,1039.34155
171,1.417,74.55598,-111.15875,1076.10266,188.90868,-160.85832,1062.90247,245.88821,-75.41983,1039.34155
172,1.425,74.55598,-111.15875,1076.10266,188.93768,-160.97018,1062.71619,245.88821,-75.41983,1039.34155
173,1.433,74.44562,-111.39435,1075.99121,189.2606,-160.89049,1062.61218,245.88821,-75.41983,1039.34155
174,1.442,74.72298,-111.33687,1075.8833,188.79399,-160.72678,1062.55701,245.88821,-75.41983,1039.34155
175,1.45,74.72298,-111.33687,1075.8833,188.95621,-161.04666,1062.38721,245.88821,-75.41983,1039.34155
176,1.458,74.72298,-111.33687,1075.8833,188.75797,-160.99916,1062.31213,245.88821,-75.41983,1039.34155
177,1.467,74.72298,-111.33687,1075.8833,189.04738,-160.9659,1062.24695,245.91115,-76.07575,1038.44299
178,1.475,74.83082,-111.43101,1076.46521,189.2037,-161.17006,1062.20813,245.91115,-76.07575,1038.44299
179,1.483,74.97077,-111.35956,1076.19702,189.2037,-161.17006,1062.20813,245.91115,-76.07575,1038.44299
180,1.492,75.09119,-111.15258,1075.48743,188.99416,-161.10291,1062.18262,245.91115,-76.07575,1038.44299
181,1.5,75.09119,-111.15258,1075.48743,188.98601,-160.94948,1062.27563,245.91115,-76.07575,1038.44299
182,1.508,75.02682,-110.97126,1075.27502,189.04048,-160.96082,1062.1792,245.91115,-76.07575,1038.44299
183,1.517,75.02682,-110.97126,1075.27502,189.07416,-160.70016,1062.13318,245.91115,-76.07575,1038.44299
184,1.525,75.02682,-110.97126,1075.27502,189.17772,-160.64079,1062.03992,245.91115,-76.07575,1038.44299
185,1.533,74.99009,-111.1805,1075.04211,189.39876,-160.69748,1062.00769,245.91115,-76.07575,1038.44299
186,1.542,74.99009,-111.1805,1075.04211,189.39876,-160.69748,1062.00769,245.91115,-76.07575,1038.44299
187,1.55,74.99009,-111.1805,1075.04211,189.50752,-161.27823,1061.96973,245.74239,-76.63659,1037.86096
188,1.558,74.99009,-111.1805,1075.04211,189.50752,-161.27823,1061.96973,245.74239,-76.63659,1037.86096
189,1.567,75.07378,-111.05046,1074.86279,189.40207,-160.77571,1061.78662,245.74239,-76.63659,1037.86096
190,1.575,75.02682,-110.97126,1075.27502,189.18105,-160.71904,1061.81885,245.74239,-76.63659,1037.86096
191,1.583,75.03934,-110.87249,1074.5918,188.9722,-160.76028,1061.6875,245.74239,-76.63659,1037.86096
192,1.592,75.03934,-110.87249,1074.5918,189.15717,-160.51933,1061.66577,245.57632,-76.46283,1037.74438
193,1.6,74.94504,-110.97209,1074.73889,189.48763,-160.72209,1061.84631,245.74239,-76.63659,1037.86096
