Frame#,Time,R.Forearm.x,R.Forearm.y,R.Forearm.z,R.Ulna.x,R.Ulna.y,R.Ulna.z,R.Radius.x,R.Radius.y,R.Radius.z
1,0,1854.36499,312.79758,1081.88647,1903.51917,365.39206,979.54944,1832.39941,316.9841,899.05975
2,0.008,1847.91333,306.41693,1081.31116,1899.35632,366.92453,980.05292,1827.87231,317.70886,899.03943
3,0.017,1842.38989,308.36945,1079.96667,1891.07483,363.92203,979.90112,1823.07751,316.42389,900.70227
4,0.025,1839.0459,305.9574,1079.93408,1888.50244,364.59805,980.03778,1819.41125,315.16409,901.64972
5,0.033,1834.67444,304.22388,1081.06812,1885.31189,365.42279,979.91772,1813.23303,316.60007,900.92291
6,0.042,1831.42236,305.76611,1080.62,1876.64148,362.71719,979.35876,1810.89807,315.90884,900.65894
7,0.05,1825.38354,305.88437,1079.85767,1873.14063,363.21683,979.98401,1805.91321,314.841,901.3786
8,0.058,1821.0979,303.28595,1079.95752,1870.8551,363.97714,979.94354,1801.07312,315.03137,901.1673
9,0.067,1818.08887,303.05878,1079.9447,1865.47913,362.70334,981.11353,1796.36963,315.00781,901.41803
10,0.075,1816.57007,301.05908,1080.28345,1860.32642,361.98608,982.61078,1793.42114,314.92117,900.9281
11,0.083,1808.6781,300.47961,1079.92029,1859.32544,361.99786,982.84357,1788.90393,313.13727,901.12042
12,0.092,1807.81519,300.65781,1079.25049,1853.88867,362.36652,982.39746,1786.35083,314.2305,900.51422
13,0.1,1804.06079,300.62973,1080.33545,1848.57642,359.94595,982.45282,1780.92883,314.44568,900.89728
14,0.108,1797.7323,298.67661,1080.05676,1845.08875,360.19452,982.34857,1777.47888,312.95816,900.42151
15,0.117,1794.57227,300.27533,1079.63269,1842.29675,360.26587,982.15686,1774.29102,312.99338,899.96051
16,0.125,1791.39124,298.50638,1078.68323,1837.23901,357.59341,981.43561,1768.52429,312.32224,900.2182
17,0.133,1784.5675,296.79327,1078.67188,1834.59802,357.7283,981.04993,1765.84546,313.7012,898.69348
18,0.142,1783.6427,296.30914,1078.44373,1832.18726,357.94131,981.22644,1761.70947,311.94818,898.00848
19,0.15,1779.93616,295.82617,1078.78113,1826.28845,355.63232,979.159,1756.41736,312.63837,898.21307
20,0.158,1771.52588,295.53128,1077.35254,1823.08411,355.42358,980.22174,1756.198,310.7886,898.45367
21,0.167,1769.00073,296.1828,1076.50549,1821.78638,355.72852,980.49109,1751.1239,309.82056,897.1405
22,0.175,1764.32764,293.87033,1075.42786,1817.34814,354.64261,978.51868,1746.9104,310.76151,896.65784
23,0.183,1759.06543,293.85876,1075.17578,1813.11707,352.14911,978.15991,1743.46997,309.61508,895.99109
24,0.192,1755.66089,292.80676,1074.78564,1810.04663,352.58395,978.04517,1739.50684,308.25812,894.84271
25,0.2,1752.25183,290.61838,1074.85144,1805.72925,350.43506,977.89148,1737.49658,308.51773,894.51495
26,0.208,1748.17432,290.46616,1073.95398,1801.31409,349.52454,977.14215,1731.95215,307.45941,895.00928
27,0.217,1744.0675,286.92218,1074.25562,1798.05408,349.54129,978.70581,1729.91882,304.25162,894.52588
28,0.225,1739.23816,284.65924,1074.47754,1792.43237,345.76035,978.54889,1727.48254,303.66357,892.49756
29,0.233,1733.2605,284.60754,1072.53857,1788.88611,345.42453,978.77899,1721.66687,303.35938,892.65491
30,0.242,1730.97791,283.07648,1072.35266,1785.0885,344.24426,978.99359,1719.41382,300.20465,892.68494
31,0.25,1726.51978,280.84839,1073.03003,1781.5791,341.82571,979.72595,1716.32129,300.86368,893.23901
32,0.258,1722.35742,278.16129,1073.21008,1777.84192,340.2937,980.39014,1711.54126,300.03299,894.70282
33,0.267,1718.29517,273.18686,1075.3949,1773.87585,337.85223,981.35138,1707.25293,298.64053,895.12463
34,0.275,1713.48865,272.83057,1077.63306,1771.50745,337.44461,984.76135,1704.14636,296.89923,895.53778
35,0.283,1708.49414,269.50961,1078.10803,1766.9458,333.46399,986.33179,1701.83191,293.66486,897.90637
36,0.292,1702.89795,268.8584,1078.48828,1763.27502,332.69604,987.95142,1694.6593,296.28632,899.005
37,0.3,1696.32666,267.65442,1083.30786,1758.27136,329.83069,991.77771,1695.38013,290.72897,901.92828
38,0.308,1693.10217,264.08432,1084.63147,1754.01514,327.10114,993.45648,1691.79211,289.22238,904.82501
39,0.317,1688.99194,261.05072,1087.72791,1750.03394,325.31992,996.25952,1686.72437,288.26321,908.0954
40,0.325,1684.19934,258.63126,1090.78137,1744.7749,323.78802,999.7442,1682.47778,286.77158,909.94019
41,0.333,1679.27478,258.74872,1091.86084,1741.60669,322.46283,1001.07874,1678.40564,287.009,910.2655
42,0.342,1673.13232,256.16461,1093.79871,1737.56689,321.78925,1004.56873,1673.75256,284.28717,913.04578
43,0.35,1668.18433,256.80908,1095.72974,1732.47388,319.87253,1006.37195,1670.34277,282.73947,915.17432
44,0.358,1663.04541,256.24722,1096.14063,1727.64771,319.92642,1007.78046,1663.49829,283.88098,916.12286
45,0.367,1659.6239,254.27187,1098.82788,1721.37988,319.99054,1009.95654,1657.02637,283.85422,918.21887
46,0.375,1655.06714,254.5343,1100.76184,1716.46338,318.06183,1010.79913,1652.59753,283.29343,919.38727
47,0.383,1648.89478,254.22124,1102.44604,1710.9176,317.95221,1011.24103,1651.45483,278.23596,920.60095
48,0.392,1644.0498,253.66142,1102.86658,1708.46411,317.1225,1012.76575,1647.59607,275.858,920.92639
49,0.4,1640.39734,254.6172,1103.01892,1702.58374,316.45245,1012.90735,1644.3374,275.97061,921.87567
50,0.408,1635.20447,253.12511,1103.74805,1697.16602,317.27466,1014.18176,1638.35254,275.55627,923.52496
51,0.417,1630.71997,252.73651,1104.82214,1691.76099,314.72638,1015.61102,1632.75049,276.83847,924.26306
52,0.425,1626.16516,252.51448,1106.21533,1687.32385,314.80637,1015.79889,1629.08875,273.49802,923.94617
53,0.433,1621.55664,248.371,1106.71265,1682.82141,314.37842,1016.20294,1625.34204,273.65829,925.01208
54,0.442,1616.91333,249.3277,1106.46729,1678.7196,314.42142,1016.35614,1620.79614,273.28027,925.35059
55,0.45,1614.10022,247.55229,1106.75464,1674.15491,314.06784,1016.12238,1615.85388,272.34341,924.70453
56,0.458,1607.9613,248.3051,1106.54639,1668.51709,312.95047,1016.24377,1610.61426,272.95178,925.15955
57,0.467,1602.16797,247.21857,1105.87427,1663.72888,311.8923,1016.83435,1606.63342,272.37964,925.39099
58,0.475,1597.49878,246.24634,1106.29504,1661.00256,312.02368,1017.23724,1601.39063,271.5882,924.97913
59,0.483,1592.50012,246.54919,1105.89417,1655.74109,311.02719,1016.84662,1595.91064,270.53522,925.14642
60,0.492,1588.31226,246.35085,1105.88989,1650.43689,311.33072,1017.47888,1592.39136,271.74246,926.27234
61,0.5,1583.76416,244.78084,1105.68274,1645.60181,311.94724,1017.38037,1587.16943,271.54242,926.63654
62,0.508,1579.94202,244.77179,1106.04285,1639.59131,309.87192,1015.58038,1580.97571,271.4574,926.37854
63,0.517,1574.04785,244.56116,1106.00317,1635.41089,311.15741,1016.72882,1576.09265,271.47861,925.61157
64,0.525,1567.88159,245.10136,1105.74438,1629.45496,311.83478,1016.80182,1569.35266,273.39444,925.02155
65,0.533,1562.90125,245.19826,1105.43799,1624.24011,310.02054,1016.39685,1564.90771,272.41751,924.69354
66,0.542,1556.75085,244.40454,1106.41138,1619.83545,310.88861,1016.05371,1557.7616,272.51941,925.75903
67,0.55,1552.91418,245.53497,1105.76709,1613.95569,311.60117,1016.43738,1554.01172,271.89703,925.61786
68,0.558,1546.06409,248.89885,1106.38269,1608.19885,309.92639,1016.55322,1548.26367,271.14548,925.05981
69,0.567,1541.58044,246.14714,1106.06714,1602.98816,311.23804,1016.50208,1541.95667,271.47409,924.63721
70,0.575,1537.82288,245.47229,1105.81433,1597.51917,310.65692,1016.01996,1536.08997,270.96255,924.78961
71,0.583,1531.17505,247.14565,1105.82251,1592.13086,310.0072,1015.14099,1528.0199,273.45132,924.66235
72,0.592,1525.91199,245.63956,1105.07471,1587.30042,310.6395,1014.44678,1525.32532,270.54004,925.08032
73,0.6,1521.00378,246.38855,1105.54724,1581.07019,309.30246,1014.2428,1520.35291,268.68503,925.48138
74,0.608,1515.78833,246.43568,1104.89954,1576.38464,309.85501,1013.68219,1513.72437,270.4664,924.21411
75,0.617,1510.48987,245.86685,1104.52429,1572.25525,308.41476,1013.44128,1507.89355,269.75934,923.15186
76,0.625,1506.07007,246.09227,1104.16565,1566.17834,308.52631,1011.63562,1500.03186,271.05655,922.86353
77,0.633,1501.84436,245.51289,1102.29504,1561.12793,309.58212,1011.67401,1493.86182,271.19965,922.29236
78,0.642,1495.60522,246.35956,1102.52002,1554.69946,307.57129,1010.81488,1491.96008,266.95621,922.38611
79,0.65,1490.31982,244.86176,1102.15503,1549.58044,308.33575,1009.21631,1486.36169,268.06577,920.93585
80,0.658,1486.5166,243.68192,1101.19739,1544.30164,307.86716,1008.0116,1481.44653,267.48987,920.32135
81,0.667,1479.74841,245.27846,1100.31946,1538.94812,308.01379,1007.66602,1476.32288,267.40814,919.60498
82,0.675,1474.1593,244.94104,1099.51758,1533.52661,308.58368,1007.18219,1470.42627,267.31268,918.89581
83,0.683,1469.9718,244.25293,1097.85461,1527.02625,307.6655,1004.68567,1463.1488,267.98532,917.60797
84,0.692,1464.52454,245.69415,1097.63464,1521.18408,308.25723,1004.03815,1458.68115,265.5845,916.30322
85,0.7,1458.24341,245.45003,1095.16541,1516.78699,308.7009,1003.29425,1451.23511,269.04211,914.8327
86,0.708,1453.97729,244.86974,1094.81604,1511.18591,309.66687,1002.63629,1444.56616,269.40265,913.94684
87,0.717,1447.94543,246.84392,1092.95447,1505.80383,308.46167,1000.03156,1442.20142,266.77338,913.08679
88,0.725,1443.35083,246.28018,1091.17041,1500.53833,309.14078,998.50043,1436.00525,267.50995,912.26715
89,0.733,1438.25977,244.70879,1090.65796,1494.7002,309.49844,997.12726,1430.04749,267.72415,909.15094
90,0.742,1431.47681,248.68901,1090.02734,1490.08081,310.18079,996.21466,1424.64587,269.55423,908.74573
91,0.75,1424.07715,250.81606,1087.64893,1483.20056,309.98462,994.22852,1416.10583,271.23898,907.14398
92,0.758,1419.46179,249.25124,1086.39282,1478.16382,311.13937,992.99426,1412.86914,268.14139,905.27283
93,0.767,1413.16516,250.58475,1085.81567,1472.03076,311.26239,990.70154,1408.09875,267.41696,903.89368
94,0.775,1408.51074,249.59323,1083.46594,1466.2417,311.4903,988.57037,1401.81567,268.47916,902.30066
95,0.783,1401.14099,251.14122,1081.52478,1460.28406,311.93686,987.44971,1393.97913,270.97635,900.32184
96,0.792,1395.12769,250.80124,1080.40186,1453.37378,313.09491,985.62488,1387.94446,270.86273,898.48254
97,0.8,1388.96472,252.74852,1078.55591,1447.87695,313.26334,984.37848,1384.41345,268.8743,897.56177
98,0.808,1382.07935,253.85437,1076.37939,1440.84863,313.58786,981.67865,1378.22595,270.35425,894.9574
99,0.817,1376.12268,254.58972,1074.91675,1434.61902,315.151,980.83099,1371.41528,269.80865,893.60596
100,0.825,1368.90552,255.42155,1072.94019,1427.32117,316.2551,978.23364,1366.07104,271.28867,891.26764
101,0.833,1362.44067,257.5051,1071.55774,1419.75305,317.47272,977.47864,1359.07349,269.33533,891.00641
102,0.842,1356.08325,256.64481,1070.54956,1413.81238,317.70932,976.72821,1353.68591,270.8439,889.62274
103,0.85,1348.62207,257.46582,1068.98486,1408.27527,318.38782,976.66266,1346.02515,271.10791,887.83783
104,0.858,1340.61572,259.48712,1069.40332,1399.63623,319.58151,974.30145,1340.82495,269.85483,887.4389
105,0.867,1335.20654,258.77438,1068.98853,1393.62036,319.47873,974.2854,1333.08875,271.68417,886.81201
106,0.875,1327.20972,261.00409,1068.0498,1386,321.34235,974.61584,1326.76672,272.40494,886.77039
107,0.883,1320.50342,260.46155,1068.91663,1379.87439,321.27893,974.5108,1319.48511,271.52222,886.26367
108,0.892,1312.9696,262.86703,1069.14319,1372.37439,321.55765,974.57849,1311.77661,274.13535,887.23486
109,0.9,1306.19641,263.02551,1070.20801,1365.39526,323.02783,975.18207,1305.68494,274.5358,888.08093
110,0.908,1299.65771,262.27518,1070.90222,1358.45764,323.18573,976.61041,1299.8374,274.20673,888.81427
111,0.917,1292.78821,264.24689,1071.51672,1351.72595,323.31778,977.67987,1292.09021,275.33722,890.00226
112,0.925,1284.64832,265.45798,1073.30188,1345.01599,324.01044,978.34344,1285.87964,275.19754,890.8446
113,0.933,1278.27344,266.12125,1074.07214,1336.78284,324.05048,978.89392,1278.32837,277.16794,892.45172
114,0.942,1270.46863,268.30612,1075.30481,1329.81409,326.64026,981.1615,1269.354,276.88406,894.10364
115,0.95,1263.29944,268.41696,1076.64783,1321.8302,327.63748,980.66919,1260.41235,281.23166,893.65833
116,0.958,1256.15234,269.84323,1076.67322,1314.96753,328.94534,981.06342,1255.66028,279.77145,894.67566
117,0.967,1248.99365,270.07251,1076.80835,1307.89038,329.42191,981.38733,1246.86426,280.87289,895.69086
118,0.975,1241.09949,273.39432,1078.43848,1300.55872,330.29086,982.27942,1238.13904,285.14978,896.2323
119,0.983,1234.46106,274.6629,1078.8866,1292.6239,333.84079,983.84125,1231.8208,282.2334,897.00165
120,0.992,1226.60657,275.1843,1079.67615,1284.49048,333.93387,982.86615,1224.97571,285.06915,897.47809
121,1,1219.08997,279.20633,1079.58887,1277.09399,335.51221,982.65179,1215.43677,286.43564,896.43909
122,1.008,1211.96411,279.49387,1078.83752,1270.1626,336.00714,983.18671,1206.85071,289.74359,897.01111
123,1.017,1204.61853,280.75238,1078.8429,1261.76331,339.19885,983.30615,1201.3125,288.53818,897.3175
124,1.025,1197.27234,281.39386,1078.98218,1253.56714,340.25848,982.05182,1193.17114,290.46698,897.24377
125,1.033,1190.17615,283.87173,1079.04419,1246.04004,342.07828,982.04572,1186.21863,292.11572,897.5849
126,1.042,1182.06458,285.69348,1078.70825,1239.28503,341.96429,982.07257,1177.52771,291.98889,897.68445
127,1.05,1175.71765,286.54889,1078.60779,1229.84705,344.15714,981.70148,1170.74487,294.6268,897.22705
128,1.058,1168.8833,285.96262,1078.49573,1222.96899,345.45844,981.2442,1162.12512,294.31464,896.28027
129,1.067,1161.86365,287.37955,1078.12915,1215.77722,346.28461,980.82019,1156.28528,295.51523,896.78192
130,1.075,1155.59229,288.23633,1077.88928,1208.78223,348.25516,981.23126,1147.91382,296.8363,896.23724
131,1.083,1148.04846,288.38992,1078.3114,1200.92578,349.58746,982.3526,1140.55688,298.74335,896.48712
132,1.092,1142.34192,288.47568,1078.21313,1194.37866,350.74997,982.12244,1135.69373,298.1817,896.04401
133,1.1,1135.25488,290.28336,1078.21118,1187.15186,351.45255,982.12744,1127.19763,299.38007,896.40259
134,1.108,1129.18213,290.01749,1078.38647,1181.03296,351.2048,983.1084,1120.3562,300.82593,896.75317
135,1.117,1123.72607,289.62393,1080.31421,1174.03552,352.52863,983.01923,1114.11279,303.04034,898.94208
136,1.125,1115.28955,290.45273,1079.64514,1167.50696,351.8833,983.47888,1107.3175,303.26883,898.81488
137,1.133,1110.30908,289.11447,1079.97974,1162.0553,352.84064,983.38507,1099.96399,303.51553,899.27643
138,1.142,1104.53796,290.20135,1080.72498,1155.20691,354.42343,984.62543,1093.83838,305.33963,900.04614
139,1.15,1098.97668,289.79959,1080.95581,1148.80237,354.45966,984.81049,1087.4834,305.50412,900.8692
140,1.158,1091.0592,290.33707,1081.88049,1142.97302,355.62936,985.87891,1080.50427,307.00824,901.05823
141,1.167,1085.5415,291.38339,1082.95129,1136.8363,354.79361,986.72913,1075.01636,308.27557,902.89655
142,1.175,1080.36414,291.73837,1083.20068,1132.23779,355.43454,987.8454,1069.00745,306.58542,903.43188
143,1.183,1074.26538,291.20389,1083.84583,1125.14441,354.92184,988.63635,1060.27856,309.88181,904.26605
144,1.192,1067.55249,290.92706,1084.46655,1119.30042,355.37772,989.76367,1056.94153,306.90842,904.3924
145,1.2,1061.60913,292.89957,1085.34875,1113.19116,354.11072,989.96948,1050.01392,308.5087,905.36737
146,1.208,1055.49927,292.42145,1086.35889,1108.29504,355.06482,991.44147,1045.30249,306.76376,905.62494
147,1.217,1049.81335,292.06152,1087.36096,1102.03491,355.52478,991.5036,1037.14404,309.16592,906.97241
148,1.225,1045.44714,292.41113,1087.63196,1095.38708,354.25479,992.31,1030.76099,309.46188,906.66144
149,1.233,1038.36743,291.35822,1088.75635,1090.73596,354.4205,993.34491,1025.94666,308.92838,908.67358
150,1.242,1032.92212,291.09827,1089.65466,1084.97107,353.11603,993.75757,1022.1864,304.72235,909.5686
151,1.25,1028.07776,289.11893,1090.93945,1079.85229,352.92078,994.51971,1016.16937,306.1459,910.00635
152,1.258,1023.44067,290.03354,1090.255,1073.55969,352.51776,995.31396,1011.40381,304.98608,909.44385
153,1.267,1017.74615,287.09265,1090.68982,1067.57751,351.96985,995.10925,1005.37372,305.30673,910.69397
154,1.275,1011.96069,287.58261,1090.75256,1062.63574,351.56421,995.10938,1000.82825,304.17352,909.95972
155,1.283,1006.77478,286.4061,1090.17053,1057.34729,350.33823,994.71124,993.46875,305.86923,909.58453
156,1.292,1002.10376,285.5899,1090.52795,1052.55322,350.1489,994.73059,989.78345,302.20352,909.18805
157,1.3,995.40546,284.41235,1089.94653,1047.02258,349.32593,995.32605,984.24036,302.92603,908.95422
158,1.308,990.815,283.97467,1089.89319,1041.80286,348.75461,994.51697,978.63049,301.50009,908.41052
159,1.317,986.5639,282.16742,1089.52515,1036.323,347.63242,994.56482,974.43286,301.45801,908.9942
160,1.325,980.39465,282.1705,1088.83862,1031.07471,346.60086,994.08752,968.33862,299.55197,908.33154
161,1.333,976.65906,279.60657,1088.39673,1026.63,346.50818,993.5639,964.20551,299.82425,907.81567
162,1.342,971.81445,278.48392,1087.52441,1020.90765,344.93884,993.73169,956.13208,300.65298,907.24878
163,1.35,965.90088,277.56342,1087.05103,1016.77826,344.39978,992.22345,950.80786,301.03488,906.74939
164,1.358,960.60992,275.98438,1086.56799,1011.46924,342.98172,992.36157,945.30841,300.09366,906.69537
165,1.367,955.77252,276.25369,1086.01453,1007.51404,342.2785,991.06848,939.97144,299.20499,906.32629
166,1.375,950.8985,274.33487,1085.6167,1001.65314,340.08899,991.21466,934.60254,298.64291,905.64465
167,1.383,946.54169,271.45441,1084.35559,997.91833,338.29373,990.7027,931.80029,296.00821,906.25226
168,1.392,941.22461,270.98782,1084.54517,991.85028,336.41599,990.41406,927.20135,293.78842,905.33478
169,1.4,936.36572,268.45035,1083.57898,986.54852,335.30215,990.36243,921.51776,294.26773,905.18286
170,1.408,932.20221,266.61935,1083.34375,982.2995,334.1734,990.80493,916.5921,293.29681,905.27563
171,1.417,926.18872,265.28119,1084.04138,977.45215,332.39352,990.72089,911.78741,290.02554,905.427
172,1.425,919.63013,262.69006,1084.57654,973.59021,330.03214,992.00397,906.1355,289.6243,906.32367
173,1.433,915.90356,260.65076,1085.69946,968.15894,327.99899,993.15717,902.64917,286.8999,906.15039
174,1.442,910.35004,257.32672,1087.26697,963.47266,324.26953,994.06464,895.04401,287.89151,907.86859
175,1.45,904.98767,255.23277,1088.76001,957.92889,323.81378,996.34137,889.35352,285.315,909.62207
176,1.458,899.48395,253.12584,1089.64722,952.86084,321.35852,997.99121,885.76959,283.85617,910.61444
177,1.467,893.96857,250.9377,1091.97119,947.91748,319.28195,1000.07684,883.67084,277.97623,912.73175
178,1.475,888.59888,247.54581,1093.76465,941.86835,317.49091,1001.60498,876.72766,275.94547,914.90662
179,1.483,882.65869,247.51544,1095.28247,935.49115,315.49673,1003.43567,870.68152,276.52151,915.59515
180,1.492,877.07953,245.59831,1096.47839,930.70618,314.46387,1004.84167,867.18396,272.88046,916.99908
181,1.5,871.25323,243.65167,1097.54871,924.29559,313.03003,1005.83551,860.53058,272.82278,918.0473
182,1.508,866.08136,243.03944,1098.70264,917.99634,311.98212,1006.81567,856.07935,268.06537,918.78857
183,1.517,859.76563,242.22394,1099.20007,912.16327,311.98447,1007.87817,849.1145,268.60983,919.85791
184,1.525,854.14966,241.82431,1099.94177,905.52441,311.16882,1008.23853,842.96997,268.72498,920.16681
185,1.533,848.51868,242.17226,1100.31702,900.16754,311.43839,1008.61456,836.38501,266.34402,919.89014
186,1.542,842.7749,242.72292,1101.70349,893.74573,309.81934,1008.43274,832.92596,265.0903,921.00604
187,1.55,837.67865,242.25557,1101.62415,887.85437,310.37701,1008.78137,828.53503,262.67612,920.72339
188,1.558,832.2959,240.9015,1102.17004,881.32678,309.3475,1008.54858,821.16174,262.13132,920.7652
189,1.567,826.17407,240.68767,1102.06714,876.23071,308.8143,1008.79651,816.71881,261.22464,920.68658
190,1.575,820.40833,239.94429,1101.57483,870.40906,308.40576,1008.36609,809.86188,261.9209,920.98242
191,1.583,816.05243,239.39218,1101.59009,866.09894,307.85101,1007.82336,803.41376,263.79401,921.41016
192,1.592,810.54742,240.97719,1101.14624,860.10205,307.28708,1007.39703,799.25409,261.50964,921.28125
193,1.6,805.87366,238.7379,1100.56226,855.56464,306.6937,1007.5639,791.36951,263.21655,921.35986
194,1.608,801.41248,238.24637,1100.30896,850.55188,306.00937,1007.21564,787.63373,260.46072,921.539
195,1.617,796.75775,237.34285,1099.67004,845.83362,305.95261,1006.42133,782.02283,262.40079,921.22986
