Frame#,Time,R.Forearm.x,R.Forearm.y,R.Forearm.z,R.Ulna.x,R.Ulna.y,R.Ulna.z,R.Radius.x,R.Radius.y,R.Radius.z
1,0,1721.76624,285.61694,897.99805,1736.50037,320.05127,814.47327,1667.55981,293.37842,767.15479
2,0.008,1713.35303,287.24658,900.19659,1725.9635,320.57831,815.98065,1656.31409,291.66418,769.23364
3,0.017,1703.49097,287.40622,901.97748,1715.96362,321.42456,816.36127,1644.99146,292.88248,770.47076
4,0.025,1695.16235,287.91159,903.03107,1704.35913,320.95453,818.74554,1631.80371,294.13315,774.19891
5,0.033,1684.59204,288.38678,905.58386,1694.69873,321.99573,819.40601,1621.22839,292.74942,776.55646
6,0.042,1675.59119,289.80893,905.5741,1684.92151,322.1908,820.72021,1612.87988,294.22192,778.44318
7,0.05,1668.37537,288.80569,905.9715,1673.297,321.0932,820.99744,1600.88245,294.18982,781.01416
8,0.058,1658.40161,287.87369,905.49603,1665.276,323.19284,821.39679,1589.72522,292.65921,781.9397
9,0.067,1649.82898,289.17145,906.89594,1653.96924,322.67239,823.3244,1579.97363,294.94495,784.34882
10,0.075,1641.92468,291.62024,908.62592,1645.12561,324.44858,824.04926,1571.50781,293.53317,786.27313
11,0.083,1633.0636,291.32739,909.52643,1635.6842,323.73209,824.93677,1559.51538,293.94174,788.33331
12,0.092,1626.4281,291.39908,910.40558,1627.40149,324.28479,824.68286,1550.97803,296.21289,790.9079
13,0.1,1618.59937,291.03482,909.3653,1618.12854,324.49655,825.06287,1540.31885,295.44833,792.34753
14,0.108,1611.94995,292.50873,910.58136,1611.49121,324.60809,825.10858,1533.50244,296.72107,793.56952
15,0.117,1604.70935,290.61288,910.27057,1601.88721,325.69708,825.30194,1523.80029,296.23758,793.85449
16,0.125,1598.29395,291.38922,911.11359,1593.09583,325.07617,824.63013,1515.45776,297.06091,795.43854
17,0.133,1588.79675,294.95441,911.14783,1584.78406,325.60995,824.59216,1504.78345,297.466,795.82367
18,0.142,1581.87524,292.8959,908.73358,1577.85217,327.17136,825.40912,1497.47461,297.62341,796.83417
19,0.15,1575.9458,295.52142,910.47522,1569.56104,327.12558,824.94958,1490.92322,297.2388,796.38361
20,0.158,1568.67786,294.81485,908.76379,1563.63196,328.82788,824.41437,1484.4281,297.80768,795.98822
21,0.167,1564.06836,294.68335,908.73389,1554.83875,327.71436,822.54248,1476.04077,298.60413,796.95453
22,0.175,1554.48572,296.46674,907.9314,1547.77466,328.89383,823.22894,1468.50061,300.84653,796.72827
23,0.183,1547.21362,295.00745,906.47162,1540.73535,330.0274,822.56329,1458.37769,300.88461,795.11523
24,0.192,1542.42065,296.31052,905.92059,1534.02246,330.64236,821.78534,1453.73816,302.84341,795.3949
25,0.2,1534.43323,296.8945,904.85681,1526.69702,332.68896,820.83264,1448.17627,302.22586,793.63092
26,0.208,1528.98621,296.60898,903.42328,1521.17566,332.0722,819.93835,1442.64734,301.461,790.98279
27,0.217,1522.15601,297.50928,900.8877,1514.73096,333.21658,818.36792,1436.25049,303.62634,789.98181
28,0.225,1516.45557,298.15683,900.56885,1508.65112,334.63919,816.61829,1430.17407,302.34634,788.62866
29,0.233,1509.65894,300.41827,898.48944,1503.08301,335.03561,816.22589,1425.21899,303.5235,786.86584
30,0.242,1503.88745,300.02628,898.31818,1498.59314,335.74286,813.9754,1419.84753,306.77814,784.94293
31,0.25,1498.21533,300.70078,896.34686,1492.04846,336.6452,812.13324,1412.61377,308.54999,783.03894
32,0.258,1493.11975,300.93054,895.63232,1487.98889,336.73395,811.54205,1407.55066,308.16995,781.37592
33,0.267,1487.56396,301.1926,894.70508,1483.27258,336.07816,811.19879,1403.70313,308.4408,779.95526
34,0.275,1481.70203,301.70956,892.15753,1478.03235,338.28134,810.12329,1400.33752,310.29105,776.69299
35,0.283,1478.19141,302.25662,891.27173,1474.4624,338.64691,808.43451,1396.11792,310.02274,775.21082
36,0.292,1473.73779,302.17645,891.44714,1470.65015,339.83527,806.88702,1392.12512,308.74387,773.96881
37,0.3,1467.00476,303.33591,888.62518,1466.18274,340.22171,806.30432,1388.62585,310.28223,772.05096
38,0.308,1462.97351,303.74191,887.9411,1461.9281,339.61551,805.36603,1384.98132,312.25687,769.57721
39,0.317,1457.22083,305.64478,887.26556,1459.16028,340.53503,804.50403,1381.79199,313.68555,767.6225
40,0.325,1454.61768,306.09216,886.56635,1456.40588,342.4971,803.20551,1378.97412,314.13339,767.02844
41,0.333,1449.3479,304.59009,885.47876,1452.36902,342.89935,802.5611,1375.32263,316.26089,764.39709
42,0.342,1444.35962,306.66479,883.04834,1450.28711,344.00494,801.02679,1373.94324,316.75497,762.10883
43,0.35,1441.99707,308.17334,881.979,1446.81628,344.43057,798.27454,1369.77441,318.38242,760.55743
44,0.358,1438.43359,309.73123,882.03333,1443.96362,344.98788,797.30804,1367.63818,319.76471,758.03217
45,0.367,1434.36401,310.34738,879.44763,1441.97705,344.02643,796.38666,1365.92114,320.44412,756.7099
46,0.375,1431.0332,311.53458,878.8855,1439.96912,344.24576,795.46777,1363.07959,323.79514,754.47571
47,0.383,1426.25403,310.741,878.04205,1438.75183,343.92361,795.07361,1361.74451,322.18732,752.91315
48,0.392,1423.59155,311.18805,877.82916,1435.76929,344.48746,794.12189,1359.78174,321.89005,751.53589
49,0.4,1419.99084,312.23883,877.70856,1432.97729,342.26651,794.10345,1358.39844,321.04007,750.68048
50,0.408,1416.08008,313.19022,876.94995,1431.15125,342.31131,793.72778,1356.88672,320.6936,748.12543
51,0.417,1412.69641,311.37,876.96002,1429.26355,342.42975,794.06396,1355.44519,321.29636,747.87366
52,0.425,1409.18738,310.52487,876.39752,1427.50085,342.11154,793.55988,1354.96436,319.92798,747.38391
53,0.433,1407.11475,311.08344,877.58081,1424.64893,342.56094,794.4693,1353.23328,320.99643,746.87579
54,0.442,1402.59485,310.15973,877.44995,1424.13525,341.366,795.45703,1351.49927,318.1145,745.96667
55,0.45,1401.00549,310.06079,878.50684,1421.45508,341.61133,796.09094,1351.35339,317.12686,745.09021
56,0.458,1398.54736,309.9418,879.13464,1419.30103,340.33475,795.88831,1349.51904,317.59088,744.90552
57,0.467,1395.95215,310.72458,878.7793,1418.72876,340.38385,796.13678,1348.8009,318.01947,745.02777
58,0.475,1393.02173,311.06522,879.42059,1417.56604,340.36646,796.14703,1348.06396,317.38876,745.5531
59,0.483,1391.7146,311.23773,880.862,1416.08228,339.75229,796.70807,1347.35999,317.74005,745.73499
60,0.492,1388.88013,310.26147,881.20996,1415.01355,339.66238,798.93628,1346.81006,317.82883,746.22443
61,0.5,1386.23987,310.12906,881.65118,1414.47437,338.32275,800.05725,1346.24683,318.1785,746.35944
62,0.508,1383.74768,310.48291,883.53345,1412.89514,338.79391,801.09131,1344.87891,318.28467,746.76019
63,0.517,1382.98547,310.4552,883.86041,1410.95825,337.1308,801.42035,1344.15112,318.61639,746.86316
64,0.525,1379.79395,311.31482,884.95465,1410.2262,337.02811,802.11456,1342.72449,320.34561,747.18384
65,0.533,1377.03162,312.01501,884.85883,1409.29614,336.77438,803.01514,1342.12415,320.49921,747.5874
66,0.542,1374.52783,312.28302,886.26672,1408.08423,337.96228,805.22015,1341.01208,321.91745,748.55743
67,0.55,1371.86987,311.83829,887.5307,1406.10938,338.46298,806.45496,1340.40552,322.24939,749.31415
68,0.558,1369.88953,311.20694,887.80615,1404.32947,338.6394,807.01257,1339.02673,322.5986,749.41724
69,0.567,1367.01575,311.50348,888.24512,1403.05676,339.26111,807.47968,1337.32617,323.51129,749.66333
70,0.575,1364.04504,313.12952,888.36981,1400.54675,339.22479,807.95923,1335.09595,322.75186,748.61053
71,0.583,1360.8678,314.59784,888.53082,1398.45923,339.2688,808.16876,1334.68066,323.39304,748.66913
72,0.592,1357.72021,316.7196,888.10388,1396.81873,340.98923,808.86884,1332.10352,324.86697,747.45953
73,0.6,1354.42798,317.66754,888.14734,1393.77185,341.36835,808.52716,1332.21423,325.22733,747.33618
74,0.608,1352.31726,318.13623,887.06897,1392.40002,342.12906,808.36444,1329.55127,328.93164,747.29517
75,0.617,1348.06848,318.77527,886.98212,1389.81287,343.3089,808.67133,1326.22131,331.40088,745.57306
76,0.625,1346.00696,319.98013,886.91632,1387.70203,344.24808,808.77893,1323.78064,332.31613,744.67023
77,0.633,1341.94702,319.61703,886.72131,1384.87817,344.20532,808.60028,1322.60388,333.02982,744.55652
78,0.642,1338.56482,322.38107,886.2876,1383.21143,345.67218,808.28479,1319.65295,334.49979,744.34467
79,0.65,1334.96094,324.16379,886.44189,1379.89136,346.98502,808.15424,1320.37817,333.87488,744.42938
80,0.658,1330.42725,325.16226,885.48706,1377.10852,348.15201,808.53375,1315.35339,339.36316,743.98407
81,0.667,1326.46509,326.81543,884.70636,1373.9696,349.71472,808.31775,1312.70569,339.53992,742.80353
82,0.675,1323.02795,328.98694,884.81152,1370.92615,350.82248,808.79193,1309.29578,341.34335,742.00049
83,0.683,1317.57666,330.77731,884.6485,1366.65503,352.12973,807.90454,1307.37573,342.44217,741.85114
84,0.692,1313.9126,331.58868,884.16382,1362.83191,353.44955,808.01288,1304.43042,344.40027,741.17456
85,0.7,1308.11816,331.57983,882.56531,1358.63892,354.27896,807.66296,1299.87573,346.65594,740.13989
86,0.708,1303.20581,333.65323,881.7782,1354.66455,355.9277,807.62903,1296.99402,347.62018,739.19867
87,0.717,1299.52454,335.48938,880.4455,1350.13672,356.89398,807.44965,1293.01428,349.84329,737.94592
88,0.725,1294.27563,337.65903,881.0564,1346.14355,358.35553,807.03271,1289.43835,350.80969,737.80566
89,0.733,1288.75928,339.14114,880.12598,1341.33801,360.17117,806.9682,1283.80017,354.62265,737.40656
90,0.742,1282.35815,339.82651,878.55414,1335.90845,361.38605,806.08447,1280.08679,354.51486,736.20093
91,0.75,1277.16992,341.72641,878.66412,1331.49817,362.81879,805.87714,1274.68127,355.39194,734.88202
92,0.758,1271.60437,344.42319,877.64276,1325.67126,364.39563,805.24414,1270.64087,356.63187,734.96161
93,0.767,1265.25061,346.30823,876.19708,1320.01624,365.14139,804.92682,1264.08826,360.42719,734.43829
94,0.775,1260.26514,346.27701,876.0163,1313.55579,367.37366,804.41614,1258.68396,361.54968,733.01624
95,0.783,1252.74316,347.63821,875.56494,1308.18738,368.58661,804.06482,1253.54272,360.85092,732.59045
96,0.792,1245.39917,351.25226,873.95734,1301.66333,371.16092,803.56305,1247.34583,363.02109,731.94049
97,0.8,1239.35291,351.8855,873.68408,1294.43774,372.54938,803.18616,1241.43079,364.04648,730.75
98,0.808,1232.46045,352.21469,873.2724,1286.86987,375.05692,802.86279,1234.38074,364.46097,731.01233
99,0.817,1224.87512,354.38635,872.64246,1280.5813,376.78445,802.33105,1227.13635,367.66772,729.84857
100,0.825,1218.229,357.25159,872.41766,1272.91089,378.81888,801.49652,1220.65234,369.36136,729.14258
101,0.833,1209.38818,358.15112,872.2132,1264.67493,380.66464,801.55414,1213.64807,368.49817,729.53607
102,0.842,1203.2428,360.37421,871.79071,1258.02002,382.36627,801.82666,1205.46411,372.85837,729.16754
103,0.85,1194.29077,363.04324,871.75488,1248.89563,383.5816,801.58978,1196.94885,374.94379,729.92792
104,0.858,1186.32886,364.47263,873.49335,1241.52551,385.19623,801.72339,1187.93738,376.00171,730.03223
105,0.867,1178.6969,366.83783,873.57257,1233.43616,386.90182,801.42218,1179.43323,378.87103,730.56195
106,0.875,1170.1167,368.65094,874.61664,1225.49243,388.65988,802.0448,1169.83667,380.49213,731.63916
107,0.883,1161.63623,371.17267,874.53632,1216.42773,390.19241,802.28479,1161.27319,382.96545,731.3092
108,0.892,1153.0675,372.57605,875.19281,1206.56189,392.51901,802.71631,1151.06177,385.68549,732.26886
109,0.9,1143.91101,374.53281,875.70782,1197.18982,393.73041,803.29755,1141.95776,386.91983,733.5556
110,0.908,1134.36377,377.47031,876.5191,1187.26868,396.05679,803.96185,1131.45422,387.64264,733.56537
111,0.917,1125.71448,377.90735,877.2522,1177.21204,398.10132,804.0166,1119.19971,392.68781,734.36841
112,0.925,1114.94727,379.58884,878.22058,1166.22559,401.12006,804.65558,1108.9469,392.42123,735.63208
113,0.933,1106.01599,381.84268,879.005,1154.94189,403.16412,805.01306,1098.61462,394.5098,736.37115
114,0.942,1094.84167,382.1915,880.23444,1144.21973,405.51596,805.33069,1086.84497,397.07379,736.8147
115,0.95,1084.52576,383.05908,880.30115,1133.20142,407.54172,805.84747,1075.42114,398.09689,737.92511
116,0.958,1074.52173,384.98688,881.56586,1121.66296,409.1384,806.79822,1063.24805,397.85965,738.92596
117,0.967,1063.31592,386.05945,882.00409,1110.17871,411.51563,807.3197,1051.0459,401.83194,740.75861
118,0.975,1053.09692,387.27222,882.76947,1098.48633,414.5495,807.64819,1038.67786,403.25562,741.10718
119,0.983,1042.85425,388.28061,883.59192,1086.07153,415.81152,807.91638,1026.84412,403.24194,742.15869
120,0.992,1031.78333,388.74152,886.0647,1074.13928,417.06543,809.28955,1015.71729,402.9718,743.88922
121,1,1020.45776,389.80997,887.16437,1062.73157,418.22034,809.71539,999.95129,406.96655,745.84644
122,1.008,1011.69562,389.70587,888.50507,1051.13855,420.52637,811.15417,988.25421,406.91281,747.39508
123,1.017,1001.9834,391.56711,890.24799,1039.62976,420.97638,811.8783,975.54443,409.29205,750.32513
124,1.025,991.00354,392.30466,892.29382,1027.95752,421.68417,812.6521,964.44153,408.61932,752.19672
125,1.033,981.1698,392.9411,893.96838,1015.8985,423.91068,813.82587,952.23035,408.18143,755.12396
126,1.042,971.7356,393.38611,895.39288,1005.06116,424.26794,815.96307,939.75977,408.74789,757.12396
127,1.05,961.90869,394.09192,897.94171,993.67853,424.61685,816.37732,926.38367,410.30911,760.30066
128,1.058,951.56055,394.34143,899.32275,981.81549,425.24448,818.11414,912.5896,412.03979,763.58594
129,1.067,940.97156,395.70856,901.1731,969.53088,426.43588,819.08521,901.43768,411.94092,765.57318
130,1.075,931.04584,396.98694,903.36951,957.59918,427.74783,820.01099,888.91199,411.80106,767.94342
131,1.083,920.8775,396.25723,904.04138,946.58557,429.06186,821.89813,876.45789,412.1752,770.2948
132,1.092,911.27026,396.10342,906.05066,934.6369,428.84897,823.74738,863.90228,412.42068,772.83282
133,1.1,900.66132,395.72363,907.00787,921.6427,431.42157,823.93976,851.16754,412.28888,775.41235
134,1.108,891.31726,397.09143,908.53479,909.61688,431.70694,825.57623,838.70209,411.91846,777.7196
135,1.117,883.15594,396.8157,909.94739,898.7959,432.73355,827.06805,826.39636,412.23593,780.69073
136,1.125,873.34015,398.26181,910.59711,887.2226,433.80118,828.04346,814.01068,412.97043,783.20001
137,1.133,863.9635,399.04794,912.66052,875.58539,434.79443,829.08954,802.2525,413.1647,785.73511
138,1.142,853.50629,398.65131,914.37689,863.62177,435.43085,829.9071,789.78168,413.54633,788.20044
139,1.15,843.32397,399.72989,914.96942,852.62177,435.23608,831.52966,778.53979,413.3107,790.17029
140,1.158,834.67548,398.87836,916.38245,841.30914,436.52872,832.771,767.80579,412.52243,791.06873
141,1.167,825.40302,399.16498,917.6731,830.84283,436.56174,834.5033,756.66254,411.53549,793.15332
142,1.175,817.10687,398.80081,918.82562,819.59192,436.80457,836.03754,743.88916,412.55316,798.68481
143,1.183,808.10663,397.75604,920.81488,808.9632,436.49167,838.04193,732.72064,411.03281,801.81689
144,1.192,799.41766,396.73645,921.45642,798.51581,436.75949,839.44019,722.08295,409.53958,804.1806
145,1.2,790.90643,396.03085,922.7572,789.1344,436.44669,841.17328,712.14075,409.48068,806.87958
146,1.208,782.83252,396.37659,924.04205,779.26355,435.60672,842.23047,701.35187,408.39444,809.45276
147,1.217,775.29517,395.14282,924.58563,769.15741,436.4949,843.28418,691.8634,408.18671,809.55402
148,1.225,766.81604,395.57297,926.47449,760.18427,435.38461,843.44629,681.71967,406.99463,813.32471
149,1.233,758.45447,393.83331,926.43127,751.3313,434.67429,844.02106,673.36426,405.81577,814.89941
150,1.242,751.02582,394.05182,926.7832,741.60785,433.6109,844.40466,663.82202,405.36749,816.65302
151,1.25,743.48932,394.59152,926.01672,732.95251,432.32703,844.20197,654.44257,404.46396,817.24573
152,1.258,735.40973,394.76859,926.44855,725.12122,433.31384,844.22797,645.8689,404.21967,818.20923
153,1.267,727.33002,394.87842,926.49945,717.02124,432.91858,843.75903,637.22943,403.11435,819.39337
154,1.275,719.70496,394.23163,926.17224,709.40228,431.53964,843.82397,629.49573,401.172,818.69818
155,1.283,712.13361,393.07904,926.10681,701.69647,431.24457,843.87598,620.50836,400.70685,818.59119
156,1.292,704.16339,393.03784,926.55011,692.39075,429.9866,844.35785,614.73248,398.29929,818.16949
157,1.3,696.59015,391.18408,925.90399,685.04449,428.71051,844.39685,606.82562,398.12973,818.26215
158,1.308,689.85254,389.88916,926.00812,677.69592,428.44916,843.97778,598.55688,396.81317,817.71857
159,1.317,682.86456,389.23712,926.06152,670.5545,428.16742,844.36066,592.03497,396.23447,817.41486
160,1.325,676.26563,387.59384,925.64246,663.10516,426.80048,843.6554,585.22058,394.5827,817.23877
161,1.333,669.2027,386.32785,925.28918,656.71509,426.53906,843.63531,577.8111,394.12213,816.72668
162,1.342,663.00623,387.90787,923.92804,650.87073,425.67245,843.35144,572.38495,393.37756,816.23456
163,1.35,656.78815,386.10718,923.97168,644.28973,424.59821,841.8222,566.46313,392.55524,815.00616
164,1.358,649.8349,385.78027,923.20117,637.51776,424.41025,840.66333,558.86481,392.39212,813.37012
165,1.367,643.45667,386.32022,921.1557,632.03027,423.60651,839.35059,552.38617,391.47964,812.0675
166,1.375,637.64081,385.08261,919.64734,625.56091,424.02203,837.63495,548.14386,392.1442,810.44659
167,1.383,630.81433,386.00604,917.74921,620.54962,423.59393,835.99988,542.24219,391.32007,808.81232
168,1.392,625.52985,385.95859,916.43719,614.39148,423.51572,834.16376,536.71844,391.72339,806.78046
169,1.4,619.77893,385.02365,914.7796,609.59204,423.08585,832.47937,531.08856,392.02444,804.69208
170,1.408,614.66278,385.96466,912.8559,604.38776,422.41861,829.99658,526.68164,390.87,802.57141
171,1.417,608.67352,384.75586,911.6748,601.21741,421.79401,828.66595,522.31915,391.14633,801.26147
172,1.425,604.31226,384.82214,910.35486,596.04266,421.85843,827.01428,516.81714,390.28961,799.01581
173,1.433,599.63,384.64896,909.69141,591.2644,420.98166,826.15894,513.52692,390.51337,796.24518
174,1.442,595.32465,384.18591,907.85773,587.35614,419.70746,824.65546,509.89005,390.26715,794.76263
175,1.45,590.43622,382.82227,906.54291,584.49078,418.86264,823.32367,506.14862,388.70773,793.25165
176,1.458,585.94519,382.24814,905.95392,580.1673,418.71405,822.29431,503.10123,388.10971,791.13831
177,1.467,581.64825,381.40085,904.79102,576.64716,417.33276,821.66583,500.17474,387.25604,788.94458
178,1.475,577.52069,380.0683,904.04486,573.21674,417.65701,820.75031,497.84192,385.39362,787.30725
179,1.483,573.3573,379.53021,902.86401,570.13098,415.85327,820.00238,494.31906,384.93869,785.6853
180,1.492,569.09814,378.61621,902.25848,567.52856,416.15729,818.76318,492.66898,384.23132,783.43683
181,1.5,565.87445,377.81161,900.8703,564.58679,414.88937,818.12555,489.64493,384.38495,781.54187
182,1.508,562.62769,376.49628,899.79987,561.92908,414.06909,816.94971,488.36221,381.38504,779.07849
183,1.517,559.42224,376.05475,899.45764,559.90027,414.01999,815.45477,486.2092,381.98105,777.33142
184,1.525,555.44647,375.02087,898.82397,557.43866,411.74808,814.35364,484.77637,381.60837,776.37817
185,1.533,552.33698,374.56622,897.44177,556.66461,411.15961,813.86182,482.85785,380.38443,774.52917
186,1.542,549.5072,374.34052,897.55188,555.04529,410.39719,813.2981,481.73175,380.09943,772.95331
187,1.55,547.73102,373.63196,895.95935,553.02991,409.1344,812.63177,481.15054,380.54108,771.6889
188,1.558,544.6925,372.47986,896.16034,552.6261,407.82236,811.89032,479.44531,380.94934,770.80017
189,1.567,542.88776,372.90842,895.05621,551.42432,406.91278,810.67865,477.22678,380.68457,769.78296
190,1.575,539.34882,372.48312,894.74786,550.80042,406.86938,810.56024,477.37842,379.4968,767.50818
191,1.583,537.06158,371.19083,893.67645,549.56177,404.55157,809.88544,476.87051,380.07465,765.75122
192,1.592,535.12177,370.80582,893.88855,548.71997,403.47183,809.284,475.77243,378.65463,765.04279
193,1.6,533.78278,369.96118,892.98413,548.09998,402.49637,808.08105,475.62277,377.936,763.99384
194,1.608,531.17749,369.41345,892.95178,547.79333,402.04724,808.56915,474.59811,377.64545,763.00006
195,1.617,528.73413,369.117,892.68744,547.52509,401.23804,808.46899,473.936,378.05637,761.88348
196,1.625,527.1214,368.39124,892.37903,545.77057,399.108,808.31921,474.13696,376.0972,760.56732
197,1.633,525.48694,367.11044,891.82043,545.33527,397.84039,807.81128,474.93234,373.97043,758.71857
198,1.642,523.43207,366.34766,891.64368,545.22083,397.10693,808.03113,474.85129,374.41238,758.35205
