Frame#,Time,R.Forearm.x,R.Forearm.y,R.Forearm.z,R.Ulna.x,R.Ulna.y,R.Ulna.z,R.Radius.x,R.Radius.y,R.Radius.z
1,0,-228.19247,-340.28067,682.8587,-165.10063,-322.3721,599.91321,-111.3026,-248.11182,655.87463
2,0.008,-227.99577,-340.29562,682.72913,-165.13007,-322.37192,599.74933,-110.83235,-248.87401,656.02325
3,0.017,-228.02879,-340.40903,682.62964,-165.23233,-322.54904,599.49445,-110.70899,-248.47054,655.77698
4,0.025,-228.02879,-340.40903,682.62964,-165.43033,-322.43524,599.05322,-110.37842,-248.81528,655.37463
5,0.033,-228.06189,-340.52261,682.53015,-165.67584,-322.80518,598.80591,-110.37842,-248.81528,655.37463
6,0.042,-228.12741,-340.45657,682.3465,-165.787,-322.9527,598.69916,-110.23711,-249.54077,655.37378
7,0.05,-228.34927,-340.35992,682.19604,-165.787,-322.9527,598.69916,-110.37842,-248.81528,655.37463
8,0.058,-228.34927,-340.35992,682.19604,-165.787,-322.9527,598.69916,-110.02496,-248.74638,655.2793
9,0.067,-228.01204,-340.39523,682.13879,-165.93582,-323.26459,598.70227,-110.02496,-248.74638,655.2793
10,0.075,-228.01204,-340.39523,682.13879,-165.67735,-323.29993,598.68658,-110.37842,-248.81528,655.37463
11,0.083,-228.0784,-341.02661,682.4212,-165.41957,-323.26703,598.83331,-110.36313,-248.85268,655.86475
12,0.092,-227.86353,-341.91864,682.51624,-165.41957,-323.26703,598.83331,-110.36313,-248.85268,655.86475
13,0.1,-227.8736,-342.33127,682.26617,-165.16861,-323.33917,599.2652,-110.32916,-248.63773,655.97021
14,0.108,-227.80815,-342.39719,682.44971,-164.97726,-323.38751,599.37524,-110.32336,-249.42906,656.11829
15,0.117,-227.79805,-341.98453,682.69971,-165.07951,-323.4447,599.6026,-110.36313,-248.85268,655.86475
16,0.125,-227.79805,-341.98453,682.69971,-164.91339,-323.94327,600.0672,-110.36313,-248.85268,655.86475
17,0.133,-227.9751,-342.17722,682.6601,-165.02007,-324.25809,599.96857,-110.36313,-248.85268,655.86475
18,0.142,-228.01898,-342.4176,682.59589,-164.99658,-324.3479,599.51099,-110.05988,-248.90295,655.98688
19,0.15,-227.9751,-342.17722,682.6601,-164.99658,-324.3479,599.51099,-109.68582,-250.0166,656.04919
20,0.158,-228.01898,-342.4176,682.59589,-165.36531,-324.40421,598.98199,-109.58332,-252.87723,656.17065
21,0.167,-227.91858,-342.76852,682.36346,-165.68625,-324.28741,598.68457,-109.64915,-253.08661,656.02271
22,0.175,-228.32437,-342.57404,682.12714,-165.68341,-324.43073,598.5799,-109.54224,-254.16426,655.87494
23,0.183,-228.09709,-343.12729,681.97516,-165.6286,-324.46851,598.4483,-109.40913,-254.81317,655.65967
24,0.192,-228.09619,-344.80197,681.85132,-166.26125,-325.35126,597.88361,-109.61726,-256.26114,655.55078
25,0.2,-227.97803,-345.05383,681.62463,-166.95456,-325.28058,597.43073,-109.59629,-256.45197,655.2392
26,0.208,-228.20358,-345.07809,681.07971,-166.88028,-325.35358,597.07452,-109.63035,-256.6666,655.13397
27,0.217,-228.43001,-345.52979,681.36945,-167.35088,-325.57965,596.89374,-109.66441,-256.88132,655.02875
28,0.225,-228.20749,-345.59857,681.48102,-167.68031,-325.96045,597.17023,-109.63035,-256.6666,655.13397
29,0.233,-227.9574,-345.62589,681.38745,-167.7401,-325.95175,597.54218,-109.74274,-257.05023,655.58813
30,0.242,-228.3914,-346.03815,681.61572,-167.91237,-325.89459,597.7702,-109.93455,-256.80154,655.61652
31,0.25,-228.90607,-345.92294,681.54938,-168.218,-325.7323,598.24109,-110.14417,-256.04282,656.21057
32,0.258,-228.94521,-345.96353,681.75964,-167.89807,-326.72769,598.69635,-110.17406,-255.16714,656.1474
33,0.267,-228.72273,-346.03229,681.87109,-167.4976,-326.66183,598.92694,-110.44479,-254.65746,655.96808
34,0.275,-228.85037,-345.96048,681.9798,-166.87483,-326.42279,599.20856,-110.20693,-254.46036,656.16437
35,0.283,-228.85037,-345.96048,681.9798,-166.94029,-326.5704,599.35669,-110.33122,-253.67952,655.84387
36,0.292,-229.15977,-345.94363,682.1181,-167.10393,-325.50647,599.40454,-110.78463,-253.58119,655.96808
37,0.3,-229.15033,-345.76367,682.23602,-166.78062,-325.38712,599.58191,-110.42339,-253.08791,655.58154
38,0.308,-229.64546,-345.57751,682.52264,-166.78062,-325.38712,599.58191,-110.43036,-253.56361,655.87842
39,0.317,-229.66899,-344.76089,682.27911,-166.59731,-325.00937,599.61914,-110.43925,-252.90842,655.63348
40,0.325,-229.48103,-343.85687,682.48309,-166.49503,-324.95224,599.39178,-110.16345,-253.8905,656.03497
41,0.333,-229.29532,-343.63379,682.11102,-166.54451,-324.85416,599.27191,-110.23528,-254.01167,656.00885
42,0.342,-229.29532,-343.63379,682.11102,-166.20015,-324.69702,599.01074,-110.07205,-254.0594,656.06592
43,0.35,-228.74301,-343.24271,681.80457,-167.11276,-324.3089,598.78003,-109.95501,-253.82768,655.80884
44,0.358,-228.7524,-343.42279,681.68652,-166.80867,-323.647,598.6676,-109.81232,-253.86084,655.93835
45,0.367,-228.71323,-343.38211,681.47607,-166.80867,-323.647,598.6676,-109.81257,-253.83182,655.71521
46,0.375,-228.74228,-343.4624,680.87634,-167.52428,-323.63898,597.9798,-109.75587,-253.99721,654.8681
47,0.383,-228.7718,-344.15146,680.59058,-167.75403,-323.88696,597.58234,-109.95477,-254.63608,654.94794
48,0.392,-228.5919,-344.95938,680.66516,-167.81816,-323.84875,597.42316,-110.28354,-254.56856,654.80194
49,0.4,-228.5919,-344.95938,680.66516,-168.0379,-323.9147,597.47174,-110.12508,-254.5974,654.88574
50,0.408,-228.5919,-344.95938,680.66516,-168.05937,-323.81491,597.76807,-110.25714,-254.23373,654.98871
51,0.417,-228.5919,-344.95938,680.66516,-168.11421,-323.7771,597.89972,-110.22599,-253.7184,654.92645
52,0.425,-228.5919,-344.95938,680.66516,-168.26482,-323.75574,598.39478,-110.30988,-253.70609,655.24634
53,0.433,-229.01773,-344.23849,680.8288,-168.06235,-323.80945,598.52649,-110.51976,-253.70102,655.45129
54,0.442,-229.10304,-344.04572,680.87006,-168.39967,-323.97769,598.75879,-110.51976,-253.70102,655.45129
55,0.45,-229.85121,-344.25009,681.18701,-168.39967,-323.97769,598.75879,-111.02439,-252.88655,655.2417
56,0.458,-229.82767,-344.12952,681.55298,-168.39967,-323.97769,598.75879,-111.02439,-252.88655,655.2417
57,0.467,-229.82767,-344.12952,681.55298,-168.22353,-324.02737,598.88947,-111.00906,-252.92389,655.7326
58,0.475,-229.89891,-343.99655,681.84247,-168.03433,-323.86243,598.9256,-111.24284,-253.36996,655.2207
59,0.483,-230.04179,-344.01169,682.02832,-168.22353,-324.02737,598.88947,-111.39205,-253.71579,655.28888
60,0.492,-230.03247,-343.83167,682.14636,-168.32576,-324.0845,599.11688,-111.16139,-253.77518,655.76251
61,0.5,-230.04179,-344.01169,682.02832,-168.32576,-324.0845,599.11688,-110.79097,-253.91713,655.62885
62,0.508,-230.04179,-344.01169,682.02832,-168.22353,-324.02737,598.88947,-110.69888,-254.50867,655.89111
63,0.517,-229.95642,-344.20441,681.98694,-168.39967,-323.97769,598.75879,-110.44479,-254.65746,655.96808
64,0.525,-229.81355,-344.18927,681.80109,-168.39967,-323.97769,598.75879,-111.22095,-255.44727,655.93195
65,0.533,-229.81355,-344.18927,681.80109,-168.5585,-324.24347,598.79614,-111.0304,-255.29544,655.90521
66,0.542,-229.50601,-344.25162,681.81281,-168.73476,-324.19385,598.66559,-111.02412,-255.87424,656.06268
67,0.55,-229.49741,-344.38425,681.47278,-168.73476,-324.19385,598.66559,-111.32513,-255.38364,655.59686
68,0.558,-229.82767,-344.12952,681.55298,-168.73476,-324.19385,598.66559,-111.30817,-255.41933,655.79285
69,0.567,-229.83705,-344.30966,681.43506,-169.12349,-324.67996,598.30353,-111.41234,-255.3557,655.45776
70,0.575,-229.92119,-344.17163,681.71936,-169.12349,-324.67996,598.30353,-111.41234,-255.3557,655.45776
71,0.583,-229.93056,-344.35181,681.60138,-169.12349,-324.67996,598.30353,-111.40759,-255.91249,655.56659
72,0.592,-230.09102,-344.13437,681.7005,-169.12349,-324.67996,598.30353,-111.41234,-255.3557,655.45776
73,0.6,-230.42497,-343.95078,681.86139,-169.31319,-324.66986,598.40192,-111.41234,-255.3557,655.45776
74,0.608,-230.83357,-344.3559,682.03436,-169.31319,-324.66986,598.40192,-111.32513,-255.38364,655.59686
75,0.617,-231.07063,-343.98251,682.06836,-169.30013,-324.51566,598.50732,-111.28285,-255.99683,655.95532
76,0.625,-231.15752,-344.0343,682.31818,-169.57162,-324.6347,598.41748,-111.05808,-255.47241,655.9826
77,0.633,-231.22148,-343.98209,682.1452,-169.30013,-324.51566,598.50732,-111.05808,-255.47241,655.9826
78,0.642,-231.06136,-343.80249,682.18634,-169.30013,-324.51566,598.50732,-111.05808,-255.47241,655.9826
79,0.65,-231.15752,-344.0343,682.31818,-169.40234,-324.57278,598.7348,-111.12003,-256.02194,656.00598
80,0.658,-231.14825,-343.85431,682.43616,-169.30013,-324.51566,598.50732,-110.47442,-255.75084,655.97009
81,0.667,-231.14825,-343.85431,682.43616,-169.18915,-324.36792,598.61407,-110.12776,-256.84592,656.12604
82,0.675,-231.15752,-344.0343,682.31818,-169.30013,-324.51566,598.50732,-110.05287,-257.02576,656.22559
83,0.683,-230.83357,-344.3559,682.03436,-169.11041,-324.52576,598.40894,-110.07964,-257.24411,656.36469
84,0.692,-230.89752,-344.30365,681.86139,-169.12349,-324.67996,598.30353,-110.01074,-257.5061,655.979
85,0.7,-230.90683,-344.48383,681.74341,-169.12349,-324.67996,598.30353,-110.21446,-257.64548,656.46313
86,0.708,-230.81827,-344.65149,681.71967,-169.12349,-324.67996,598.30353,-109.95837,-257.83722,656.01233
87,0.717,-230.88103,-344.82184,681.46423,-170.03065,-324.54605,598.30035,-110.14658,-256.93903,656.04901
88,0.725,-230.84193,-344.78113,681.25391,-170.28171,-324.51913,597.67786,-110.34784,-257.99631,656.37299
89,0.733,-230.59163,-344.80817,681.16034,-170.05092,-324.54105,597.61182,-110.30746,-258.54196,655.88245
90,0.742,-230.84193,-344.78113,681.25391,-170.28171,-324.51913,597.67786,-110.26839,-259.64767,655.56647
91,0.75,-230.84193,-344.78113,681.25391,-170.28171,-324.51913,597.67786,-110.26839,-259.64767,655.56647
92,0.758,-231.27838,-344.63867,681.00006,-170.28171,-324.51913,597.67786,-110.26839,-259.64767,655.56647
93,0.767,-231.85521,-344.79333,681.20343,-170.28171,-324.51913,597.67786,-110.44668,-258.42239,655.41583
94,0.775,-232.13153,-344.46057,681.44769,-170.28171,-324.51913,597.67786,-110.44668,-258.42239,655.41583
95,0.783,-232.44319,-344.50061,681.8111,-170.29599,-324.4332,597.90222,-110.80703,-258.95547,656.18671
96,0.792,-232.76631,-344.13263,682.17029,-170.42722,-324.39526,598.18121,-110.80209,-257.69019,656.00629
97,0.8,-233.02696,-344.08807,682.41241,-170.90875,-324.63596,598.29602,-110.94423,-257.68817,656.11688
98,0.808,-232.88535,-343.88977,682.48047,-170.5804,-324.63733,598.76093,-110.7492,-257.15814,656.30957
99,0.817,-233.01689,-344.09027,682.60657,-170.5804,-324.63733,598.76093,-110.60702,-257.16016,656.19904
100,0.825,-232.68861,-344.23935,682.97894,-170.44342,-324.67365,598.84082,-110.89146,-257.15628,656.42017
101,0.833,-232.27515,-344.11752,683.1037,-170.44342,-324.67365,598.84082,-110.89146,-257.15628,656.42017
102,0.842,-232.46306,-344.10901,683.22498,-170.3978,-324.67371,599.09589,-110.89146,-257.15628,656.42017
103,0.85,-232.35231,-344.10168,683.32422,-170.25017,-324.55511,599.19177,-110.87875,-257.97702,656.76807
104,0.858,-232.1644,-344.1102,683.203,-170.25017,-324.55511,599.19177,-110.8888,-256.90286,656.5246
105,0.867,-232.1644,-344.1102,683.203,-169.91696,-324.64212,599.50177,-110.75883,-256.63687,656.65485
106,0.875,-231.93346,-344.00177,683.16803,-169.97156,-324.50427,599.54449,-110.75883,-256.63687,656.65485
107,0.883,-231.93346,-344.00177,683.16803,-170.18089,-324.48627,599.61487,-110.8888,-256.90286,656.5246
108,0.892,-231.93346,-344.00177,683.16803,-170.18089,-324.48627,599.61487,-110.89802,-256.54874,656.60437
109,0.9,-231.93346,-344.00177,683.16803,-170.18089,-324.48627,599.61487,-111.11909,-256.69104,656.44781
110,0.908,-231.79832,-344.04962,683.25555,-170.18089,-324.48627,599.61487,-111.11909,-256.69104,656.44781
111,0.917,-231.93346,-344.00177,683.16803,-170.39178,-324.46191,599.65131,-111.34199,-256.09613,656.32574
112,0.925,-232.12138,-343.99332,683.28931,-170.76761,-324.51682,599.49878,-111.95573,-257.32538,656.65497
113,0.933,-232.12138,-343.99332,683.28931,-170.76761,-324.51682,599.49878,-111.5237,-256.83438,656.47754
114,0.942,-232.21718,-344.14957,683.41174,-171.10948,-324.34256,599.58258,-111.58495,-257.54126,656.50977
115,0.95,-232.12138,-343.99332,683.28931,-170.76761,-324.51682,599.49878,-111.96471,-256.4754,656.43048
116,0.958,-232.35231,-344.10168,683.32422,-171.15926,-324.36249,599.73157,-111.95573,-257.32538,656.65497
117,0.967,-232.35231,-344.10168,683.32422,-171.15926,-324.36249,599.73157,-112.12206,-255.85907,656.37958
118,0.975,-232.29486,-344.17078,683.56897,-171.12935,-324.60574,599.93164,-112.312,-255.84123,656.4071
119,0.983,-232.29486,-344.17078,683.56897,-171.29543,-324.3848,600.24506,-112.43308,-255.56369,656.27338
120,0.992,-232.42998,-344.12292,683.48145,-171.06674,-324.46863,600.55701,-112.29745,-255.30577,656.51318
121,1,-232.36729,-344.18195,683.68439,-171.06674,-324.46863,600.55701,-112.92303,-255.11821,656.89136
122,1.008,-232.52567,-343.36844,684.4845,-171.10243,-324.5087,600.77448,-113.62994,-253.48592,656.31299
123,1.017,-232.61188,-343.09445,684.60016,-170.43941,-324.57675,601.41711,-113.5251,-252.32695,656.53345
124,1.025,-232.41641,-342.72232,684.88934,-170.18156,-324.36588,601.73523,-113.71645,-251.59958,656.90674
125,1.033,-232.29828,-342.29886,685.19446,-169.83072,-324.15744,601.76892,-113.67613,-251.15016,657.22736
126,1.042,-232.29828,-342.29886,685.19446,-169.44028,-323.14377,602.14093,-113.59156,-251.87149,657.35742
127,1.05,-232.35623,-342.13617,685.2417,-169.4437,-323.18774,602.34113,-113.73508,-250.70638,656.94495
128,1.058,-232.23793,-341.51636,686.31299,-169.4437,-323.18774,602.34113,-113.63825,-249.58337,657.21112
129,1.067,-231.86952,-341.08011,686.5506,-169.56987,-323.0553,602.93707,-113.70257,-249.40144,657.22656
130,1.075,-231.78581,-340.83261,686.47235,-169.66898,-323.125,603.19403,-113.70257,-249.40144,657.22656
131,1.083,-231.78461,-340.54648,686.20026,-169.69768,-322.50992,602.68372,-113.80032,-249.01251,656.94824
132,1.092,-231.78461,-340.54648,686.20026,-169.92403,-322.52335,602.82733,-113.80032,-249.01251,656.94824
133,1.1,-231.81439,-340.02597,686.14069,-170.01709,-322.05966,602.45813,-113.65638,-249.14603,656.79218
134,1.108,-231.96164,-339.8869,686.09735,-170.10081,-321.71173,601.93103,-114.04435,-250.50246,656.69647
135,1.117,-231.96164,-339.8869,686.09735,-170.48563,-321.54541,601.97845,-114.04435,-250.50246,656.69647
136,1.125,-231.96164,-339.8869,686.09735,-170.31401,-321.87473,601.75311,-113.69804,-250.70898,656.83356
137,1.133,-232.31119,-339.64224,685.32294,-170.35156,-321.9852,601.65668,-113.76302,-250.31929,656.67578
138,1.142,-232.46388,-340.3782,685.85022,-170.53413,-321.90738,601.50641,-113.76302,-250.31929,656.67578
139,1.15,-232.54213,-339.75064,685.35785,-170.50681,-322.45963,601.45142,-113.80405,-251.67253,657.13342
140,1.158,-232.36497,-340.41043,685.46088,-170.53413,-321.90738,601.50641,-113.80405,-251.67253,657.13342
141,1.167,-232.31665,-340.5173,685.89349,-170.65422,-321.81894,601.61548,-114.00124,-251.61855,657.08301
142,1.175,-232.49519,-340.70358,685.85071,-170.48563,-321.54541,601.97845,-114.0657,-251.37747,657.09772
143,1.183,-232.66869,-341.31509,686.23828,-170.51115,-321.93127,602.41913,-114.04089,-251.07057,657.34583
144,1.192,-232.36763,-341.45251,686.57977,-170.71295,-322.28705,603.05493,-114.04962,-250.22989,657.28741
145,1.2,-232.43117,-341.44421,686.72284,-170.31888,-322.48511,603.51141,-113.80505,-249.04054,657.50153
146,1.208,-232.25264,-341.258,686.76569,-170.05498,-323.00458,604.20374,-113.95293,-248.336,657.50586
147,1.217,-231.85257,-341.05603,686.9787,-169.95419,-323.14789,604.7536,-113.84597,-248.08861,657.39801
148,1.225,-231.70541,-341.19507,687.02197,-169.91368,-323.38257,605.10468,-114.43671,-247.62872,657.95648
149,1.233,-231.69232,-340.76309,687.07257,-169.34631,-322.95248,605.16235,-114.85093,-246.31618,658.00116
150,1.242,-231.91614,-340.39685,687.31616,-169.23097,-322.95102,605.26508,-114.74677,-245.77017,658.0766
151,1.25,-231.64891,-339.48749,687.84766,-169.23097,-322.95102,605.26508,-114.92536,-245.75845,658.13599
152,1.258,-231.66731,-339.53586,688.06995,-169.23097,-322.95102,605.26508,-114.78794,-245.66817,658.05804
153,1.267,-231.51514,-339.60553,688.61298,-169.23097,-322.95102,605.26508,-115.08187,-247.12711,658.39862
154,1.275,-231.51514,-339.60553,688.61298,-169.23097,-322.95102,605.26508,-115.01819,-245.49004,657.82745
155,1.283,-231.51514,-339.60553,688.61298,-169.23097,-322.95102,605.26508,-115.16266,-247.52003,658.20569
156,1.292,-231.28433,-339.49738,688.57819,-169.65082,-323.06546,605.15857,-114.98643,-247.3907,657.92175
157,1.3,-231.15782,-339.56873,688.77905,-169.76614,-323.06689,605.05585,-115.1369,-247.74075,657.89221
158,1.308,-231.07495,-339.57724,688.74707,-170.00215,-322.99411,604.98657,-114.99532,-247.92838,657.7951
159,1.317,-230.57767,-339.83035,688.85803,-170.14967,-323.30981,605.0354,-114.56244,-248.41391,657.77844
160,1.325,-230.57767,-339.83035,688.85803,-170.14967,-323.30981,605.0354,-114.3303,-248.73828,657.72083
161,1.333,-230.66545,-339.76746,688.66138,-170.14967,-323.30981,605.0354,-114.07085,-247.52823,657.44513
162,1.342,-230.57767,-339.83035,688.85803,-170.14967,-323.30981,605.0354,-114.94791,-247.66254,657.91632
163,1.35,-230.37769,-339.88898,688.9433,-169.61455,-323.19403,605.24469,-114.89831,-246.45151,658.2298
164,1.358,-230.37769,-339.88898,688.9433,-169.43623,-323.44806,605.48468,-114.9558,-247.11684,658.64703
165,1.367,-230.56627,-339.88101,689.06488,-169.30031,-323.56247,605.84619,-114.42012,-246.82196,658.67908
166,1.375,-230.39407,-339.82019,689.24927,-168.96907,-323.59067,606.05133,-114.42702,-245.5627,658.50659
167,1.383,-230.0649,-339.25616,689.47931,-168.70131,-323.20612,606.92963,-114.54713,-245.50124,658.35156
168,1.392,-230.18436,-339.29007,689.97882,-168.3018,-322.78851,607.32202,-114.18452,-245.81978,658.56506
169,1.4,-229.58365,-339.39673,690.53027,-168.12027,-322.73248,607.79462,-114.34772,-245.50769,658.72583
170,1.408,-229.58365,-339.39673,690.53027,-167.93796,-322.81067,607.94464,-114.1504,-245.54579,658.67987
171,1.417,-229.64162,-339.2341,690.57776,-167.93796,-322.81067,607.94464,-114.0136,-245.23502,658.74805
172,1.425,-229.66025,-339.28271,690.79999,-167.75562,-322.88895,608.0946,-113.98318,-245.25314,658.71973
173,1.433,-229.19438,-339.33609,691.15668,-167.56248,-322.91107,607.98578,-113.47039,-245.19484,659.00916
174,1.442,-229.09222,-339.18967,691.30951,-167.36317,-323.17542,608.01019,-113.54881,-245.83936,659.20258
175,1.45,-228.61012,-339.3295,691.67438,-167.2979,-322.97211,607.9715,-113.61039,-246.54774,659.23431
176,1.458,-228.61012,-339.3295,691.67438,-167.09857,-323.23642,607.99591,-113.71758,-246.64116,659.73303
177,1.467,-228.59145,-339.28094,691.45215,-167.24818,-323.16409,607.8371,-113.05276,-247.53239,659.06543
178,1.475,-228.16388,-339.17804,691.29724,-167.80057,-322.80093,607.50177,-112.80917,-247.42648,658.65143
179,1.483,-228.25987,-339.35577,690.94208,-167.60928,-323.06213,607.06378,-112.49604,-247.48079,658.79846
180,1.492,-228.14114,-339.58118,690.84308,-167.677,-323.09576,606.61267,-111.91215,-248.33168,659.02631
181,1.5,-228.08604,-339.54871,690.65942,-167.83662,-322.84314,606.28735,-112.02304,-248.48567,659.13849
182,1.508,-228.29988,-339.47375,690.51721,-167.83662,-322.84314,606.28735,-111.9006,-248.13661,659.04541
183,1.517,-228.29988,-339.47375,690.51721,-167.96434,-323.06024,606.39294,-111.9006,-248.13661,659.04541
184,1.525,-228.39427,-339.6488,690.97498,-167.9425,-322.90921,607.04529,-112.42023,-248.09871,659.22278
185,1.533,-228.19267,-340.46756,691.36597,-167.78091,-323.02643,607.38965,-112.49587,-246.63316,659.83649
186,1.542,-227.98355,-340.0264,691.44543,-167.2979,-322.97211,607.9715,-113.00359,-245.80414,659.90295
187,1.55,-227.99956,-340.10815,691.80591,-167.09857,-323.23642,607.99591,-113.16772,-245.48943,659.95947
188,1.558,-227.9265,-339.74051,692.48633,-166.80606,-323.33728,608.37921,-113.22491,-245.27782,660.26483
189,1.567,-227.8159,-339.73318,692.58575,-166.38373,-323.31436,609.30933,-113.14535,-243.68126,659.69354
190,1.575,-228.09323,-339.55762,692.73163,-166.01117,-322.88354,609.81531,-113.66264,-243.47749,659.35223
