Frame#,Time,R.Forearm.x,R.Forearm.y,R.Forearm.z,R.Ulna.x,R.Ulna.y,R.Ulna.z,R.Radius.x,R.Radius.y,R.Radius.z
1,0,-243.45837,-221.54886,773.46326,-191.17569,-170.3774,724.27673,-153.02904,-130.61746,789.26599
2,0.008,-243.29332,-221.66513,773.56671,-191.17569,-170.3774,724.27673,-153.02904,-130.61746,789.26599
3,0.017,-243.15614,-221.53384,773.46826,-190.90062,-170.18985,724.41309,-152.95,-130.37038,789.43842
4,0.025,-243.15614,-221.53384,773.46826,-190.90062,-170.18985,724.41309,-152.95,-130.37038,789.43842
5,0.033,-243.06366,-221.3485,773.51819,-190.90062,-170.18985,724.41309,-152.95,-130.37038,789.43842
6,0.042,-243.17397,-220.92378,773.32965,-190.90062,-170.18985,724.41309,-152.50665,-130.489,789.30438
7,0.05,-242.65521,-220.6507,773.34564,-190.90062,-170.18985,724.41309,-152.50665,-130.489,789.30438
8,0.058,-242.65521,-220.6507,773.34564,-190.90062,-170.18985,724.41309,-152.50665,-130.489,789.30438
9,0.067,-242.65521,-220.6507,773.34564,-190.90062,-170.18985,724.41309,-152.50665,-130.489,789.30438
10,0.075,-242.65521,-220.6507,773.34564,-189.73723,-171.06731,724.65894,-152.83281,-130.11101,789.77356
11,0.083,-242.6199,-220.49893,773.48303,-189.73694,-170.85271,724.89514,-152.83281,-130.11101,789.77356
12,0.092,-242.6754,-220.5473,773.73523,-189.38754,-170.68944,724.99841,-152.83281,-130.11101,789.77356
13,0.1,-242.56262,-220.59564,773.771,-189.38754,-170.68944,724.99841,-152.83281,-130.11101,789.77356
14,0.108,-242.72873,-220.11894,774.00714,-190.32762,-169.55812,724.73322,-152.83281,-130.11101,789.77356
15,0.117,-242.47171,-220.40096,774.37982,-189.67738,-169.89426,725.06696,-152.73486,-129.89081,790.04126
16,0.125,-242.04843,-221.0535,775.11328,-189.67738,-169.89426,725.06696,-152.73486,-129.89081,790.04126
17,0.133,-241.93373,-220.7916,775.2981,-189.67738,-169.89426,725.06696,-152.35835,-129.63982,790.35236
18,0.142,-241.67155,-221.15085,775.16858,-188.62561,-171.17714,725.38965,-152.69211,-129.79707,790.98267
19,0.15,-241.61923,-221.48732,775.55872,-188.62561,-171.17714,725.38965,-152.28871,-129.52843,791.3161
20,0.158,-241.20268,-221.54964,775.90186,-188.21852,-171.48584,725.91345,-152.28871,-129.52843,791.3161
21,0.167,-241.20268,-221.54964,775.90186,-188.21852,-171.48584,725.91345,-152.28871,-129.52843,791.3161
22,0.175,-240.3387,-221.96494,776.01581,-188.21852,-171.48584,725.91345,-152.44452,-129.65759,792.69049
23,0.183,-240.12366,-222.08014,775.89319,-188.21852,-171.48584,725.91345,-152.0224,-129.56187,792.67523
24,0.192,-240.12366,-222.08014,775.89319,-188.21852,-171.48584,725.91345,-151.40202,-129.79802,793.11047
25,0.2,-240.13988,-222.0002,775.95264,-188.21852,-171.48584,725.91345,-151.12045,-129.65718,793.51782
26,0.208,-240.13988,-222.0002,775.95264,-188.01208,-171.85545,726.20129,-150.81783,-129.15787,793.08307
27,0.217,-239.84183,-221.85736,775.76019,-187.75893,-171.42365,725.89655,-150.61981,-129.48949,793.53339
28,0.225,-239.69843,-222.01074,775.72388,-187.09305,-171.73114,726.16748,-150.81783,-129.15787,793.08307
29,0.233,-239.59702,-221.82799,775.47632,-187.09305,-171.73114,726.16748,-150.81783,-129.15787,793.08307
30,0.242,-239.69843,-222.01074,775.72388,-186.7014,-171.27185,726.22192,-150.50597,-129.19269,792.96106
31,0.25,-239.53966,-221.8071,775.53375,-186.57072,-171.03853,725.5824,-150.40015,-128.93483,792.71527
32,0.258,-239.29765,-221.82436,775.85553,-186.57072,-171.03853,725.5824,-150.40015,-128.93483,792.71527
33,0.267,-239.2074,-221.87137,775.87708,-186.57072,-171.03853,725.5824,-150.40015,-128.93483,792.71527
34,0.275,-238.74522,-221.3212,776.00623,-186.57072,-171.03853,725.5824,-149.47264,-129.24045,791.47754
35,0.283,-238.74522,-221.3212,776.00623,-186.40552,-170.72156,725.39038,-150.11519,-128.59702,792.58588
36,0.292,-238.80019,-221.12267,776.12207,-187.2683,-169.15248,725.22998,-150.11519,-128.59702,792.58588
37,0.3,-238.70992,-221.16971,776.14362,-187.2683,-169.15248,725.22998,-150.1994,-128.47516,792.14471
38,0.308,-238.55386,-220.93573,776.01904,-187.2683,-169.15248,725.22998,-150.1994,-128.47516,792.14471
39,0.317,-238.55386,-220.93573,776.01904,-187.2683,-169.15248,725.22998,-150.1994,-128.47516,792.14471
40,0.325,-238.55386,-220.93573,776.01904,-187.2683,-169.15248,725.22998,-149.35094,-128.71016,790.72565
41,0.333,-238.55386,-220.93573,776.01904,-187.2683,-169.15248,725.22998,-150.1994,-128.47516,792.14471
42,0.342,-238.35016,-221.01567,775.90167,-186.99315,-168.96523,725.36646,-149.93118,-128.27231,792.28479
43,0.35,-238.35016,-221.01567,775.90167,-186.70844,-168.66397,725.2525,-149.93118,-128.27231,792.28479
44,0.358,-238.40518,-221.03992,775.70941,-186.70844,-168.66397,725.2525,-149.84703,-128.39415,792.72589
45,0.367,-238.30768,-221.04402,775.56793,-186.70844,-168.66397,725.2525,-149.84703,-128.39415,792.72589
46,0.375,-238.2449,-221.37801,775.20575,-186.70844,-168.66397,725.2525,-149.84703,-128.39415,792.72589
47,0.383,-237.92494,-221.39848,775.03137,-186.70844,-168.66397,725.2525,-149.84703,-128.39415,792.72589
48,0.392,-237.92494,-221.39848,775.03137,-185.50476,-170.03775,725.48096,-149.84703,-128.39415,792.72589
49,0.4,-237.39362,-221.07617,774.94189,-185.24278,-170.15134,725.32172,-149.84703,-128.39415,792.72589
50,0.408,-237.32515,-220.06943,774.60986,-185.15053,-170.18275,725.11359,-149.84703,-128.39415,792.72589
51,0.417,-237.3757,-220.18297,774.37744,-184.59293,-169.40712,724.97589,-149.93118,-128.27231,792.28479
52,0.425,-237.26762,-219.7726,774.0611,-184.59293,-169.40712,724.97589,-149.93118,-128.27231,792.28479
53,0.433,-236.94548,-219.61578,773.59583,-184.98517,-169.86572,724.92151,-149.93118,-128.27231,792.28479
54,0.442,-236.94548,-219.61578,773.59583,-184.59293,-169.40712,724.97589,-148.7634,-128.36923,790.71967
55,0.45,-236.94548,-219.61578,773.59583,-184.98517,-169.86572,724.92151,-148.7634,-128.36923,790.71967
56,0.458,-237.30791,-219.50967,773.74396,-184.59293,-169.40712,724.97589,-148.7634,-128.36923,790.71967
57,0.467,-237.7403,-219.74812,773.70569,-184.98517,-169.86572,724.92151,-148.68434,-128.45302,790.46436
58,0.475,-237.54234,-219.63281,773.72949,-184.98517,-169.86572,724.92151,-148.68434,-128.45302,790.46436
59,0.483,-238.08524,-219.41963,774.11963,-185.37485,-169.59988,724.61621,-149.44395,-128.65564,789.73389
60,0.492,-238.30771,-219.47939,774.17609,-185.37485,-169.59988,724.61621,-149.03496,-128.60397,790.27441
61,0.5,-238.42564,-219.70789,774.32214,-185.63683,-169.48631,724.77545,-149.03496,-128.60397,790.27441
62,0.508,-238.58292,-219.70482,774.56702,-187.23392,-167.8849,724.61542,-149.11397,-128.5202,790.52972
63,0.517,-238.51866,-219.67996,774.63281,-187.41356,-168.16011,724.76709,-149.11397,-128.5202,790.52972
64,0.525,-238.64149,-219.71793,774.93079,-187.48679,-168.13133,724.95068,-149.35094,-128.71016,790.72565
65,0.533,-238.68695,-219.86086,775.03821,-187.3179,-168.67024,724.85339,-149.35094,-128.71016,790.72565
66,0.542,-239.01454,-219.87907,775.10431,-186.98357,-168.85127,725.11603,-149.35094,-128.71016,790.72565
67,0.55,-238.85931,-220.11684,775.09271,-187.54689,-169.04773,725.54144,-149.15689,-128.91342,791.31122
68,0.558,-239.18106,-220.55899,775.06018,-187.54689,-169.04773,725.54144,-149.15689,-128.91342,791.31122
69,0.567,-239.35739,-220.71062,775.22296,-187.54689,-169.04773,725.54144,-149.47264,-129.24045,791.47754
70,0.575,-239.44717,-220.91896,774.96448,-187.88649,-169.22,725.43665,-149.53696,-129.53307,791.8042
71,0.583,-239.44717,-220.91896,774.96448,-188.06599,-169.49512,725.58813,-150.81783,-129.15787,793.08307
72,0.592,-239.48572,-221.7433,775.04816,-188.06599,-169.49512,725.58813,-151.02946,-129.05844,793.24591
73,0.6,-239.38805,-221.88828,774.823,-188.06599,-169.49512,725.58813,-151.02946,-129.05844,793.24591
74,0.608,-239.38805,-221.88828,774.823,-188.06599,-169.49512,725.58813,-150.81783,-129.15787,793.08307
75,0.617,-239.38805,-221.88828,774.823,-188.06599,-169.49512,725.58813,-150.81783,-129.15787,793.08307
76,0.625,-239.38805,-221.88828,774.823,-187.78748,-169.59988,725.27673,-150.81783,-129.15787,793.08307
77,0.633,-239.38805,-221.88828,774.823,-188.06599,-169.49512,725.58813,-150.81783,-129.15787,793.08307
78,0.642,-239.38805,-221.88828,774.823,-187.78748,-169.59988,725.27673,-151.1069,-129.42493,792.90466
79,0.65,-239.5657,-221.82568,775.12732,-188.06599,-169.49512,725.58813,-150.77258,-129.68781,791.15442
80,0.658,-239.60925,-221.81042,774.93304,-187.78748,-169.59988,725.27673,-150.77258,-129.68781,791.15442
81,0.667,-239.60925,-221.81042,774.93304,-188.47601,-169.92134,725.51166,-150.96619,-129.48508,790.56885
82,0.675,-239.71063,-221.65883,775.16675,-188.90036,-170.01091,725.51617,-150.96619,-129.48508,790.56885
83,0.683,-239.71063,-221.65883,775.16675,-189.67738,-169.89426,725.06696,-150.96619,-129.48508,790.56885
84,0.692,-240.03471,-221.57715,774.84454,-189.67738,-169.89426,725.06696,-150.96619,-129.48508,790.56885
85,0.7,-240.03471,-221.57715,774.84454,-189.67738,-169.89426,725.06696,-150.96619,-129.48508,790.56885
86,0.708,-240.07149,-221.62952,774.77423,-189.67738,-169.89426,725.06696,-150.96619,-129.48508,790.56885
87,0.717,-240.07149,-221.62952,774.77423,-189.67738,-169.89426,725.06696,-151.89961,-129.79764,790.17096
88,0.725,-240.19272,-221.61235,774.92413,-189.67738,-169.89426,725.06696,-151.89961,-129.79764,790.17096
89,0.733,-240.46379,-221.71138,774.82068,-189.67738,-169.89426,725.06696,-151.61485,-129.51534,790.51843
90,0.742,-240.50427,-221.75719,774.75354,-189.67738,-169.89426,725.06696,-151.89961,-129.79764,790.17096
91,0.75,-240.53551,-221.981,774.6001,-189.67738,-169.89426,725.06696,-151.89961,-129.79764,790.17096
92,0.758,-240.47391,-222.33287,774.18231,-189.67738,-169.89426,725.06696,-151.89961,-129.79764,790.17096
93,0.767,-240.31847,-222.30049,774.10895,-189.67738,-169.89426,725.06696,-152.83281,-130.11101,789.77356
94,0.775,-240.41127,-222.47162,774.05927,-189.71011,-170.08801,724.84833,-152.18422,-130.08037,789.82379
95,0.783,-240.40657,-222.25586,773.60693,-189.41327,-170.21829,724.72833,-152.18422,-130.08037,789.82379
96,0.792,-240.25322,-222.43903,773.59009,-189.41327,-170.21829,724.72833,-151.91103,-130.26974,789.6012
97,0.8,-240.25322,-222.43903,773.59009,-189.41327,-170.21829,724.72833,-151.91103,-130.26974,789.6012
98,0.808,-239.85925,-222.58118,773.25525,-189.28708,-170.16469,724.56219,-151.91164,-130.48984,789.31567
99,0.817,-239.85925,-222.58118,773.25525,-188.1301,-171.62001,724.02051,-151.15558,-130.30261,789.26398
100,0.825,-239.89886,-222.50589,773.1615,-187.21066,-171.49547,723.98669,-150.645,-130.02815,788.92548
101,0.833,-239.86415,-222.70427,773.04071,-187.21066,-171.49547,723.98669,-150.645,-130.02815,788.92548
102,0.842,-239.82895,-222.61351,772.85431,-186.97,-171.13092,723.87671,-150.67018,-130.15593,789.85095
103,0.85,-239.76826,-222.53949,772.74316,-186.97,-171.13092,723.87671,-150.54129,-130.09413,789.67065
104,0.858,-239.55762,-222.40167,772.78638,-186.25848,-170.68358,723.65613,-150.54129,-130.09413,789.67065
105,0.867,-239.41275,-222.06531,772.96869,-186.25848,-170.68358,723.65613,-150.54129,-130.09413,789.67065
106,0.875,-239.50458,-222.00681,772.95978,-186.25848,-170.68358,723.65613,-150.54129,-130.09413,789.67065
107,0.883,-239.2859,-221.73936,772.9541,-186.25848,-170.68358,723.65613,-150.27295,-129.89122,789.81061
108,0.892,-239.19408,-221.79788,772.96301,-186.25848,-170.68358,723.65613,-150.50945,-129.42758,789.67676
109,0.9,-239.2859,-221.73936,772.9541,-186.25848,-170.68358,723.65613,-150.50945,-129.42758,789.67676
110,0.908,-239.2859,-221.73936,772.9541,-186.0802,-170.42227,723.6087,-149.81985,-129.27686,789.00879
111,0.917,-238.77699,-221.34993,772.98529,-186.02716,-170.22565,723.72583,-149.81985,-129.27686,789.00879
112,0.925,-238.41016,-221.24991,772.87183,-186.02716,-170.22565,723.72583,-149.81985,-129.27686,789.00879
113,0.933,-238.12207,-221.15147,772.8396,-185.75435,-170.07285,723.83215,-149.81477,-129.07468,789.25311
114,0.942,-238.12207,-221.15147,772.8396,-185.75435,-170.07285,723.83215,-149.81477,-129.07468,789.25311
115,0.95,-237.96559,-221.41127,772.60986,-185.75435,-170.07285,723.83215,-149.81477,-129.07468,789.25311
116,0.958,-237.67758,-221.31296,772.57776,-186.8288,-168.44783,723.36029,-149.44904,-128.85773,789.48944
117,0.967,-237.67758,-221.31296,772.57776,-186.00624,-167.01964,723.56714,-152.57773,-127.64153,788.64264
118,0.975,-237.65907,-221.209,772.43225,-186.06508,-166.23305,723.40442,-152.43773,-127.45718,788.25073
119,0.983,-236.59125,-220.98074,772.04095,-186.06508,-166.23305,723.40442,-152.17429,-127.54647,788.06879
120,0.992,-236.70618,-220.82796,771.65735,-186.06508,-166.23305,723.40442,-152.03305,-127.60989,788.2627
121,1,-236.40483,-220.86191,771.64777,-186.07927,-166.17023,723.34058,-149.44395,-128.65564,789.73389
122,1.008,-236.01726,-219.69038,771.44006,-185.65263,-166.07106,723.32599,-149.09317,-128.50481,789.92395
123,1.017,-236.12161,-219.61015,771.35461,-185.226,-165.97205,723.3114,-149.09317,-128.50481,789.92395
124,1.025,-236.0903,-219.18977,770.92444,-185.0439,-165.81801,723.14685,-148.14149,-128.03232,789.96252
125,1.033,-236.0903,-219.18977,770.92444,-185.0439,-165.81801,723.14685,-147.54355,-127.89884,790.13696
126,1.042,-235.88942,-219.23959,770.9563,-185.0439,-165.81801,723.14685,-147.54355,-127.89884,790.13696
127,1.05,-235.69447,-219.37593,771.28894,-183.28253,-166.27779,722.90833,-148.1476,-127.66857,790.75525
128,1.058,-235.69447,-219.37593,771.28894,-183.2859,-166.14999,722.60229,-148.1476,-127.66857,790.75525
129,1.067,-235.48746,-219.16821,771.4942,-183.2859,-166.14999,722.60229,-147.79767,-127.14641,790.58154
130,1.075,-235.48746,-219.16821,771.4942,-183.28253,-166.27779,722.90833,-147.79767,-127.14641,790.58154
131,1.083,-235.28021,-219.04745,771.73419,-183.28253,-166.27779,722.90833,-147.37552,-127.05098,790.56647
132,1.092,-235.31734,-218.52144,771.9118,-183.41838,-165.40533,722.80542,-147.72543,-127.57323,790.74023
133,1.1,-235.18959,-218.6116,772.00629,-183.28253,-166.27779,722.90833,-147.37552,-127.05098,790.56647
134,1.108,-235.18959,-218.6116,772.00629,-183.42198,-166.44144,723.03979,-147.37552,-127.05098,790.56647
135,1.117,-235.26123,-218.68481,772.11029,-183.42198,-166.44144,723.03979,-147.1871,-127.37151,789.90601
136,1.125,-235.11238,-219.37485,772.18524,-183.42198,-166.44144,723.03979,-146.94914,-127.90012,790.14844
137,1.133,-235.11238,-219.37485,772.18524,-184.3647,-166.18265,722.92004,-147.31796,-127.95544,790.55902
138,1.142,-235.11238,-219.37485,772.18524,-184.3647,-166.18265,722.92004,-147.31796,-127.95544,790.55902
139,1.15,-235.12184,-219.49742,772.34491,-183.42198,-166.44144,723.03979,-147.31796,-127.95544,790.55902
140,1.158,-235.05026,-219.58846,772.32587,-184.36284,-166.24126,722.96771,-147.31796,-127.95544,790.55902
141,1.167,-235.05026,-219.58846,772.32587,-184.16878,-166.40723,723.16394,-147.31796,-127.95544,790.55902
142,1.175,-234.93832,-219.63379,772.37006,-184.16878,-166.40723,723.16394,-147.58868,-127.56611,791.05823
143,1.183,-234.34224,-219.86424,772.48682,-184.16878,-166.40723,723.16394,-147.58868,-127.56611,791.05823
144,1.192,-234.20407,-219.97481,772.38239,-182.02063,-168.47263,723.23724,-147.58868,-127.56611,791.05823
145,1.2,-233.80983,-220.16428,772.30902,-184.07359,-166.41223,723.42682,-147.58868,-127.56611,791.05823
146,1.208,-233.85056,-220.0824,772.05939,-184.07359,-166.41223,723.42682,-147.37552,-127.05098,790.56647
147,1.217,-233.55292,-219.96645,772.03644,-184.07359,-166.41223,723.42682,-147.37552,-127.05098,790.56647
148,1.225,-233.62076,-219.71802,772.11237,-184.07359,-166.41223,723.42682,-147.16394,-127.15051,790.40369
149,1.233,-233.23199,-219.59233,772.16095,-183.50475,-166.28027,723.40753,-146.94312,-126.84361,790.36444
150,1.242,-233.23199,-219.59233,772.16095,-183.50475,-166.28027,723.40753,-146.02974,-127.23019,789.68018
151,1.25,-233.34874,-219.52068,772.27448,-181.47758,-168.10568,723.02661,-146.94312,-126.84361,790.36444
152,1.258,-233.67139,-219.25793,772.24377,-181.47758,-168.10568,723.02661,-147.15471,-126.74407,790.52722
153,1.267,-233.74307,-219.33118,772.34784,-181.64606,-168.05061,723.14087,-147.47467,-125.81245,790.38092
154,1.275,-233.74307,-219.33118,772.34784,-181.64606,-168.05061,723.14087,-147.38268,-125.56746,790.52197
155,1.283,-234.32748,-218.76071,772.3194,-181.64606,-168.05061,723.14087,-147.38268,-125.56746,790.52197
156,1.292,-234.75214,-218.8799,772.39777,-182.78966,-166.23973,723.62939,-147.29921,-125.68914,790.96301
157,1.3,-234.63258,-218.77165,772.59894,-182.78966,-166.23973,723.62939,-147.27147,-125.47523,791.19434
158,1.308,-234.72595,-219.10635,772.68378,-182.64131,-165.96744,723.98236,-148.25302,-125.41431,790.8407
159,1.317,-234.71277,-218.95602,772.83215,-182.64131,-165.96744,723.98236,-146.08354,-126.80758,790.90692
160,1.325,-234.71277,-218.95602,772.83215,-183.22232,-165.83185,724.33441,-146.08354,-126.80758,790.90692
161,1.333,-234.72595,-219.10635,772.68378,-183.58377,-165.70845,723.86279,-147.55516,-126.34325,791.5481
162,1.342,-234.72595,-219.10635,772.68378,-183.22232,-165.83185,724.33441,-145.9279,-127.14973,791.40851
163,1.35,-234.83499,-219.49518,772.69714,-183.22232,-165.83185,724.33441,-147.82153,-126.49157,792.51636
164,1.358,-234.81161,-219.72803,772.56787,-183.41573,-166.06316,724.23999,-145.9279,-127.14973,791.40851
165,1.367,-234.41919,-219.95076,772.78992,-182.92749,-166.35451,724.18335,-145.9279,-127.14973,791.40851
166,1.375,-234.45485,-219.84688,772.66357,-183.12093,-166.58572,724.08893,-145.9279,-127.14973,791.40851
167,1.383,-234.34224,-219.86424,772.48682,-183.12093,-166.58572,724.08893,-146.47917,-127.49142,790.75793
168,1.392,-233.62027,-219.6375,771.96729,-183.48257,-166.46237,723.61713,-146.03426,-127.76627,790.46088
169,1.4,-233.94431,-219.91493,771.9151,-183.60619,-166.26398,724.14227,-146.03426,-127.76627,790.46088
170,1.408,-233.38039,-219.54614,771.85742,-183.60619,-166.26398,724.14227,-146.03426,-127.76627,790.46088
171,1.417,-233.25674,-219.50146,771.70074,-183.50475,-166.28027,723.40753,-145.47807,-127.80752,789.07709
172,1.425,-233.22792,-219.42189,771.78162,-183.50475,-166.28027,723.40753,-145.68503,-127.43698,789.81787
173,1.433,-233.22792,-219.42189,771.78162,-183.50475,-166.28027,723.40753,-145.37296,-127.47158,789.69592
174,1.442,-233.22792,-219.42189,771.78162,-183.50475,-166.28027,723.40753,-145.37296,-127.47158,789.69592
175,1.45,-233.16029,-219.51909,772.05688,-183.50475,-166.28027,723.40753,-145.37296,-127.47158,789.69592
176,1.458,-233.67139,-219.25793,772.24377,-183.50475,-166.28027,723.40753,-145.89667,-127.33775,789.98077
177,1.467,-233.67139,-219.25793,772.24377,-183.50475,-166.28027,723.40753,-147.50325,-126.9894,790.53271
178,1.475,-234.63684,-219.21663,772.25403,-183.40845,-167.32477,724.31128,-147.69452,-127.28228,790.55878
179,1.483,-234.81161,-219.72803,772.56787,-183.40845,-167.32477,724.31128,-148.16945,-127.17407,790.92499
180,1.492,-235.12975,-219.90822,772.67993,-183.40845,-167.32477,724.31128,-146.57692,-127.92977,791.24762
181,1.5,-235.20607,-219.81212,772.98364,-183.36299,-167.97444,724.45331,-148.41144,-128.13411,792.45599
182,1.508,-235.23795,-219.7634,773.26813,-182.71341,-168.31187,724.78735,-146.99501,-128.80003,791.84155
183,1.517,-235.36626,-219.69745,773.39758,-181.20941,-169.8766,724.17377,-146.79738,-129.13155,792.2915
184,1.525,-235.30811,-221.21539,773.70691,-181.44391,-170.08229,724.11096,-146.8774,-129.68994,792.73383
185,1.533,-235.40808,-221.46529,773.63617,-182.45813,-169.72614,723.97827,-149.60698,-129.93645,793.24683
186,1.542,-235.49884,-221.47548,773.22717,-182.37065,-170.04716,724.18237,-149.38547,-130.38979,792.49927
187,1.55,-235.13162,-221.6649,773.41272,-182.50879,-170.21091,724.32434,-149.10329,-130.47833,793.40491
188,1.558,-235.21461,-221.6731,773.35107,-182.80011,-170.15245,724.73438,-146.94029,-131.86192,794.8111
189,1.567,-235.21461,-221.6731,773.35107,-182.43854,-170.30157,725.00574,-146.94029,-131.86192,794.8111
190,1.575,-235.43097,-221.94746,773.15942,-182.80011,-170.15245,724.73438,-146.51868,-131.76653,794.79602
