Frame#,Time,L.Forearm.x,L.Forearm.y,L.Forearm.z,L.Ulna.x,L.Ulna.y,L.Ulna.z,L.Radius.x,L.Radius.y,L.Radius.z
1,0,-182.6268,496.37195,920.2254,-139.74741,488.91495,859.05743,-131.25821,429.50812,920.27142
2,0.008,-182.6268,496.37195,920.2254,-139.74741,488.91495,859.05743,-131.25821,429.50812,920.27142
3,0.017,-182.6268,496.37195,920.2254,-139.79749,489.02902,858.95026,-131.25821,429.50812,920.27142
4,0.025,-182.89516,496.39694,920.24097,-139.74741,488.91495,859.05743,-131.25821,429.50812,920.27142
5,0.033,-182.6268,496.37195,920.2254,-139.79749,489.02902,858.95026,-129.63467,431.78165,920.61035
6,0.042,-182.89516,496.39694,920.24097,-139.79749,489.02902,858.95026,-131.25821,429.50812,920.27142
7,0.05,-182.6268,496.37195,920.2254,-139.79749,489.02902,858.95026,-131.25821,429.50812,920.27142
8,0.058,-182.6268,496.37195,920.2254,-139.79749,489.02902,858.95026,-130.4527,430.60797,920.39655
9,0.067,-182.89516,496.39694,920.24097,-139.79749,489.02902,858.95026,-131.25821,429.50812,920.27142
10,0.075,-182.6268,496.37195,920.2254,-139.79749,489.02902,858.95026,-129.11475,431.80844,921.23108
11,0.083,-182.6268,496.37195,920.2254,-139.59866,489.07822,858.89874,-130.6514,431.50116,920.55688
12,0.092,-182.6268,496.37195,920.2254,-139.59866,489.07822,858.89874,-130.4527,430.60797,920.39655
13,0.1,-182.6268,496.37195,920.2254,-139.59866,489.07822,858.89874,-130.4527,430.60797,920.39655
14,0.108,-182.6268,496.37195,920.2254,-139.59866,489.07822,858.89874,-130.4527,430.60797,920.39655
15,0.117,-182.6268,496.37195,920.2254,-139.59866,489.07822,858.89874,-130.4527,430.60797,920.39655
16,0.125,-182.52911,496.73712,920.14502,-139.59866,489.07822,858.89874,-130.4527,430.60797,920.39655
17,0.133,-182.6268,496.37195,920.2254,-139.59866,489.07822,858.89874,-130.4527,430.60797,920.39655
18,0.142,-182.6268,496.37195,920.2254,-139.59866,489.07822,858.89874,-131.25821,429.50812,920.27142
19,0.15,-182.52911,496.73712,920.14502,-139.59866,489.07822,858.89874,-130.64151,430.70444,920.27051
20,0.158,-182.6268,496.37195,920.2254,-139.59866,489.07822,858.89874,-129.8351,431.85681,920.47455
21,0.167,-183.00795,496.83963,920.12518,-139.59866,489.07822,858.89874,-130.84019,431.5975,920.43085
22,0.175,-183.10225,496.46576,920.19647,-139.59866,489.07822,858.89874,-130.84019,431.5975,920.43085
23,0.183,-183.10225,496.46576,920.19647,-139.79749,489.02902,858.95026,-131.64586,430.4978,920.30573
24,0.192,-183.10225,496.46576,920.19647,-139.79749,489.02902,858.95026,-130.84019,431.5975,920.43085
25,0.2,-183.10225,496.46576,920.19647,-139.79749,489.02902,858.95026,-131.64586,430.4978,920.30573
26,0.208,-183.10225,496.46576,920.19647,-139.79749,489.02902,858.95026,-130.84019,431.5975,920.43085
27,0.217,-183.10225,496.46576,920.19647,-139.79749,489.02902,858.95026,-130.84019,431.5975,920.43085
28,0.225,-183.10225,496.46576,920.19647,-139.79749,489.02902,858.95026,-130.84019,431.5975,920.43085
29,0.233,-183.10225,496.46576,920.19647,-139.79749,489.02902,858.95026,-130.84019,431.5975,920.43085
30,0.242,-183.05275,496.6705,920.3382,-139.79749,489.02902,858.95026,-130.84019,431.5975,920.43085
31,0.25,-183.05275,496.6705,920.3382,-139.79749,489.02902,858.95026,-130.84019,431.5975,920.43085
32,0.258,-183.05275,496.6705,920.3382,-139.79749,489.02902,858.95026,-131.64586,430.4978,920.30573
33,0.267,-182.96028,497.07178,920.27844,-139.91544,489.741,858.80566,-131.64586,430.4978,920.30573
34,0.275,-182.96028,497.07178,920.27844,-139.91544,489.741,858.80566,-130.84019,431.5975,920.43085
35,0.283,-183.05275,496.6705,920.3382,-139.91544,489.741,858.80566,-130.84019,431.5975,920.43085
36,0.292,-183.05275,496.6705,920.3382,-139.91544,489.741,858.80566,-130.84019,431.5975,920.43085
37,0.3,-183.05275,496.6705,920.3382,-139.79749,489.02902,858.95026,-130.53859,432.35565,920.31573
38,0.308,-183.05275,496.6705,920.3382,-139.79749,489.02902,858.95026,-130.84019,431.5975,920.43085
39,0.317,-183.05275,496.6705,920.3382,-139.79749,489.02902,858.95026,-131.64586,430.4978,920.30573
40,0.325,-183.05275,496.6705,920.3382,-139.79749,489.02902,858.95026,-130.84019,431.5975,920.43085
41,0.333,-183.05275,496.6705,920.3382,-139.79749,489.02902,858.95026,-130.84019,431.5975,920.43085
42,0.342,-183.10225,496.46576,920.19647,-139.79749,489.02902,858.95026,-131.64586,430.4978,920.30573
43,0.35,-183.05275,496.6705,920.3382,-139.79749,489.02902,858.95026,-131.64586,430.4978,920.30573
44,0.358,-183.10225,496.46576,920.19647,-139.79749,489.02902,858.95026,-130.84019,431.5975,920.43085
45,0.367,-183.10225,496.46576,920.19647,-139.79749,489.02902,858.95026,-131.64586,430.4978,920.30573
46,0.375,-183.10225,496.46576,920.19647,-139.79749,489.02902,858.95026,-131.64586,430.4978,920.30573
47,0.383,-183.10225,496.46576,920.19647,-139.79749,489.02902,858.95026,-131.64586,430.4978,920.30573
48,0.392,-183.10225,496.46576,920.19647,-139.79749,489.02902,858.95026,-131.64586,430.4978,920.30573
49,0.4,-183.10225,496.46576,920.19647,-139.79749,489.02902,858.95026,-131.64586,430.4978,920.30573
50,0.408,-183.10225,496.46576,920.19647,-139.79749,489.02902,858.95026,-131.64586,430.4978,920.30573
51,0.417,-183.10225,496.46576,920.19647,-139.79749,489.02902,858.95026,-132.02322,430.41278,920.29242
52,0.425,-183.10225,496.46576,920.19647,-139.79749,489.02902,858.95026,-132.02322,430.41278,920.29242
53,0.433,-183.10225,496.46576,920.19647,-139.79749,489.02902,858.95026,-132.02322,430.41278,920.29242
54,0.442,-183.05275,496.6705,920.3382,-139.79749,489.02902,858.95026,-132.02322,430.41278,920.29242
55,0.45,-183.05275,496.6705,920.3382,-140.22765,489.12418,858.92987,-132.02322,430.41278,920.29242
56,0.458,-183.05275,496.6705,920.3382,-140.22765,489.12418,858.92987,-132.02322,430.41278,920.29242
57,0.467,-183.05275,496.6705,920.3382,-140.22765,489.12418,858.92987,-132.02322,430.41278,920.29242
58,0.475,-183.05275,496.6705,920.3382,-140.22765,489.12418,858.92987,-132.02322,430.41278,920.29242
59,0.483,-183.05275,496.6705,920.3382,-140.22765,489.12418,858.92987,-132.02322,430.41278,920.29242
60,0.492,-183.05275,496.6705,920.3382,-140.3455,489.83612,858.78528,-132.02322,430.41278,920.29242
61,0.5,-182.90794,496.88864,920.63232,-140.22765,489.12418,858.92987,-132.02322,430.41278,920.29242
62,0.508,-182.90794,496.88864,920.63232,-140.22765,489.12418,858.92987,-132.02322,430.41278,920.29242
63,0.517,-182.90794,496.88864,920.63232,-140.3455,489.83612,858.78528,-132.02322,430.41278,920.29242
64,0.525,-182.90794,496.88864,920.63232,-140.3455,489.83612,858.78528,-131.64586,430.4978,920.30573
65,0.533,-182.90794,496.88864,920.63232,-140.3455,489.83612,858.78528,-132.02322,430.41278,920.29242
66,0.542,-182.90794,496.88864,920.63232,-140.22765,489.12418,858.92987,-131.64586,430.4978,920.30573
67,0.55,-182.90794,496.88864,920.63232,-140.3455,489.83612,858.78528,-132.02322,430.41278,920.29242
68,0.558,-183.05275,496.6705,920.3382,-139.91544,489.741,858.80566,-131.64586,430.4978,920.30573
69,0.567,-182.90794,496.88864,920.63232,-139.79749,489.02902,858.95026,-132.02322,430.41278,920.29242
70,0.575,-183.05275,496.6705,920.3382,-139.79749,489.02902,858.95026,-131.64586,430.4978,920.30573
71,0.583,-183.05275,496.6705,920.3382,-140.22765,489.12418,858.92987,-132.02322,430.41278,920.29242
72,0.592,-183.05275,496.6705,920.3382,-139.79749,489.02902,858.95026,-132.02322,430.41278,920.29242
73,0.6,-183.05275,496.6705,920.3382,-139.79749,489.02902,858.95026,-131.64586,430.4978,920.30573
74,0.608,-183.10225,496.46576,920.19647,-139.79749,489.02902,858.95026,-132.02322,430.41278,920.29242
75,0.617,-183.10225,496.46576,920.19647,-140.22765,489.12418,858.92987,-132.02322,430.41278,920.29242
76,0.625,-183.10225,496.46576,920.19647,-140.22765,489.12418,858.92987,-132.02322,430.41278,920.29242
77,0.633,-183.10225,496.46576,920.19647,-140.22765,489.12418,858.92987,-132.02322,430.41278,920.29242
78,0.642,-183.10225,496.46576,920.19647,-140.22765,489.12418,858.92987,-132.02322,430.41278,920.29242
79,0.65,-183.10225,496.46576,920.19647,-140.22765,489.12418,858.92987,-132.02322,430.41278,920.29242
80,0.658,-183.10225,496.46576,920.19647,-140.22765,489.12418,858.92987,-132.02322,430.41278,920.29242
81,0.667,-183.05275,496.6705,920.3382,-140.22765,489.12418,858.92987,-132.02322,430.41278,920.29242
82,0.675,-183.05275,496.6705,920.3382,-140.22765,489.12418,858.92987,-132.02322,430.41278,920.29242
83,0.683,-183.10225,496.46576,920.19647,-140.22765,489.12418,858.92987,-132.02322,430.41278,920.29242
84,0.692,-183.05275,496.6705,920.3382,-140.22765,489.12418,858.92987,-132.02322,430.41278,920.29242
85,0.7,-183.05275,496.6705,920.3382,-140.22765,489.12418,858.92987,-132.02322,430.41278,920.29242
86,0.708,-183.05275,496.6705,920.3382,-140.22765,489.12418,858.92987,-132.02322,430.41278,920.29242
87,0.717,-183.05275,496.6705,920.3382,-140.22765,489.12418,858.92987,-131.64586,430.4978,920.30573
88,0.725,-183.05275,496.6705,920.3382,-139.79749,489.02902,858.95026,-131.64586,430.4978,920.30573
89,0.733,-183.05275,496.6705,920.3382,-140.22765,489.12418,858.92987,-131.64586,430.4978,920.30573
90,0.742,-182.90794,496.88864,920.63232,-139.79749,489.02902,858.95026,-131.64586,430.4978,920.30573
91,0.75,-182.90794,496.88864,920.63232,-139.79749,489.02902,858.95026,-131.64586,430.4978,920.30573
92,0.758,-183.05275,496.6705,920.3382,-139.79749,489.02902,858.95026,-131.45692,430.40149,920.43182
93,0.767,-183.05275,496.6705,920.3382,-139.79749,489.02902,858.95026,-130.84019,431.5975,920.43085
94,0.775,-183.05275,496.6705,920.3382,-139.79749,489.02902,858.95026,-131.64586,430.4978,920.30573
95,0.783,-183.05275,496.6705,920.3382,-139.79749,489.02902,858.95026,-131.45692,430.40149,920.43182
96,0.792,-182.89516,496.39694,920.24097,-139.79749,489.02902,858.95026,-131.45692,430.40149,920.43182
97,0.8,-182.89516,496.39694,920.24097,-139.79749,489.02902,858.95026,-131.45692,430.40149,920.43182
98,0.808,-183.10225,496.46576,920.19647,-139.79749,489.02902,858.95026,-131.45692,430.40149,920.43182
99,0.817,-183.10225,496.46576,920.19647,-139.79749,489.02902,858.95026,-131.25821,429.50812,920.27142
100,0.825,-183.10225,496.46576,920.19647,-139.79749,489.02902,858.95026,-131.45692,430.40149,920.43182
101,0.833,-183.10225,496.46576,920.19647,-139.79749,489.02902,858.95026,-131.25821,429.50812,920.27142
102,0.842,-182.89516,496.39694,920.24097,-140.28688,488.4585,858.88873,-131.25821,429.50812,920.27142
103,0.85,-183.10225,496.46576,920.19647,-140.28688,488.4585,858.88873,-131.25821,429.50812,920.27142
104,0.858,-183.10225,496.46576,920.19647,-140.28688,488.4585,858.88873,-131.25821,429.50812,920.27142
105,0.867,-183.10225,496.46576,920.19647,-140.28688,488.4585,858.88873,-131.25821,429.50812,920.27142
106,0.875,-183.10225,496.46576,920.19647,-140.28688,488.4585,858.88873,-131.25821,429.50812,920.27142
107,0.883,-183.10225,496.46576,920.19647,-140.28688,488.4585,858.88873,-131.25821,429.50812,920.27142
108,0.892,-183.00795,496.83963,920.12518,-140.28688,488.4585,858.88873,-131.44713,429.60455,920.14526
109,0.9,-183.10225,496.46576,920.19647,-139.79749,489.02902,858.95026,-131.44713,429.60455,920.14526
110,0.908,-182.89516,496.39694,920.24097,-140.28688,488.4585,858.88873,-131.25821,429.50812,920.27142
111,0.917,-182.89516,496.39694,920.24097,-139.79749,489.02902,858.95026,-131.25821,429.50812,920.27142
112,0.925,-182.89516,496.39694,920.24097,-139.79749,489.02902,858.95026,-131.25821,429.50812,920.27142
113,0.933,-182.89516,496.39694,920.24097,-139.79749,489.02902,858.95026,-131.25821,429.50812,920.27142
114,0.942,-182.6268,496.37195,920.2254,-139.79749,489.02902,858.95026,-131.25821,429.50812,920.27142
115,0.95,-182.6268,496.37195,920.2254,-139.79749,489.02902,858.95026,-131.25821,429.50812,920.27142
116,0.958,-182.6268,496.37195,920.2254,-139.79749,489.02902,858.95026,-131.25821,429.50812,920.27142
117,0.967,-182.6268,496.37195,920.2254,-139.79749,489.02902,858.95026,-131.25821,429.50812,920.27142
118,0.975,-182.6268,496.37195,920.2254,-139.59866,489.07822,858.89874,-131.25821,429.50812,920.27142
119,0.983,-182.6268,496.37195,920.2254,-139.79749,489.02902,858.95026,-130.55235,429.47986,920.14337
120,0.992,-182.6268,496.37195,920.2254,-139.79749,489.02902,858.95026,-130.55235,429.47986,920.14337
121,1,-182.6268,496.37195,920.2254,-139.79749,489.02902,858.95026,-130.4527,430.60797,920.39655
122,1.008,-182.6268,496.37195,920.2254,-139.79749,489.02902,858.95026,-131.25821,429.50812,920.27142
123,1.017,-182.6268,496.37195,920.2254,-139.79749,489.02902,858.95026,-131.25821,429.50812,920.27142
124,1.025,-182.6268,496.37195,920.2254,-139.79749,489.02902,858.95026,-131.25821,429.50812,920.27142
125,1.033,-182.6268,496.37195,920.2254,-139.79749,489.02902,858.95026,-131.25821,429.50812,920.27142
126,1.042,-182.89516,496.39694,920.24097,-139.79749,489.02902,858.95026,-131.25821,429.50812,920.27142
127,1.05,-182.89516,496.39694,920.24097,-140.28688,488.4585,858.88873,-131.25821,429.50812,920.27142
128,1.058,-182.89516,496.39694,920.24097,-140.28688,488.4585,858.88873,-131.25821,429.50812,920.27142
129,1.067,-183.46846,496.25339,920.0365,-140.28688,488.4585,858.88873,-131.25821,429.50812,920.27142
130,1.075,-183.26137,496.1846,920.08105,-140.28688,488.4585,858.88873,-131.25821,429.50812,920.27142
131,1.083,-183.46846,496.25339,920.0365,-140.28688,488.4585,858.88873,-131.44713,429.60455,920.14526
132,1.092,-183.46846,496.25339,920.0365,-140.28688,488.4585,858.88873,-131.44713,429.60455,920.14526
133,1.1,-183.46846,496.25339,920.0365,-140.28688,488.4585,858.88873,-131.44713,429.60455,920.14526
134,1.108,-183.46846,496.25339,920.0365,-140.28688,488.4585,858.88873,-131.44713,429.60455,920.14526
135,1.117,-183.46846,496.25339,920.0365,-140.28688,488.4585,858.88873,-131.44713,429.60455,920.14526
136,1.125,-183.37555,496.59695,919.95911,-140.28688,488.4585,858.88873,-131.44713,429.60455,920.14526
137,1.133,-183.46846,496.25339,920.0365,-140.28688,488.4585,858.88873,-131.44713,429.60455,920.14526
138,1.142,-183.46846,496.25339,920.0365,-140.28688,488.4585,858.88873,-131.44713,429.60455,920.14526
139,1.15,-183.37555,496.59695,919.95911,-140.28688,488.4585,858.88873,-131.44713,429.60455,920.14526
140,1.158,-183.10225,496.46576,920.19647,-140.28688,488.4585,858.88873,-131.44713,429.60455,920.14526
141,1.167,-182.89516,496.39694,920.24097,-139.79749,489.02902,858.95026,-131.44713,429.60455,920.14526
142,1.175,-183.00795,496.83963,920.12518,-140.28688,488.4585,858.88873,-131.44713,429.60455,920.14526
143,1.183,-183.10225,496.46576,920.19647,-139.79749,489.02902,858.95026,-131.44713,429.60455,920.14526
144,1.192,-182.56651,496.62048,919.60278,-139.79749,489.02902,858.95026,-131.44713,429.60455,920.14526
145,1.2,-183.04543,496.72296,919.58289,-140.28688,488.4585,858.88873,-131.44713,429.60455,920.14526
146,1.208,-183.00795,496.83963,920.12518,-139.79749,489.02902,858.95026,-131.44713,429.60455,920.14526
147,1.217,-182.82681,496.70746,919.55798,-140.28688,488.4585,858.88873,-130.64151,430.70444,920.27051
148,1.225,-182.94043,496.35248,919.67175,-139.79749,489.02902,858.95026,-130.64151,430.70444,920.27051
149,1.233,-182.82681,496.70746,919.55798,-140.28688,488.4585,858.88873,-131.44713,429.60455,920.14526
150,1.242,-182.82681,496.70746,919.55798,-140.28688,488.4585,858.88873,-131.44713,429.60455,920.14526
151,1.25,-183.3067,496.14008,919.51172,-140.28688,488.4585,858.88873,-131.44713,429.60455,920.14526
152,1.258,-183.19447,496.46472,919.39178,-140.28688,488.4585,858.88873,-131.44713,429.60455,920.14526
153,1.267,-183.19447,496.46472,919.39178,-140.088,488.50772,858.83722,-131.44713,429.60455,920.14526
154,1.275,-183.19447,496.46472,919.39178,-140.28688,488.4585,858.88873,-131.44713,429.60455,920.14526
155,1.283,-183.19447,496.46472,919.39178,-139.92331,488.45108,858.60303,-131.44713,429.60455,920.14526
156,1.292,-183.19447,496.46472,919.39178,-139.63637,488.54514,858.47754,-129.8351,431.85681,920.47455
157,1.3,-183.19447,496.46472,919.39178,-139.92331,488.45108,858.60303,-129.8351,431.85681,920.47455
158,1.308,-183.19447,496.46472,919.39178,-139.92685,488.02374,858.36438,-129.8351,431.85681,920.47455
159,1.317,-183.19447,496.46472,919.39178,-139.92685,488.02374,858.36438,-129.8351,431.85681,920.47455
160,1.325,-183.19447,496.46472,919.39178,-139.92685,488.02374,858.36438,-129.8351,431.85681,920.47455
161,1.333,-183.19447,496.46472,919.39178,-139.4375,488.5943,858.42603,-129.8351,431.85681,920.47455
162,1.342,-183.41309,496.48019,919.41669,-139.92331,488.45108,858.60303,-131.44713,429.60455,920.14526
163,1.35,-183.19447,496.46472,919.39178,-140.17838,488.47739,858.22791,-129.8351,431.85681,920.47455
164,1.358,-183.41309,496.48019,919.41669,-140.37727,488.42819,858.27942,-131.03017,429.9772,919.91821
165,1.367,-183.52226,496.15472,919.53052,-139.63286,488.97241,858.71613,-129.8351,431.85681,920.47455
166,1.375,-183.45511,496.57645,919.3205,-139.79749,489.02902,858.95026,-129.48969,432.2099,920.68793
167,1.383,-183.41309,496.48019,919.41669,-139.79749,489.02902,858.95026,-131.64586,430.4978,920.30573
168,1.392,-183.52226,496.15472,919.53052,-139.99026,489.10959,858.87848,-129.90955,432.96042,920.71582
169,1.4,-183.45511,496.57645,919.3205,-140.28688,488.4585,858.88873,-130.84019,431.5975,920.43085
170,1.408,-183.41309,496.48019,919.41669,-140.28688,488.4585,858.88873,-131.64586,430.4978,920.30573
171,1.417,-183.41309,496.48019,919.41669,-139.99026,489.10959,858.87848,-131.64586,430.4978,920.30573
172,1.425,-183.52226,496.15472,919.53052,-140.47972,488.53903,858.81689,-132.02322,430.41278,920.29242
173,1.433,-183.41309,496.48019,919.41669,-140.47972,488.53903,858.81689,-131.64586,430.4978,920.30573
174,1.442,-183.41309,496.48019,919.41669,-140.91003,488.63406,858.79645,-131.64586,430.4978,920.30573
175,1.45,-183.52226,496.15472,919.53052,-140.91003,488.63406,858.79645,-132.02322,430.41278,920.29242
176,1.458,-183.52226,496.15472,919.53052,-140.91003,488.63406,858.79645,-132.02322,430.41278,920.29242
177,1.467,-183.52226,496.15472,919.53052,-140.91003,488.63406,858.79645,-132.02322,430.41278,920.29242
178,1.475,-183.52226,496.15472,919.53052,-140.91003,488.63406,858.79645,-132.02322,430.41278,920.29242
179,1.483,-183.46846,496.25339,920.0365,-140.42041,489.20468,858.85809,-132.02322,430.41278,920.29242
180,1.492,-183.46846,496.25339,920.0365,-140.91003,488.63406,858.79645,-132.02322,430.41278,920.29242
181,1.5,-183.46846,496.25339,920.0365,-141.02786,489.34601,858.65186,-132.02322,430.41278,920.29242
182,1.508,-183.6817,496.66245,919.79852,-140.42041,489.20468,858.85809,-132.02322,430.41278,920.29242
183,1.517,-183.77739,496.31473,919.87994,-141.02786,489.34601,858.65186,-132.02322,430.41278,920.29242
184,1.525,-183.77739,496.31473,919.87994,-140.53827,489.91656,858.71344,-132.02322,430.41278,920.29242
185,1.533,-183.77739,496.31473,919.87994,-140.80736,489.95914,858.49908,-132.02322,430.41278,920.29242
186,1.542,-183.72368,496.7587,919.70239,-141.29707,489.38852,858.43738,-132.02322,430.41278,920.29242
187,1.55,-183.6817,496.66245,919.79852,-141.29707,489.38852,858.43738,-132.02322,430.41278,920.29242
188,1.558,-183.87715,496.30264,919.28235,-141.65332,489.45538,858.27649,-132.02322,430.41278,920.29242
189,1.567,-184.34392,496.93188,919.9126,-141.65332,489.45538,858.27649,-132.02322,430.41278,920.29242
190,1.575,-184.48566,496.45804,919.46466,-141.65332,489.45538,858.27649,-132.29695,430.45563,920.1933
191,1.583,-184.54077,496.97711,919.90118,-141.65332,489.45538,858.27649,-132.29695,430.45563,920.1933
192,1.592,-185.09094,496.1131,919.43964,-141.65332,489.45538,858.27649,-132.29695,430.45563,920.1933
193,1.6,-185.03696,496.21182,919.94586,-141.65332,489.45538,858.27649,-132.29695,430.45563,920.1933
194,1.608,-185.89973,496.34219,919.84283,-141.65332,489.45538,858.27649,-132.29695,430.45563,920.1933
195,1.617,-185.89973,496.34219,919.84283,-141.65332,489.45538,858.27649,-132.49445,431.35092,920.35461
196,1.625,-186.02969,496.44046,919.75208,-141.89143,489.40933,858.32593,-132.49445,431.35092,920.35461
197,1.633,-185.8978,496.23856,919.961,-141.89143,489.40933,858.32593,-132.49445,431.35092,920.35461
