Frame#,Time,L.Forearm.x,L.Forearm.y,L.Forearm.z,L.Ulna.x,L.Ulna.y,L.Ulna.z,L.Radius.x,L.Radius.y,L.Radius.z
1,0,450.49393,397.14151,1247.62463,511.46408,374.73679,1178.06189,543.68579,327.71411,1260.46082
2,0.008,450.40887,397.1366,1247.65039,511.46408,374.73679,1178.06189,543.68176,327.08868,1260.5061
3,0.017,449.89008,396.44937,1248.12073,511.4577,374.64444,1178.19348,543.66071,326.41669,1260.7052
4,0.025,449.52942,396.07996,1249.06653,511.44113,374.21036,1178.53186,543.74524,326.49402,1260.85669
5,0.033,449.44559,396.17368,1249.31763,511.67337,373.99991,1178.72803,543.70465,327.20786,1260.98926
6,0.042,449.44559,396.17368,1249.31763,511.67337,373.99991,1178.72803,543.75122,326.16589,1261.27917
7,0.05,449.44559,396.17368,1249.31763,511.51953,374.15814,1178.98987,543.69214,325.13666,1261.35583
8,0.058,449.62726,395.82101,1249.10681,511.98282,374.68469,1179.35376,543.79205,325.0657,1261.42322
9,0.067,449.72052,395.37262,1249.08069,512.09521,374.47748,1179.40588,543.79205,325.0657,1261.42322
10,0.075,449.72052,395.37262,1249.08069,512.17908,374.3772,1179.23376,543.83667,324.97717,1261.24524
11,0.083,450.09885,395.3042,1248.9856,512.36633,374.34143,1179.22961,544.23322,325.44907,1261.36011
12,0.092,450.18625,395.30713,1248.96143,511.98398,374.1795,1178.55774,544.34772,325.53351,1261.27649
13,0.1,450.45389,395.43832,1247.96875,512.2384,374.49741,1178.41772,545.10797,325.57861,1260.84216
14,0.108,450.77322,395.99432,1247.61841,512.0011,374.23944,1178.48059,545.10797,325.57861,1260.84216
15,0.117,451.03244,395.94714,1247.64722,512.31531,374.80362,1178.40417,545.10797,325.57861,1260.84216
16,0.125,451.1524,395.91531,1247.65332,512.21906,373.95462,1178.43005,545.10797,325.57861,1260.84216
17,0.133,451.1524,395.91531,1247.65332,512.11353,374.03214,1178.53271,545.39801,325.61728,1260.82458
18,0.142,451.08228,395.84042,1247.83423,512.21906,373.95462,1178.43005,545.30402,325.57962,1261.09009
19,0.15,451.08228,395.84042,1247.83423,512.11353,374.03214,1178.53271,545.39801,325.61728,1260.82458
20,0.158,450.96384,395.64276,1247.99194,512.09637,373.9722,1178.60974,544.9267,325.56879,1261.24048
21,0.167,450.65622,395.67914,1248.87793,512.15234,373.88599,1178.70032,544.9267,325.56879,1261.24048
22,0.175,450.74197,395.80499,1249.18018,512.0202,373.6673,1178.87268,544.91205,325.41333,1261.39148
23,0.183,450.48279,395.85214,1249.15137,512.51434,373.30051,1179.11426,545.02295,325.14063,1261.86768
24,0.192,450.81747,395.47714,1248.42786,512.6153,373.22046,1179.18591,544.41461,325.09442,1261.88318
25,0.2,450.33334,394.9364,1249.13013,512.87836,373.84088,1179.39307,544.48792,324.99353,1262.07813
26,0.208,450.54898,394.81131,1249.474,512.66455,373.24991,1179.38452,544.29578,324.36435,1262.21143
27,0.217,450.54898,394.81131,1249.474,512.88129,373.26874,1179.52039,544.29578,324.36435,1262.21143
28,0.225,450.62247,393.98798,1249.38464,513.14435,373.88901,1179.72754,544.29578,324.36435,1262.21143
29,0.233,451.14951,394.07233,1248.42041,513.14435,373.88901,1179.72754,544.66992,324.33267,1261.91187
30,0.242,451.48969,394.28665,1248.5835,513.42926,373.78571,1179.52344,544.95978,324.37149,1261.89417
31,0.25,451.39005,393.90155,1247.86743,513.29828,373.384,1179.14392,544.85876,324.70856,1261.27393
32,0.258,452.31836,393.78403,1247.9917,513.27344,372.75558,1178.89087,544.93793,324.70099,1261.13916
33,0.267,452.66229,394.07379,1248.11279,513.79071,373.694,1178.95813,545.58447,325.32468,1260.97888
34,0.275,453.14368,394.66394,1247.74036,513.79388,373.78479,1178.50793,545.58447,325.32468,1260.97888
35,0.283,453.0524,394.90619,1248.46179,513.31696,373.16614,1178.3988,545.67114,324.88129,1260.98718
36,0.292,453.2236,394.60867,1247.65222,513.31696,373.16614,1178.3988,546.04932,325.1864,1260.63464
37,0.3,452.93704,394.46704,1247.4917,513.31696,373.16614,1178.3988,546.29858,325.08493,1260.51343
38,0.308,453.2236,394.60867,1247.65222,513.22498,373.24554,1178.32593,546.29565,325.04529,1260.55371
39,0.317,453.22839,395.33401,1248.48511,513.31696,373.16614,1178.3988,545.87097,324.79474,1260.88342
40,0.325,453.14102,394.68875,1247.58411,513.31696,373.16614,1178.3988,545.89539,325.3179,1260.77869
41,0.333,452.74826,394.19437,1247.83057,513.31696,373.16614,1178.3988,545.68182,325.38666,1260.91162
42,0.342,452.56015,394.19943,1248.72314,513.27344,372.75558,1178.89087,545.6178,325.23141,1261.07202
43,0.35,452.48026,394.25464,1248.81128,513.27344,372.75558,1178.89087,545.59509,325.09622,1261.22095
44,0.358,452.56284,394.17447,1248.87939,513.27344,372.75558,1178.89087,545.51593,325.10376,1261.35571
45,0.367,452.48767,394.14056,1248.93433,513.42535,372.69983,1178.92004,545.45892,324.85495,1261.46045
46,0.375,452.31439,393.76614,1248.98853,513.49719,372.51053,1179.24402,545.61273,323.95584,1261.52808
47,0.383,452.06372,393.71509,1248.91406,513.62921,372.7291,1179.07178,545.61273,323.95584,1261.52808
48,0.392,452.39429,393.71094,1248.90027,513.62921,372.7291,1179.07178,545.46936,324.0575,1261.23999
49,0.4,452.47137,393.62009,1248.66833,513.42535,372.69983,1178.92004,545.4538,324.16913,1261.1781
50,0.408,452.81482,393.76874,1247.45227,513.79999,373.09146,1178.65967,545.69556,324.25839,1260.87341
51,0.417,452.92123,394.09882,1246.99731,513.69531,373.08115,1178.39771,545.75958,324.41376,1260.71289
52,0.425,453.09683,394.28006,1247.16016,513.47705,373.15103,1178.35315,546.53204,324.51013,1260.33752
53,0.433,453.11523,394.36115,1247.06689,513.81708,372.93896,1178.06128,547.00555,324.51999,1260.08838
54,0.442,453.31924,394.58286,1247.15942,513.71973,373.13788,1177.86462,547.00555,324.51999,1260.08838
55,0.45,453.31924,394.58286,1247.15942,513.77191,372.85269,1177.74011,547.00555,324.51999,1260.08838
56,0.458,453.31924,394.58286,1247.15942,513.74323,372.77206,1177.5564,547.00555,324.51999,1260.08838
57,0.467,453.31924,394.58286,1247.15942,513.88556,372.84305,1177.18237,546.93695,324.81702,1259.92407
58,0.475,453.11523,394.36115,1247.06689,513.77191,372.85269,1177.74011,546.82898,324.43958,1259.9342
59,0.483,453.31924,394.58286,1247.15942,513.68848,372.98431,1177.79211,546.83496,324.59268,1260.24011
60,0.492,453.31924,394.58286,1247.15942,513.62231,372.84491,1178.03467,546.25275,324.80145,1260.5824
61,0.5,453.02942,394.30927,1247.52344,513.39545,372.73746,1178.36975,545.90552,324.89886,1260.90576
62,0.508,452.4921,394.15164,1248.47852,513.06268,372.84839,1178.53882,545.73828,324.91998,1261.10791
63,0.517,452.4921,394.15164,1248.47852,513.11847,372.77112,1178.61853,545.6178,325.23141,1261.07202
64,0.525,452.4902,394.27643,1248.65552,512.97845,372.48285,1178.87744,545.3385,324.4729,1261.13892
65,0.533,452.4921,394.15164,1248.47852,513.11053,372.70145,1178.7052,545.14868,324.74722,1261.25635
66,0.542,452.31689,393.90207,1248.70972,513.42535,372.69983,1178.92004,545.15948,324.0513,1261.26709
67,0.55,452.38687,393.82504,1248.77722,513.42535,372.69983,1178.92004,545.07758,324.25504,1261.24902
68,0.558,452.58704,393.9079,1247.53918,513.55353,372.70892,1178.87646,545.3385,324.4729,1261.13892
69,0.567,452.65698,393.83093,1247.60669,513.48236,372.84589,1178.72815,545.28821,324.37958,1260.69446
70,0.575,453.01422,394.36014,1247.09204,513.92572,373.78271,1178.47693,545.61127,324.31824,1260.52844
71,0.583,453.01422,394.36014,1247.09204,513.96375,373.61975,1178.15332,546.38434,324.43024,1260.18347
72,0.592,453.31924,394.58286,1247.15942,514.03381,373.70239,1177.78821,546.55182,324.45618,1259.92993
73,0.6,452.96219,394.67896,1246.85986,514.08478,373.64636,1177.50427,546.76038,324.7366,1259.7699
74,0.608,453.02707,395.3949,1246.8446,514.10199,373.6532,1177.24475,546.6662,325.00977,1259.71777
75,0.617,453.08093,395.43027,1246.79309,514.10199,373.6532,1177.24475,546.6662,325.00977,1259.71777
76,0.625,453.08093,395.43027,1246.79309,513.99207,373.7272,1177.18298,546.58917,325.14139,1259.43091
77,0.633,453.08093,395.43027,1246.79309,513.99207,373.7272,1177.18298,546.72455,325.48532,1259.36279
78,0.642,453.03354,395.73032,1246.86926,513.76929,373.28979,1177.16931,546.45197,325.16827,1259.40967
79,0.65,453.03354,395.73032,1246.86926,513.70068,373.25922,1177.22375,546.3891,325.0264,1259.7135
80,0.658,452.97971,395.69498,1246.92078,513.70068,373.25922,1177.22375,545.95258,325.45044,1260.06311
81,0.667,453.09012,396.59268,1247.724,513.70068,373.25922,1177.22375,545.31409,325.35135,1260.63623
82,0.675,452.66568,395.47647,1246.8512,513.09674,373.45352,1178.12622,545.49072,325.68756,1260.46118
83,0.683,451.88657,395.18295,1248.18127,513.09674,373.45352,1178.12622,545.49072,325.68756,1260.46118
84,0.692,451.96179,395.20096,1247.95874,513.0799,373.76791,1178.18811,545.34814,325.58084,1260.57581
85,0.7,451.76746,395.25986,1247.99072,513.0799,373.76791,1178.18811,544.95966,325.48325,1260.65771
86,0.708,451.77545,395.25922,1247.32129,513.39404,374.33221,1178.11169,544.70587,325.12607,1260.55359
87,0.717,451.83618,395.37399,1247.51514,513.32056,374.85373,1178.1106,544.70587,325.12607,1260.55359
88,0.725,452.069,395.50916,1246.98218,513.32056,374.85373,1178.1106,544.54242,325.14072,1260.30237
89,0.733,452.26334,395.45016,1246.95007,513.48993,375.53964,1178.14954,544.64557,325.19766,1260.23987
90,0.742,452.38589,395.16788,1246.65149,513.38855,375.75266,1178.06909,544.98322,325.38162,1259.91589
91,0.75,452.45697,395.41302,1246.75952,513.56873,375.78232,1177.06177,545.68805,324.76892,1259.26538
92,0.758,452.66568,395.47647,1246.8512,513.73608,375.66614,1176.89331,546.16376,325.06311,1259.24207
93,0.767,452.93216,395.73505,1246.88818,513.73608,375.66614,1176.89331,546.20038,325.31329,1258.89783
94,0.775,453.03937,395.64142,1246.65747,513.40662,375.68671,1176.59155,546.11401,325.80795,1258.71863
95,0.783,453.13943,395.87775,1246.66687,513.5484,375.75818,1176.21765,546.30359,326.64963,1258.56812
96,0.792,452.90585,396.39166,1246.4834,513.40662,375.68671,1176.59155,546.20941,326.92261,1258.51599
97,0.8,453.04611,396.32565,1246.69312,513.09814,375.20874,1176.31018,545.96985,327.22943,1258.48743
98,0.808,452.80447,396.39639,1246.50232,513.0166,375.34244,1176.50745,545.97662,327.39734,1258.69287
99,0.817,452.67444,396.50616,1246.66638,512.84851,375.3985,1176.4823,545.97662,327.39734,1258.69287
100,0.825,452.62723,397.18042,1247.31335,512.31476,375.46097,1176.84717,544.92236,327.17725,1259.83276
101,0.833,452.05612,396.48148,1247.58167,512.31396,375.61493,1177.1687,545.37842,327.77304,1259.67798
102,0.842,451.76251,396.50717,1247.62366,512.38367,375.54099,1177.24072,545.24316,327.42929,1259.74597
103,0.85,451.30026,396.48154,1248.04065,512.61273,376.1987,1177.63721,544.88287,327.38641,1259.99512
104,0.858,450.6348,396.04013,1248.5553,512.61273,376.1987,1177.63721,544.7135,326.61349,1260.18176
105,0.867,450.58643,396.52344,1248.51868,512.72229,376.0748,1177.88013,544.59857,326.56439,1260.23694
106,0.875,450.47952,396.12729,1248.67175,512.72229,376.0748,1177.88013,544.59857,326.56439,1260.23694
107,0.883,450.6348,396.04013,1248.5553,512.72229,376.0748,1177.88013,544.30841,326.52557,1260.25464
108,0.892,450.88773,396.49368,1248.28845,512.72229,376.0748,1177.88013,544.7135,326.61349,1260.18176
109,0.9,451.17154,396.27814,1247.72559,512.61273,376.1987,1177.63721,544.67065,326.59653,1259.97693
110,0.908,451.79312,396.28561,1246.81702,512.69238,376.23029,1177.57861,544.84003,327.36948,1259.79028
111,0.917,452.32016,396.229,1246.82739,512.68604,376.00989,1177.1958,545.37842,327.77304,1259.67798
112,0.925,452.60553,397.58542,1247.37476,513.0835,376.0506,1176.98352,545.19128,326.90527,1259.87512
113,0.933,452.68884,396.44678,1246.47473,513.29883,376.18295,1176.49878,545.92358,328.02744,1258.9873
114,0.942,452.84833,396.70776,1246.5332,513.44055,376.25443,1176.125,545.98126,328.09299,1258.45935
115,0.95,452.84833,396.70776,1246.5332,513.40765,376.16785,1175.92871,546.03125,328.17154,1258.37732
116,0.958,452.87836,396.76315,1246.46545,513.40765,376.16785,1175.92871,546.03125,328.17154,1258.37732
117,0.967,452.79343,396.95752,1246.40686,513.25806,376.21933,1175.9043,545.98212,328.24808,1258.30225
118,0.975,452.79343,396.95752,1246.40686,513.25806,376.21933,1175.9043,545.98212,328.24808,1258.30225
119,0.983,452.66867,396.88306,1246.14209,513.25806,376.21933,1175.9043,546.03125,328.17154,1258.37732
120,0.992,452.56244,396.89322,1246.15625,513.25806,376.21933,1175.9043,546.17932,328.26617,1258.56165
121,1,452.53494,396.97028,1246.07861,513.25806,376.21933,1175.9043,545.90314,328.31448,1258.90283
122,1.008,452.14767,397.36078,1247.03552,513.25806,376.21933,1175.9043,545.35663,328.17761,1259.25696
123,1.017,452.18384,397.27673,1247.11865,513.22333,376.35718,1176.24255,545.31921,328.32672,1259.54395
124,1.025,452.17056,397.2132,1247.19141,513.33667,376.13138,1176.31653,545.31873,328.23547,1259.63635
125,1.033,452.17056,397.2132,1247.19141,513.41803,375.84592,1176.7052,545.31873,328.23547,1259.63635
126,1.042,452.22806,396.89719,1247.1416,513.29248,375.94781,1176.8623,545.14227,328.1553,1259.48242
127,1.05,452.31299,396.70285,1247.2002,513.67175,375.93091,1176.74072,545.06665,327.34897,1259.59204
128,1.058,452.41074,396.51279,1247.01599,513.88757,375.97324,1176.2323,545.52838,327.51138,1259.203
129,1.067,452.46048,396.10703,1245.94507,513.77417,376.1991,1176.15833,545.97662,327.39734,1258.69287
130,1.075,453.10797,397.16214,1247.09802,513.9931,376.03699,1175.79126,545.69513,326.68942,1258.39148
131,1.083,452.87186,396.0874,1246.0188,513.9931,376.03699,1175.79126,546.33215,327.64822,1258.09375
132,1.092,452.85706,396.16122,1245.94153,514.09692,376.01199,1175.54211,546.46039,327.94772,1257.84119
133,1.1,453.09161,396.52084,1245.71387,514.09692,376.01199,1175.54211,546.3725,327.79953,1257.12476
134,1.108,453.21951,396.88922,1245.51758,514.09692,376.01199,1175.54211,546.69025,327.80655,1257.12708
135,1.117,453.48007,397.02768,1245.24475,514.27881,376.26669,1175.36194,546.87854,328.11298,1257.17163
136,1.125,453.67862,397.01111,1244.95227,514.27881,376.26669,1175.36194,546.87854,328.11298,1257.17163
137,1.133,453.68323,397.20752,1244.82654,514.27881,376.26669,1175.36194,546.7522,328.36365,1257.19458
138,1.142,453.5235,397.29581,1244.70996,514.27881,376.26669,1175.36194,546.7522,328.36365,1257.19458
139,1.15,453.35529,397.37836,1244.80933,514.09692,376.01199,1175.54211,546.75897,328.5318,1257.40015
140,1.158,453.28064,397.20026,1245.0459,514.09692,376.01199,1175.54211,546.73407,328.63248,1257.60352
141,1.167,453.14749,396.96478,1245.19824,514.09692,376.01199,1175.54211,546.33411,328.19839,1257.86414
142,1.175,452.97516,396.83206,1246.56384,514.09692,376.01199,1175.54211,546.34088,328.3663,1258.0697
143,1.183,452.88464,396.91281,1246.69983,514.09692,376.01199,1175.54211,546.41418,328.26563,1258.26465
144,1.192,452.69043,396.97174,1246.73193,513.9931,376.03699,1175.79126,546.64264,328.27579,1258.53076
145,1.2,452.76675,396.84479,1246.91272,514.10553,375.82968,1175.84314,546.37347,328.11304,1258.70789
146,1.208,452.75955,397.17267,1246.81433,514.10553,375.82968,1175.84314,546.2381,327.43591,1258.92871
147,1.217,452.76675,396.84479,1246.91272,514.10553,375.82968,1175.84314,546.09003,327.34125,1258.74438
148,1.225,452.85168,396.65048,1246.97131,514.10553,375.82968,1175.84314,546.44116,326.79904,1258.78625
149,1.233,453.15424,396.15146,1245.81799,514.10553,375.82968,1175.84314,546.58063,326.63287,1258.57239
150,1.242,453.23001,396.1442,1245.60474,514.10553,375.82968,1175.84314,546.76801,327.02734,1258.21167
151,1.25,453.70419,395.8569,1245.38904,514.39124,376.05945,1175.41382,547.07483,326.75464,1257.78442
152,1.258,454.32098,396.04251,1244.99756,514.27881,376.26669,1175.36194,546.8783,326.92285,1257.30273
153,1.267,454.30505,396.69635,1244.65283,514.27881,376.26669,1175.36194,547.50909,327.08652,1257.08801
154,1.275,454.40878,396.82928,1244.30396,514.24493,376.29086,1174.84827,548.03748,327.38147,1256.59436
155,1.283,454.40878,396.82928,1244.30396,514.43341,376.46991,1174.59265,548.30426,327.43719,1256.6958
156,1.292,454.40878,396.82928,1244.30396,514.4787,376.22238,1174.70227,548.30426,327.43719,1256.6958
157,1.3,454.33215,397.03293,1244.21936,514.35065,376.21332,1174.74573,548.25659,327.4473,1256.71814
158,1.308,454.33215,397.03293,1244.21936,514.30536,376.46088,1174.63611,548.29443,327.99136,1256.82788
159,1.317,454.23285,397.01639,1244.26099,514.35742,376.08356,1174.90002,548.02216,328.22342,1257.08081
160,1.325,454.30966,396.89279,1244.52722,514.39124,376.05945,1175.41382,547.48315,328.26157,1257.36707
161,1.333,454.30505,396.69635,1244.65283,514.39124,376.05945,1175.41382,547.56659,328.2981,1257.85938
162,1.342,453.76981,396.28336,1245.16565,514.20929,375.80469,1175.59387,546.9624,327.29651,1258.14124
163,1.35,453.52698,396.50458,1246.37012,514.20929,375.80469,1175.59387,547.32245,327.37219,1258.53052
164,1.358,453.27838,396.23422,1246.6156,514.10553,375.82968,1175.84314,547.24005,327.19504,1258.651
165,1.367,453.06076,396.5177,1247.01648,514.10553,375.82968,1175.84314,546.80737,326.82089,1259.03455
166,1.375,453.06076,396.5177,1247.01648,514.12195,375.75195,1175.93323,546.83405,326.7211,1259.13464
167,1.383,453.20673,396.24603,1245.76147,514.12134,375.8544,1176.14758,546.83405,326.7211,1259.13464
168,1.392,453.06076,396.5177,1247.01648,514.12134,375.8544,1176.14758,546.89392,326.25873,1259.17627
169,1.4,453.28745,395.89847,1245.77222,514.12134,375.8544,1176.14758,546.85986,325.82944,1259.2948
170,1.408,453.22791,395.87152,1246.00391,514.10553,375.82968,1175.84314,546.71228,326.09601,1258.6864
171,1.417,453.67807,395.28098,1245.61096,514.20929,375.80469,1175.59387,547.18152,326.47775,1258.31653
172,1.425,454.02097,395.25351,1245.59875,514.20929,375.80469,1175.59387,547.20648,326.37695,1258.11304
173,1.433,454.44458,395.36505,1244.99963,514.39124,376.05945,1175.41382,547.46289,326.84348,1257.84985
174,1.442,454.28937,395.80319,1245.10095,514.39124,376.05945,1175.41382,547.5368,326.59521,1257.32556
175,1.45,454.28677,396.32736,1244.87695,514.39124,376.05945,1175.41382,548.5459,326.83188,1257.01123
176,1.458,454.26688,396.55389,1244.99561,514.39124,376.05945,1175.41382,548.38159,326.93573,1257.17542
177,1.467,454.36618,396.57047,1244.95398,514.39124,376.05945,1175.41382,548.4483,326.99768,1257.10962
178,1.475,454.30505,396.69635,1244.65283,514.39124,376.05945,1175.41382,548.32001,327.22806,1257.1521
179,1.483,454.30505,396.69635,1244.65283,514.39124,376.05945,1175.41382,548.01648,327.89539,1257.15149
180,1.492,454.31836,396.56665,1244.77356,514.39124,376.05945,1175.41382,547.57745,327.98871,1257.41919
181,1.5,454.31369,396.37036,1244.89929,514.39124,376.05945,1175.41382,547.62646,327.83603,1257.90088
182,1.508,453.83163,396.5802,1246.28699,514.20929,375.80469,1175.59387,547.05756,327.33319,1259.27026
183,1.517,453.53421,396.17667,1246.46851,514.20929,375.80469,1175.59387,547.25739,327.45572,1258.44885
184,1.525,453.06735,396.30975,1246.72095,514.20929,375.80469,1175.59387,547.08081,327.55151,1258.51733
185,1.533,453.06735,396.30975,1246.72095,514.20929,375.80469,1175.59387,547.40155,327.17941,1258.87781
186,1.542,453.08218,396.2359,1246.7981,514.10553,375.82968,1175.84314,546.90173,326.8855,1258.96484
187,1.55,452.99167,396.31668,1246.93408,514.12195,375.75195,1175.93323,546.83405,326.7211,1259.13464
188,1.558,453.07236,395.96912,1246.94495,514.10553,375.82968,1175.84314,546.83405,326.7211,1259.13464
189,1.567,453.10452,395.71848,1246.85229,514.12134,375.8544,1176.14758,546.89392,326.25873,1259.17627
190,1.575,453.10452,395.71848,1246.85229,514.10553,375.82968,1175.84314,546.88715,326.09091,1258.97083
191,1.583,453.19504,395.63763,1246.71619,514.10553,375.82968,1175.84314,547.27142,326.47729,1258.5769
192,1.592,453.46707,395.35648,1245.71631,514.20929,375.80469,1175.59387,547.18152,326.47775,1258.31653
193,1.6,454.02097,395.25351,1245.59875,514.20929,375.80469,1175.59387,547.08154,326.92276,1257.98987
194,1.608,454.3931,395.35226,1245.2218,514.20929,375.80469,1175.59387,547.20081,326.78693,1257.74622
195,1.617,454.3931,395.35226,1245.2218,514.39124,376.05945,1175.41382,547.48322,327.07178,1257.49817
196,1.625,454.38232,395.43158,1245.13757,514.39124,376.05945,1175.41382,547.74615,327.02847,1257.40051
