Frame#,Time,R.Forearm.x,R.Forearm.y,R.Forearm.z,R.Ulna.x,R.Ulna.y,R.Ulna.z,R.Radius.x,R.Radius.y,R.Radius.z
1,0,34.36547,-174.82515,679.24146,90.42174,-167.93228,602.1839,150.58691,-107.47054,636.09375
2,0.008,34.36547,-174.82515,679.24146,90.42174,-167.93228,602.1839,150.59132,-107.42086,636.11377
3,0.017,33.71181,-175.43623,679.41296,90.59012,-168.2597,602.28137,150.49402,-108.4166,636.36383
4,0.025,33.71181,-175.43623,679.41296,91.09444,-168.70204,602.92889,150.38994,-107.69157,635.98248
5,0.033,33.71181,-175.43623,679.41296,90.22445,-167.88647,602.75397,150.38994,-107.69157,635.98248
6,0.042,33.71181,-175.43623,679.41296,90.47897,-168.63441,602.7757,150.42799,-107.56129,636.13153
7,0.05,33.71181,-175.43623,679.41296,90.66122,-168.27498,602.56134,150.62939,-107.29054,636.26282
8,0.058,33.71181,-175.43623,679.41296,90.66122,-168.27498,602.56134,150.70198,-107.59393,636.43695
9,0.067,33.71181,-175.43623,679.41296,90.66122,-168.27498,602.56134,150.59132,-107.42086,636.11377
10,0.075,33.71181,-175.43623,679.41296,90.47263,-168.96062,603.72009,150.66393,-107.72424,636.2879
11,0.083,33.71181,-175.43623,679.41296,90.47263,-168.96062,603.72009,150.59132,-107.42086,636.11377
12,0.092,33.71181,-175.43623,679.41296,90.47897,-168.63441,602.7757,150.66393,-107.72424,636.2879
13,0.1,33.71181,-175.43623,679.41296,90.0549,-168.34259,603.0451,150.59132,-107.42086,636.11377
14,0.108,33.71181,-175.43623,679.41296,90.47897,-168.63441,602.7757,150.66393,-107.72424,636.2879
15,0.117,33.85971,-175.35609,679.54028,90.47897,-168.63441,602.7757,150.62939,-107.29054,636.26282
16,0.125,33.71181,-175.43623,679.41296,90.9475,-169.10616,603.22308,150.56007,-108.76713,636.55371
17,0.133,33.22128,-175.85432,679.26013,90.31061,-168.30702,602.67828,150.49402,-108.4166,636.36383
18,0.142,33.71181,-175.43623,679.41296,90.47897,-168.63441,602.7757,150.66393,-107.72424,636.2879
19,0.15,33.85971,-175.35609,679.54028,90.0549,-168.34259,603.0451,150.59349,-108.62039,636.71118
20,0.158,33.71181,-175.43623,679.41296,90.47897,-168.63441,602.7757,150.56007,-108.76713,636.55371
21,0.167,33.71181,-175.43623,679.41296,90.47263,-168.96062,603.72009,150.49402,-108.4166,636.36383
22,0.175,33.71181,-175.43623,679.41296,90.0549,-168.34259,603.0451,150.56007,-108.76713,636.55371
23,0.183,33.71181,-175.43623,679.41296,90.47263,-168.96062,603.72009,150.56007,-108.76713,636.55371
24,0.192,33.71181,-175.43623,679.41296,90.0549,-168.34259,603.0451,150.56007,-108.76713,636.55371
25,0.2,33.71181,-175.43623,679.41296,90.31061,-168.30702,602.67828,150.66393,-107.72424,636.2879
26,0.208,33.71181,-175.43623,679.41296,90.0549,-168.34259,603.0451,150.56007,-108.76713,636.55371
27,0.217,33.71181,-175.43623,679.41296,90.0549,-168.34259,603.0451,150.66393,-107.72424,636.2879
28,0.225,33.71181,-175.43623,679.41296,90.0549,-168.34259,603.0451,150.56007,-108.76713,636.55371
29,0.233,33.71181,-175.43623,679.41296,90.31061,-168.30702,602.67828,150.66393,-107.72424,636.2879
30,0.242,33.22128,-175.85432,679.26013,90.47263,-168.96062,603.72009,150.66393,-107.72424,636.2879
31,0.25,33.22128,-175.85432,679.26013,90.74454,-168.91466,603.09442,150.56007,-108.76713,636.55371
32,0.258,33.71181,-175.43623,679.41296,90.31061,-168.30702,602.67828,150.59349,-108.62039,636.71118
33,0.267,33.71181,-175.43623,679.41296,90.31061,-168.30702,602.67828,150.69756,-107.64362,636.41681
34,0.275,33.71181,-175.43623,679.41296,90.31061,-168.30702,602.67828,150.55611,-108.82375,636.53302
35,0.283,33.71181,-175.43623,679.41296,90.31061,-168.30702,602.67828,150.36006,-109.07478,636.42163
36,0.292,33.71181,-175.43623,679.41296,90.47897,-168.63441,602.7757,150.56007,-108.76713,636.55371
37,0.3,33.71181,-175.43623,679.41296,90.31061,-168.30702,602.67828,150.59349,-108.62039,636.71118
38,0.308,33.71181,-175.43623,679.41296,90.36736,-168.76997,603.44501,150.36006,-109.07478,636.42163
39,0.317,33.71181,-175.43623,679.41296,90.31061,-168.30702,602.67828,150.56007,-108.76713,636.55371
40,0.325,33.71181,-175.43623,679.41296,90.31061,-168.30702,602.67828,150.36006,-109.07478,636.42163
41,0.333,33.71181,-175.43623,679.41296,90.47263,-168.96062,603.72009,150.46254,-107.99492,636.15656
42,0.342,33.71181,-175.43623,679.41296,90.78865,-168.24777,602.75824,150.56007,-108.76713,636.55371
43,0.35,33.71181,-175.43623,679.41296,90.31061,-168.30702,602.67828,150.36006,-109.07478,636.42163
44,0.358,33.71181,-175.43623,679.41296,90.47263,-168.96062,603.72009,150.39348,-108.92812,636.5791
45,0.367,33.71181,-175.43623,679.41296,90.47263,-168.96062,603.72009,150.36006,-109.07478,636.42163
46,0.375,33.71181,-175.43623,679.41296,90.49287,-167.94757,602.46393,150.36006,-109.07478,636.42163
47,0.383,33.71181,-175.43623,679.41296,90.0549,-168.34259,603.0451,150.36006,-109.07478,636.42163
48,0.392,33.71181,-175.43623,679.41296,90.15649,-167.82274,602.42303,150.36006,-109.07478,636.42163
49,0.4,33.71181,-175.43623,679.41296,90.00387,-168.19203,602.61041,150.39348,-108.92812,636.5791
50,0.408,33.71181,-175.43623,679.41296,90.42174,-167.93228,602.1839,150.46254,-107.99492,636.15656
51,0.417,33.71181,-175.43623,679.41296,90.22445,-167.88647,602.75397,150.7561,-108.516,636.6651
52,0.425,33.71181,-175.43623,679.41296,90.53693,-168.31409,603.15399,150.36006,-109.07478,636.42163
53,0.433,33.71181,-175.43623,679.41296,90.53693,-168.31409,603.15399,150.36006,-109.07478,636.42163
54,0.442,33.71181,-175.43623,679.41296,90.85571,-168.54015,602.60022,150.65948,-107.77393,636.26782
55,0.45,34.36547,-174.82515,679.24146,90.54202,-168.35641,603.26721,150.66393,-107.72424,636.2879
56,0.458,33.71181,-175.43623,679.41296,90.15649,-167.82274,602.42303,150.86086,-107.50318,636.39911
57,0.467,34.36547,-174.82515,679.24146,90.59012,-168.2597,602.28137,150.75775,-107.58984,636.13739
58,0.475,33.71181,-175.43623,679.41296,90.42174,-167.93228,602.1839,150.65948,-107.77393,636.26782
59,0.483,33.71181,-175.43623,679.41296,90.46899,-168.25046,602.82306,150.65948,-107.77393,636.26782
60,0.492,33.71181,-175.43623,679.41296,90.46899,-168.25046,602.82306,150.959,-108.50282,636.92151
61,0.5,34.3442,-174.97983,679.11572,90.46899,-168.25046,602.82306,150.99275,-107.23843,636.39771
62,0.508,34.36547,-174.82515,679.24146,90.85571,-168.54015,602.60022,150.85722,-108.35949,636.49872
63,0.517,33.71181,-175.43623,679.41296,90.49287,-167.94757,602.46393,150.85722,-108.35949,636.49872
64,0.525,33.71181,-175.43623,679.41296,90.22445,-167.88647,602.75397,150.89066,-108.21271,636.65619
65,0.533,33.71181,-175.43623,679.41296,90.22445,-167.88647,602.75397,150.78954,-108.36922,636.82257
66,0.542,33.71181,-175.43623,679.41296,90.66122,-168.27498,602.56134,150.7561,-108.516,636.6651
67,0.55,33.71181,-175.43623,679.41296,90.53693,-168.31409,603.15399,150.7561,-108.516,636.6651
68,0.558,33.71181,-175.43623,679.41296,90.75847,-168.228,602.78278,150.7561,-108.516,636.6651
69,0.567,34.36547,-174.82515,679.24146,90.75847,-168.228,602.78278,150.5235,-108.32648,636.50055
70,0.575,33.71181,-175.43623,679.41296,90.31061,-168.30702,602.67828,150.89893,-107.37283,636.54816
71,0.583,33.71181,-175.43623,679.41296,90.0549,-168.34259,603.0451,150.89893,-107.37283,636.54816
72,0.592,33.71181,-175.43623,679.41296,90.0549,-168.34259,603.0451,150.49007,-108.47322,636.34308
73,0.6,33.71181,-175.43623,679.41296,90.0549,-168.34259,603.0451,150.78954,-108.36922,636.82257
74,0.608,33.71181,-175.43623,679.41296,90.49287,-167.94757,602.46393,150.86086,-107.50318,636.39911
75,0.617,33.71181,-175.43623,679.41296,90.0549,-168.34259,603.0451,150.46254,-107.99492,636.15656
76,0.625,33.71181,-175.43623,679.41296,90.36736,-168.76997,603.44501,150.56007,-108.76713,636.55371
77,0.633,33.71181,-175.43623,679.41296,90.47263,-168.96062,603.72009,150.56007,-108.76713,636.55371
78,0.642,33.71181,-175.43623,679.41296,90.64173,-168.65195,603.05255,150.56007,-108.76713,636.55371
79,0.65,33.20006,-176.00888,679.1344,90.0549,-168.34259,603.0451,150.56007,-108.76713,636.55371
80,0.658,33.71181,-175.43623,679.41296,90.0549,-168.34259,603.0451,150.36006,-109.07478,636.42163
81,0.667,33.71181,-175.43623,679.41296,90.0549,-168.34259,603.0451,150.56007,-108.76713,636.55371
82,0.675,33.71181,-175.43623,679.41296,90.74454,-168.91466,603.09442,150.66393,-107.72424,636.2879
83,0.683,33.71181,-175.43623,679.41296,90.57619,-168.58733,602.99707,150.66393,-107.72424,636.2879
84,0.692,33.71181,-175.43623,679.41296,90.57619,-168.58733,602.99707,150.46254,-107.99492,636.15656
85,0.7,33.71181,-175.43623,679.41296,90.31061,-168.30702,602.67828,150.56007,-108.76713,636.55371
86,0.708,33.71181,-175.43623,679.41296,90.31061,-168.30702,602.67828,150.66393,-107.72424,636.2879
87,0.717,33.22128,-175.85432,679.26013,90.31061,-168.30702,602.67828,150.66393,-107.72424,636.2879
88,0.725,33.71181,-175.43623,679.41296,90.47897,-168.63441,602.7757,150.66393,-107.72424,636.2879
89,0.733,33.71181,-175.43623,679.41296,90.31061,-168.30702,602.67828,150.66393,-107.72424,636.2879
90,0.742,33.22128,-175.85432,679.26013,90.31061,-168.30702,602.67828,150.56007,-108.76713,636.55371
91,0.75,33.22128,-175.85432,679.26013,90.57619,-168.58733,602.99707,150.46254,-107.99492,636.15656
92,0.758,33.22128,-175.85432,679.26013,90.74454,-168.91466,603.09442,150.66393,-107.72424,636.2879
93,0.767,33.22128,-175.85432,679.26013,90.31061,-168.30702,602.67828,150.66393,-107.72424,636.2879
94,0.775,33.22128,-175.85432,679.26013,90.31061,-168.30702,602.67828,150.66393,-107.72424,636.2879
95,0.783,33.22128,-175.85432,679.26013,90.31061,-168.30702,602.67828,150.66393,-107.72424,636.2879
96,0.792,33.71181,-175.43623,679.41296,90.57619,-168.58733,602.99707,150.56007,-108.76713,636.55371
97,0.8,33.71181,-175.43623,679.41296,90.74454,-168.91466,603.09442,150.59349,-108.62039,636.71118
98,0.808,33.20006,-176.00888,679.1344,90.74454,-168.91466,603.09442,150.46254,-107.99492,636.15656
99,0.817,33.22128,-175.85432,679.26013,90.92681,-168.55536,602.88019,150.5006,-107.86465,636.3056
100,0.825,33.22128,-175.85432,679.26013,90.74454,-168.91466,603.09442,150.66393,-107.72424,636.2879
101,0.833,33.71181,-175.43623,679.41296,90.92681,-168.55536,602.88019,150.66393,-107.72424,636.2879
102,0.842,33.71181,-175.43623,679.41296,90.31061,-168.30702,602.67828,150.66393,-107.72424,636.2879
103,0.85,33.71181,-175.43623,679.41296,90.47897,-168.63441,602.7757,150.56007,-108.76713,636.55371
104,0.858,33.71181,-175.43623,679.41296,90.74454,-168.91466,603.09442,150.36006,-109.07478,636.42163
105,0.867,33.71181,-175.43623,679.41296,90.97649,-169.12773,603.18903,150.5006,-107.86465,636.3056
106,0.875,33.22128,-175.85432,679.26013,91.15878,-168.76849,602.97479,150.5006,-107.86465,636.3056
107,0.883,33.71181,-175.43623,679.41296,90.92681,-168.55536,602.88019,150.46254,-107.99492,636.15656
108,0.892,33.85971,-175.35609,679.54028,90.74454,-168.91466,603.09442,150.59349,-108.62039,636.71118
109,0.9,33.71181,-175.43623,679.41296,90.47897,-168.63441,602.7757,150.46254,-107.99492,636.15656
110,0.908,33.71181,-175.43623,679.41296,90.57619,-168.58733,602.99707,150.36006,-109.07478,636.42163
111,0.917,33.22128,-175.85432,679.26013,90.36736,-168.76997,603.44501,150.46254,-107.99492,636.15656
112,0.925,33.22128,-175.85432,679.26013,90.0549,-168.34259,603.0451,150.36006,-109.07478,636.42163
113,0.933,33.22128,-175.85432,679.26013,90.31061,-168.30702,602.67828,150.66393,-107.72424,636.2879
114,0.942,33.71181,-175.43623,679.41296,90.52357,-168.50952,602.63464,150.46254,-107.99492,636.15656
115,0.95,33.71181,-175.43623,679.41296,90.42174,-167.93228,602.1839,150.66393,-107.72424,636.2879
116,0.958,33.22128,-175.85432,679.26013,90.49287,-167.94757,602.46393,150.36006,-109.07478,636.42163
117,0.967,33.22128,-175.85432,679.26013,90.49287,-167.94757,602.46393,150.46254,-107.99492,636.15656
118,0.975,33.22128,-175.85432,679.26013,90.49287,-167.94757,602.46393,150.46254,-107.99492,636.15656
119,0.983,33.22128,-175.85432,679.26013,90.31061,-168.30702,602.67828,150.46254,-107.99492,636.15656
120,0.992,33.22128,-175.85432,679.26013,90.31061,-168.30702,602.67828,150.5006,-107.86465,636.3056
121,1,33.71181,-175.43623,679.41296,90.49287,-167.94757,602.46393,150.46254,-107.99492,636.15656
122,1.008,33.22128,-175.85432,679.26013,90.49287,-167.94757,602.46393,150.70198,-107.59393,636.43695
123,1.017,33.22128,-175.85432,679.26013,90.31061,-168.30702,602.67828,150.46254,-107.99492,636.15656
124,1.025,33.22128,-175.85432,679.26013,90.31061,-168.30702,602.67828,150.46254,-107.99492,636.15656
125,1.033,33.22128,-175.85432,679.26013,90.31061,-168.30702,602.67828,150.46254,-107.99492,636.15656
126,1.042,33.22128,-175.85432,679.26013,90.31061,-168.30702,602.67828,150.46254,-107.99492,636.15656
127,1.05,33.22128,-175.85432,679.26013,90.31061,-168.30702,602.67828,150.46254,-107.99492,636.15656
128,1.058,33.22128,-175.85432,679.26013,90.31061,-168.30702,602.67828,150.36006,-109.07478,636.42163
129,1.067,33.22128,-175.85432,679.26013,90.31061,-168.30702,602.67828,150.36006,-109.07478,636.42163
130,1.075,33.22128,-175.85432,679.26013,90.31061,-168.30702,602.67828,150.46254,-107.99492,636.15656
131,1.083,33.22128,-175.85432,679.26013,90.47897,-168.63441,602.7757,150.46254,-107.99492,636.15656
132,1.092,33.22128,-175.85432,679.26013,90.47897,-168.63441,602.7757,150.36006,-109.07478,636.42163
133,1.1,33.22128,-175.85432,679.26013,90.31061,-168.30702,602.67828,150.46254,-107.99492,636.15656
134,1.108,33.22128,-175.85432,679.26013,90.0549,-168.34259,603.0451,150.36006,-109.07478,636.42163
135,1.117,33.22128,-175.85432,679.26013,90.31061,-168.30702,602.67828,150.36006,-109.07478,636.42163
136,1.125,33.71181,-175.43623,679.41296,90.47897,-168.63441,602.7757,150.46254,-107.99492,636.15656
137,1.133,33.22128,-175.85432,679.26013,90.31061,-168.30702,602.67828,150.66393,-107.72424,636.2879
138,1.142,33.22128,-175.85432,679.26013,90.31061,-168.30702,602.67828,150.66393,-107.72424,636.2879
139,1.15,33.22128,-175.85432,679.26013,90.31061,-168.30702,602.67828,150.46254,-107.99492,636.15656
140,1.158,33.71181,-175.43623,679.41296,90.31061,-168.30702,602.67828,150.36006,-109.07478,636.42163
141,1.167,33.71181,-175.43623,679.41296,90.31061,-168.30702,602.67828,150.46254,-107.99492,636.15656
142,1.175,33.71181,-175.43623,679.41296,90.31061,-168.30702,602.67828,150.66393,-107.72424,636.2879
143,1.183,33.22128,-175.85432,679.26013,90.31061,-168.30702,602.67828,150.66393,-107.72424,636.2879
144,1.192,33.71181,-175.43623,679.41296,90.31061,-168.30702,602.67828,150.66393,-107.72424,636.2879
145,1.2,33.71181,-175.43623,679.41296,90.31061,-168.30702,602.67828,150.66393,-107.72424,636.2879
146,1.208,33.71181,-175.43623,679.41296,90.31061,-168.30702,602.67828,150.66393,-107.72424,636.2879
147,1.217,33.71181,-175.43623,679.41296,90.31061,-168.30702,602.67828,150.66393,-107.72424,636.2879
148,1.225,33.71181,-175.43623,679.41296,90.31061,-168.30702,602.67828,150.66393,-107.72424,636.2879
149,1.233,33.71181,-175.43623,679.41296,90.31061,-168.30702,602.67828,150.89893,-107.37283,636.54816
150,1.242,33.71181,-175.43623,679.41296,90.31061,-168.30702,602.67828,150.68517,-107.28648,635.96332
151,1.25,33.71181,-175.43623,679.41296,90.31061,-168.30702,602.67828,150.86086,-107.50318,636.39911
152,1.258,33.85971,-175.35609,679.54028,90.31061,-168.30702,602.67828,150.86086,-107.50318,636.39911
153,1.267,33.71181,-175.43623,679.41296,90.31061,-168.30702,602.67828,150.89893,-107.37283,636.54816
154,1.275,33.71181,-175.43623,679.41296,90.31061,-168.30702,602.67828,150.82637,-107.0694,636.37408
155,1.283,33.71181,-175.43623,679.41296,90.31061,-168.30702,602.67828,150.86086,-107.50318,636.39911
156,1.292,33.71181,-175.43623,679.41296,90.31061,-168.30702,602.67828,150.86086,-107.50318,636.39911
157,1.3,33.71181,-175.43623,679.41296,90.31061,-168.30702,602.67828,150.86086,-107.50318,636.39911
158,1.308,33.71181,-175.43623,679.41296,90.57619,-168.58733,602.99707,150.66393,-107.72424,636.2879
159,1.317,33.85971,-175.35609,679.54028,90.31061,-168.30702,602.67828,150.86086,-107.50318,636.39911
160,1.325,33.85971,-175.35609,679.54028,90.31061,-168.30702,602.67828,150.70198,-107.59393,636.43695
161,1.333,33.85971,-175.35609,679.54028,90.31061,-168.30702,602.67828,150.89893,-107.37283,636.54816
162,1.342,33.71181,-175.43623,679.41296,90.49287,-167.94757,602.46393,150.86086,-107.50318,636.39911
163,1.35,33.71181,-175.43623,679.41296,90.75847,-168.228,602.78278,150.86086,-107.50318,636.39911
164,1.358,33.71181,-175.43623,679.41296,90.49287,-167.94757,602.46393,150.89893,-107.37283,636.54816
165,1.367,33.71181,-175.43623,679.41296,90.31061,-168.30702,602.67828,150.62939,-107.29054,636.26282
166,1.375,33.85971,-175.35609,679.54028,90.31061,-168.30702,602.67828,150.86086,-107.50318,636.39911
167,1.383,33.71181,-175.43623,679.41296,90.31061,-168.30702,602.67828,150.70198,-107.59393,636.43695
168,1.392,33.71181,-175.43623,679.41296,90.57619,-168.58733,602.99707,150.42799,-107.56129,636.13153
169,1.4,33.85971,-175.35609,679.54028,90.57619,-168.58733,602.99707,150.62939,-107.29054,636.26282
170,1.408,33.71181,-175.43623,679.41296,90.49287,-167.94757,602.46393,150.46254,-107.99492,636.15656
171,1.417,33.71181,-175.43623,679.41296,90.31061,-168.30702,602.67828,150.5006,-107.86465,636.3056
172,1.425,33.71181,-175.43623,679.41296,90.31061,-168.30702,602.67828,150.59132,-107.42086,636.11377
173,1.433,33.71181,-175.43623,679.41296,90.31061,-168.30702,602.67828,150.46254,-107.99492,636.15656
174,1.442,33.71181,-175.43623,679.41296,90.57619,-168.58733,602.99707,150.46254,-107.99492,636.15656
175,1.45,33.71181,-175.43623,679.41296,90.57619,-168.58733,602.99707,150.46254,-107.99492,636.15656
176,1.458,33.85971,-175.35609,679.54028,90.31061,-168.30702,602.67828,150.46254,-107.99492,636.15656
177,1.467,33.71181,-175.43623,679.41296,90.57619,-168.58733,602.99707,150.5006,-107.86465,636.3056
178,1.475,33.85971,-175.35609,679.54028,90.31061,-168.30702,602.67828,150.46254,-107.99492,636.15656
179,1.483,33.71181,-175.43623,679.41296,90.31061,-168.30702,602.67828,150.5006,-107.86465,636.3056
180,1.492,33.71181,-175.43623,679.41296,90.31061,-168.30702,602.67828,150.66393,-107.72424,636.2879
181,1.5,33.71181,-175.43623,679.41296,90.36736,-168.76997,603.44501,150.55611,-108.82375,636.53302
182,1.508,33.71181,-175.43623,679.41296,90.36736,-168.76997,603.44501,150.7561,-108.516,636.6651
183,1.517,33.85971,-175.35609,679.54028,90.53693,-168.31409,603.15399,150.70198,-107.59393,636.43695
184,1.525,33.71181,-175.43623,679.41296,90.36736,-168.76997,603.44501,150.56007,-108.76713,636.55371
185,1.533,33.71181,-175.43623,679.41296,90.36736,-168.76997,603.44501,150.66393,-107.72424,636.2879
186,1.542,33.71181,-175.43623,679.41296,90.47263,-168.96062,603.72009,150.59349,-108.62039,636.71118
187,1.55,33.71181,-175.43623,679.41296,90.31061,-168.30702,602.67828,150.66393,-107.72424,636.2879
188,1.558,33.71181,-175.43623,679.41296,90.36736,-168.76997,603.44501,150.46254,-107.99492,636.15656
189,1.567,33.71181,-175.43623,679.41296,90.57619,-168.58733,602.99707,150.70198,-107.59393,636.43695
190,1.575,33.71181,-175.43623,679.41296,90.57619,-168.58733,602.99707,150.66393,-107.72424,636.2879
191,1.583,33.71181,-175.43623,679.41296,90.36736,-168.76997,603.44501,150.56007,-108.76713,636.55371
192,1.592,33.71181,-175.43623,679.41296,90.74454,-168.91466,603.09442,150.70198,-107.59393,636.43695
193,1.6,33.71181,-175.43623,679.41296,90.0549,-168.34259,603.0451,150.70198,-107.59393,636.43695
194,1.608,33.71181,-175.43623,679.41296,90.0549,-168.34259,603.0451,150.59349,-108.62039,636.71118
195,1.617,33.71181,-175.43623,679.41296,90.47897,-168.63441,602.7757,150.46254,-107.99492,636.15656
196,1.625,33.71181,-175.43623,679.41296,90.57619,-168.58733,602.99707,150.46254,-107.99492,636.15656
197,1.633,33.85971,-175.35609,679.54028,90.36736,-168.76997,603.44501,150.46254,-107.99492,636.15656
198,1.642,33.85971,-175.35609,679.54028,90.36736,-168.76997,603.44501,150.66393,-107.72424,636.2879
199,1.65,33.71181,-175.43623,679.41296,90.36736,-168.76997,603.44501,150.66393,-107.72424,636.2879
200,1.658,33.71181,-175.43623,679.41296,90.0549,-168.34259,603.0451,150.66393,-107.72424,636.2879
