Frame#,Time,R.Forearm.x,R.Forearm.y,R.Forearm.z,R.Ulna.x,R.Ulna.y,R.Ulna.z,R.Radius.x,R.Radius.y,R.Radius.z
1,0,199.36617,-229.83487,1088.07886,135.17175,-253.80846,956.53784,235.77248,-209.10356,917.27222
2,0.008,200.06361,-230.17049,1088.24976,135.01724,-254.00916,956.64221,235.1465,-209.07999,917.93414
3,0.017,199.36617,-229.83487,1088.07886,134.70294,-253.60373,956.33008,235.70761,-209.18994,917.79974
4,0.025,199.36617,-229.83487,1088.07886,134.42444,-252.8941,956.19769,235.70761,-209.18994,917.79974
5,0.033,199.36617,-229.83487,1088.07886,134.31023,-252.36742,955.80652,236.47369,-209.09818,917.90594
6,0.042,199.3877,-231.19922,1087.8335,134.88573,-251.55862,955.45325,236.69156,-208.96689,918.08234
7,0.05,199.62828,-230.6933,1087.97937,135.95764,-251.01581,955.41931,236.83339,-208.74562,917.79932
8,0.058,199.62257,-230.42554,1088.1189,138.00117,-251.53233,955.21167,238.3004,-208.21344,917.33276
9,0.067,201.57623,-231.52556,1088.98621,138.1557,-251.19371,955.57507,238.68217,-208.14337,917.43188
10,0.075,202.04355,-231.10112,1088.87451,139.0056,-250.23225,955.93585,239.40211,-207.8878,917.32837
11,0.083,202.98927,-230.7968,1088.68628,139.27319,-250.37437,955.86792,240.21558,-208.14439,917.00665
12,0.092,203.52965,-230.5192,1088.74951,140.6494,-249.8369,956.15802,240.81053,-208.53333,917.09271
13,0.1,203.74724,-230.66898,1088.44324,142.14365,-250.12312,956.24011,240.81053,-208.53333,917.09271
14,0.108,204.42155,-230.93347,1088.48071,142.27278,-250.1252,956.42084,240.81053,-208.53333,917.09271
15,0.117,204.75522,-230.97467,1088.27063,142.08934,-250.41078,956.50116,241.49236,-208.7,916.87195
16,0.125,204.80531,-231.38171,1088.05774,141.87108,-250.36899,956.67773,240.98839,-208.68384,916.88367
17,0.133,204.93071,-231.43777,1087.96558,141.80087,-250.4928,956.60211,240.81053,-208.53333,917.09271
18,0.142,204.79613,-231.85423,1088.27332,141.39314,-250.79897,956.66351,240.6458,-208.73224,917.26953
19,0.15,204.43216,-232.4623,1087.91614,140.96306,-251.41013,956.39899,240.6458,-208.73224,917.26953
20,0.158,203.13484,-232.05357,1087.72522,139.88016,-251.31891,956.32025,240.6458,-208.73224,917.26953
21,0.167,203.91055,-233.13705,1088.38452,138.66469,-251.57021,955.97504,239.40211,-207.8878,917.32837
22,0.175,202.32526,-232.27737,1087.6145,138.57677,-251.81325,955.77197,239.0141,-207.90828,917.29425
23,0.183,202.49637,-231.91144,1087.66699,138.39665,-251.91345,955.92395,238.3004,-208.21344,917.33276
24,0.192,202.27084,-231.73666,1088.66772,138.37228,-252.00642,956.05261,237.74837,-208.17285,917.3761
25,0.2,202.17754,-230.72266,1087.56104,137.36935,-252.91364,956.15399,237.74837,-208.17285,917.3761
26,0.208,201.36919,-229.91914,1087.60681,137.28587,-253.82069,956.56036,236.94534,-208.8889,917.4212
27,0.217,200.86772,-229.9066,1087.59094,136.80743,-254.12233,956.30487,236.81773,-208.66057,917.5871
28,0.225,200.7338,-229.95413,1087.89246,136.49782,-254.06718,956.25348,236.69156,-208.96689,918.08234
29,0.233,200.53769,-230.21577,1087.90552,136.43756,-253.8819,956.16846,236.69156,-208.96689,918.08234
30,0.242,200.53769,-230.21577,1087.90552,136.34564,-253.39885,956.03131,236.56381,-208.73853,918.24817
31,0.25,200.92952,-231.06339,1088.46118,136.88998,-252.95132,955.90833,236.56381,-208.73853,918.24817
32,0.258,201.58441,-232.4272,1089.47559,137.25983,-252.33382,955.59583,236.79164,-208.79691,918.1546
33,0.267,201.69185,-232.08342,1088.63904,138.17715,-251.62929,955.50696,238.16551,-208.09187,918.29437
34,0.275,201.69185,-232.08342,1088.63904,138.26404,-251.42595,955.77704,238.60312,-208.30278,917.65765
35,0.283,201.92854,-231.98962,1088.64209,138.72446,-251.23039,955.85291,239.40211,-207.8878,917.32837
36,0.292,202.04355,-231.10112,1088.87451,139.21602,-250.58911,955.70477,240.17203,-207.7975,917.46185
37,0.3,203.58702,-231.03328,1088.60828,140.6736,-251.02722,955.70447,240.59814,-207.81421,917.00635
38,0.308,204.3562,-230.28508,1088.05457,142.00655,-250.6438,955.85773,241.02831,-208.40207,917.26917
39,0.317,204.89929,-230.5325,1088.54749,142.25784,-250.14157,955.90863,241.91194,-208.20787,917.0885
40,0.325,204.90456,-230.79973,1088.40808,142.41266,-249.95802,956.28827,242.29355,-208.13795,917.18781
41,0.333,205.06119,-230.91435,1088.1825,143.08139,-249.38214,956.60657,242.36015,-207.94875,916.93005
42,0.342,204.74391,-230.58809,1087.68311,143.23991,-249.28212,956.9104,242.09529,-208.17882,916.73853
43,0.35,204.76282,-230.93671,1087.60364,142.52296,-249.98296,956.49731,241.97852,-208.01866,916.83081
44,0.358,204.57182,-231.29256,1087.31982,142.38145,-250.21181,956.3205,241.97852,-208.01866,916.83081
45,0.367,204.57182,-231.29256,1087.31982,142.31673,-250.26749,956.01373,240.44678,-207.75627,916.57202
46,0.375,204.57182,-231.29256,1087.31982,141.68475,-251.71999,955.72461,240.44678,-207.75627,916.57202
47,0.383,203.58728,-230.88448,1087.2406,141.22377,-251.75154,955.75659,240.44678,-207.75627,916.57202
48,0.392,203.26515,-231.31168,1087.02979,140.17325,-251.53127,955.6673,240.09331,-207.56473,916.49854
49,0.4,203.17076,-231.04471,1087.2981,138.79137,-251.90256,955.33008,239.46614,-207.64378,916.8905
50,0.408,202.71927,-230.90677,1087.33679,138.60497,-251.67574,955.33453,237.93358,-207.27791,916.25024
51,0.417,202.6342,-230.64012,1087.20215,138.57677,-251.81325,955.77197,237.62341,-207.56334,916.53168
52,0.425,202.10818,-230.02109,1087.74963,138.14258,-252.44441,955.99774,237.59416,-208.15839,917.09814
53,0.433,201.55786,-229.73373,1087.18152,137.53583,-253.09798,956.33844,237.45349,-208.35287,917.04797
54,0.442,201.0564,-229.72122,1087.16565,137.11469,-253.57272,956.12976,237.00891,-208.64468,916.98322
55,0.45,200.89778,-229.63513,1086.85803,136.52184,-253.36469,956.01733,236.94534,-208.8889,917.4212
56,0.458,200.66856,-229.98456,1086.81909,136.34564,-253.39885,956.03131,236.94534,-208.8889,917.4212
57,0.467,199.59158,-230.59225,1087.15662,136.22516,-252.81471,955.42273,236.94534,-208.8889,917.4212
58,0.475,200.63043,-231.12865,1087.28394,136.52922,-252.53682,954.68359,236.81773,-208.66057,917.5871
59,0.483,200.73495,-231.74437,1087.33911,136.84009,-251.64906,954.37506,237.29581,-208.18079,917.54578
60,0.492,200.73495,-231.74437,1087.33911,137.23122,-251.16821,954.39258,238.17285,-207.98514,917.49854
61,0.5,201.09389,-231.8887,1087.98438,137.6501,-251.29933,954.51123,238.55464,-207.91508,917.59766
62,0.508,200.75719,-231.21443,1087.56506,138.63486,-250.46223,955.23651,239.27463,-207.65956,917.49408
63,0.517,202.24388,-230.82216,1087.74243,139.06487,-250.42506,955.27051,239.96283,-207.99797,917.19415
64,0.525,202.10818,-230.02109,1087.74963,139.47263,-249.94307,955.31873,240.38028,-207.94545,916.82977
65,0.533,203.91269,-230.07294,1087.71106,140.90678,-249.50029,955.14612,240.66466,-207.62503,916.7486
66,0.542,204.07704,-229.92673,1087.78503,142.11011,-249.39748,955.63507,240.99666,-207.39003,916.61102
67,0.55,204.30283,-229.84792,1087.77856,142.77682,-248.7827,955.53394,241.54857,-207.43092,916.56793
68,0.558,204.33408,-229.9064,1087.64514,142.80823,-248.73741,956.03223,241.44795,-207.38582,916.30701
69,0.567,204.38429,-230.44044,1087.50342,142.79814,-248.82256,956.25305,241.18234,-207.49243,916.16174
70,0.575,204.59459,-230.76297,1087.54578,142.23975,-249.66441,956.0979,240.67805,-207.47615,916.1734
71,0.583,204.55608,-230.71863,1087.35059,142.0229,-249.62088,956.01129,240.67805,-207.47615,916.1734
72,0.592,204.36824,-231.08389,1087.09033,140.91243,-250.73625,955.33978,240.04384,-207.35138,915.88239
73,0.6,204.18806,-231.72342,1086.9303,139.59114,-250.69785,955.30725,239.80203,-207.02541,915.64423
74,0.608,202.927,-231.10078,1086.89832,139.12404,-250.72072,955.18683,238.98816,-206.76863,915.966
75,0.617,202.57268,-230.64377,1087.02332,138.48099,-251.28577,955.03119,238.21776,-206.85905,915.8324
76,0.625,202.57268,-230.64377,1087.02332,138.24136,-251.62662,954.85004,237.19954,-206.65491,915.33557
77,0.633,202.06004,-230.12607,1087.42639,137.96812,-251.53748,954.74457,236.40962,-206.32796,915.61749
78,0.642,202.06004,-230.12607,1087.42639,137.65826,-251.48227,954.69312,236.15645,-206.93221,915.79327
79,0.65,199.85265,-229.40318,1087.26465,136.90216,-252.6884,955.06567,235.35258,-207.54974,915.50146
80,0.658,200.89778,-229.63513,1086.85803,135.55678,-252.48088,955.40936,235.35258,-207.54974,915.50146
81,0.667,199.68188,-229.76939,1087.21216,134.82254,-252.507,955.72217,234.80638,-208.01346,916.24677
82,0.675,200.52573,-230.46489,1087.37793,134.45171,-252.13159,955.55902,234.96031,-208.36469,916.70264
83,0.683,199.37967,-230.24185,1087.18921,134.45171,-252.13159,955.55902,234.39882,-208.25461,916.83698
84,0.692,200.25911,-230.68062,1087.45886,134.45171,-252.13159,955.55902,234.57448,-208.38637,917.43201
85,0.7,199.95502,-231.6739,1087.4198,134.31128,-252.26382,955.44501,234.57448,-208.38637,917.43201
86,0.708,199.9285,-231.85448,1087.26868,134.76619,-251.52597,954.92322,235.82861,-208.68311,917.02795
87,0.717,199.95502,-231.6739,1087.4198,134.96054,-251.10558,954.66168,236.44083,-209.11014,916.98578
88,0.725,199.9743,-232.02277,1087.34021,135.59399,-250.58907,954.65094,236.44083,-209.11014,916.98578
89,0.733,200.49521,-231.00125,1087.80249,137.04471,-250.94173,954.39716,237.28273,-208.60359,917.32977
90,0.742,200.76201,-230.79205,1088.44348,137.29803,-250.70735,954.62909,238.15977,-208.40794,917.28265
91,0.75,200.95677,-230.54366,1088.255,138.18605,-251.06305,955.27051,238.00562,-208.39349,917.0047
92,0.758,200.95677,-230.54366,1088.255,138.64732,-250.54019,955.57599,238.00562,-208.39349,917.0047
93,0.767,200.95677,-230.54366,1088.255,138.80994,-250.17917,956.21637,238.24297,-208.24414,916.88446
94,0.775,200.67192,-230.9476,1087.4303,138.98283,-249.96915,956.49396,238.00562,-208.39349,917.0047
95,0.783,200.98947,-231.27318,1087.92932,138.98283,-249.96915,956.49396,237.56114,-208.68536,916.94
96,0.792,200.64972,-231.47755,1087.20435,138.50626,-249.90439,956.51855,236.32507,-208.61263,916.26691
97,0.8,200.73495,-231.74437,1087.33911,138.04932,-250.7144,956.53711,235.66325,-209.13484,916.3623
98,0.808,200.88672,-232.39522,1087.82007,137.67351,-251.12932,956.39288,235.36011,-208.7748,915.93311
99,0.817,200.62448,-232.51059,1087.64624,136.79427,-252.31079,956.5495,234.85524,-208.75862,915.94495
100,0.825,200.05171,-232.77277,1087.31396,135.38406,-253.58133,956.7832,233.16182,-208.18181,916.16406
101,0.833,199.51828,-232.79079,1087.25464,134.83269,-254.61629,956.78088,232.40276,-208.52385,915.89862
102,0.842,198.97612,-232.59634,1087.48389,133.75911,-254.9287,956.60309,231.71162,-209.0847,915.80957
103,0.85,198.7338,-232.60846,1087.45166,132.71149,-256.35092,956.80853,231.71162,-209.0847,915.80957
104,0.858,198.35957,-232.54291,1087.51685,132.24289,-257.02875,957.06146,230.90599,-209.34445,916.07391
105,0.867,197.25981,-232.57047,1087.39539,131.97565,-257.70996,957.02423,228.92029,-209.87048,916.40222
106,0.875,196.66631,-232.91718,1087.11743,131.76726,-258.69617,957.20288,228.25853,-210.39355,916.49738
107,0.883,197.00087,-233.34164,1087.40588,131.51599,-258.9707,957.04327,228.36398,-210.92598,917.29346
108,0.892,196.81705,-233.72072,1087.76965,131.33827,-259.04626,957.0282,227.74475,-211.07463,917.59528
109,0.9,196.47115,-234.05495,1087.46558,131.15538,-258.79434,957.16486,227.95573,-211.58299,917.51709
110,0.908,196.28845,-234.36662,1087.64868,130.40146,-258.73569,957.37048,227.85579,-211.7531,917.44482
111,0.917,195.8941,-234.36888,1087.62036,130.21059,-258.20291,957.84448,227.85579,-211.7531,917.44482
112,0.925,195.86099,-234.40645,1088.27124,129.94536,-257.61023,958.06677,227.90759,-212.10284,917.61066
113,0.933,195.86099,-234.40645,1088.27124,130.51723,-257.29703,957.8537,228.34167,-212.69241,917.87445
114,0.942,194.17763,-234.23994,1089.17065,130.93665,-257.34503,957.88013,228.34167,-212.69241,917.87445
115,0.95,195.48735,-234.54443,1089.22876,131.17863,-257.50967,958.01233,228.59489,-212.8383,917.68677
116,0.958,195.48735,-234.54443,1089.22876,131.6727,-257.66306,958.15356,228.5434,-213.27446,917.55774
117,0.967,195.57736,-234.81303,1089.3606,131.65875,-257.73169,958.37152,229.93207,-214.06172,916.94574
118,0.975,195.89687,-234.92694,1089.15137,131.55873,-257.63309,958.73053,230.52388,-214.37473,916.24548
119,0.983,195.89687,-234.92694,1089.15137,132.0072,-258.28375,958.90839,230.76317,-215.0694,915.95398
120,0.992,195.7235,-235.35001,1089.01208,131.96045,-258.93555,959.10413,230.46503,-215.56853,915.9176
121,1,195.16031,-236.46721,1088.59277,131.68524,-258.89404,959.65674,230.71567,-215.96172,916.61688
122,1.008,195.16031,-236.46721,1088.59277,131.53116,-259.19092,959.73523,230.4017,-217.58591,917.19604
123,1.017,195.2321,-237.2618,1088.73193,131.39786,-259.10187,959.6701,229.6322,-217.67714,917.06372
124,1.025,194.62375,-238.27528,1088.65369,129.9996,-258.83456,959.73083,229.18909,-217.96992,916.99878
125,1.033,194.42247,-238.43451,1088.58105,128.83781,-259.69656,959.76996,228.71707,-218.39989,917.08704
126,1.042,194.09967,-238.51675,1088.86572,128.03154,-259.37259,959.64417,226.75392,-218.19608,916.49634
127,1.05,194.09967,-238.51675,1088.86572,127.42108,-260.34396,959.83569,225.45441,-217.61783,916.6618
128,1.058,194.09967,-238.51675,1088.86572,126.79852,-261.43042,959.27631,224.47159,-217.58948,916.46619
129,1.067,192.81485,-238.49844,1088.79871,125.77827,-261.5351,959.42603,224.47159,-217.58948,916.46619
130,1.075,192.37143,-238.19099,1088.78894,125.53734,-261.97943,959.5351,224.11447,-217.39537,916.83636
131,1.083,192.15604,-237.63606,1088.0791,124.22568,-262.6879,959.62311,222.78236,-217.37778,916.83899
132,1.092,191.62206,-237.29379,1088.39233,123.55333,-263.65546,959.47247,221.93806,-217.87769,917.69202
133,1.1,190.81871,-237.25809,1088.39075,123.4201,-263.8891,959.70026,221.74478,-217.94258,917.85541
134,1.108,190.28563,-237.47351,1088.47107,123.4201,-263.8891,959.70026,221.19193,-217.90273,917.89929
135,1.117,189.80356,-237.45222,1088.47021,122.47726,-264.50775,959.79492,221.19193,-217.90273,917.89929
136,1.125,189.80356,-237.45222,1088.47021,123.01451,-263.92068,959.59833,221.19193,-217.90273,917.89929
137,1.133,189.11224,-237.50035,1089.82581,123.34901,-263.61053,959.63147,221.74478,-217.94258,917.85541
138,1.142,189.18854,-237.69618,1089.8833,123.3542,-263.3103,959.67664,221.74478,-217.94258,917.85541
139,1.15,189.27914,-238.17072,1090.07971,123.91924,-262.26508,959.63428,222.58992,-217.88361,917.96198
140,1.158,189.28395,-237.64386,1090.078,124.79398,-261.00388,959.35284,222.97192,-217.81308,918.0603
141,1.167,190.01364,-237.65739,1090.39246,124.88595,-260.63638,959.63275,224.3537,-217.55455,917.66821
142,1.175,190.32797,-237.37531,1089.72241,125.35474,-259.85342,959.70892,224.67735,-217.88544,917.11536
143,1.183,190.97185,-237.90437,1090.01685,125.88077,-259.77106,959.75824,224.78122,-217.93375,916.93256
144,1.192,191.02095,-237.49353,1089.77002,126.55504,-259.94287,959.9212,224.98642,-218.2496,917.10187
145,1.2,191.60841,-237.81079,1089.63013,127.15732,-259.13199,960.01575,225.05141,-218.84526,916.88037
146,1.208,191.15468,-238.09117,1089.36438,127.15732,-259.13199,960.01575,224.68076,-219.14232,916.25861
147,1.217,191.38432,-238.90749,1089.1405,126.40504,-259.83536,959.98346,224.30437,-219.42651,916.02777
148,1.225,191.18324,-239.06683,1089.06787,125.63737,-259.569,959.93634,223.46907,-219.61087,916.112
149,1.233,190.72366,-239.16982,1089.38623,125.21577,-259.87573,959.72144,223.03824,-219.23346,916.01331
150,1.242,190.39207,-239.78609,1089.20618,124.62345,-259.63065,959.36932,222.04155,-219.76372,916.09369
151,1.25,190.15594,-239.8799,1089.20349,123.79398,-260.85873,959.48657,221.63818,-219.66919,916.2113
152,1.258,190.02405,-240.12183,1089.21057,122.45842,-261.5061,959.04657,221.09123,-219.67545,916.19452
153,1.267,189.57657,-239.83681,1089.04126,121.5444,-261.86362,958.96497,220.83775,-219.5298,916.3819
154,1.275,189.53102,-239.4008,1089.02551,120.92358,-261.82632,959.33447,220.42378,-219.6602,916.52484
155,1.283,189.67949,-239.14645,1088.99695,120.57717,-262.5166,959.36786,220.16371,-219.117,916.2948
156,1.292,189.52026,-237.9938,1089.08459,120.29433,-263.11261,959.24182,219.29558,-219.13477,916.79309
157,1.3,188.68192,-237.6819,1089.44934,119.68043,-263.33075,959.29388,218.74237,-219.09491,916.83691
158,1.308,188.68814,-237.27443,1088.84985,119.68043,-263.33075,959.29388,218.57892,-219.29462,917.01392
159,1.317,188.68814,-237.27443,1088.84985,119.57736,-263.47507,959.20782,218.57892,-219.29462,917.01392
160,1.325,188.44252,-237.59531,1088.8335,119.71749,-263.22098,959.18353,218.57892,-219.29462,917.01392
161,1.333,188.35754,-237.58452,1089.06897,119.87183,-262.23254,959.04163,218.74237,-219.09491,916.83691
162,1.342,187.58301,-237.59792,1089.44116,119.95548,-262.12201,959.11035,219.52234,-218.44415,916.93958
163,1.35,187.73132,-237.34352,1089.4126,120.17635,-260.88403,958.617,219.41811,-217.95544,916.88916
164,1.358,188.38937,-237.56517,1089.3479,120.24295,-259.09201,958.84021,220.17522,-217.32172,916.42108
165,1.367,189.3947,-237.93787,1089.177,121.28967,-258.46329,958.95294,220.46254,-216.9176,916.23889
166,1.375,189.75746,-237.38544,1089.32605,122.27782,-257.25232,958.93018,222.62976,-216.46396,916.62164
167,1.383,190.22241,-237.18826,1088.77222,122.94375,-256.84558,958.89789,223.01195,-216.3933,916.72015
168,1.392,190.21774,-236.87778,1088.22607,123.65733,-257.1608,958.72449,224.31937,-216.67548,916.24878
169,1.4,190.60477,-236.45663,1087.82031,124.90148,-256.69611,958.38062,224.31937,-216.67548,916.24878
170,1.408,190.83775,-236.38594,1087.80322,125.51924,-256.06464,958.51971,224.31937,-216.67548,916.24878
171,1.417,191.34019,-236.11165,1087.68225,125.51924,-256.06464,958.51971,224.49838,-216.82637,916.03925
172,1.425,191.34019,-236.11165,1087.68225,125.69867,-255.67229,958.74524,225.00333,-216.84181,916.02692
173,1.433,191.34019,-236.11165,1087.68225,125.72358,-255.60001,958.51233,225.16707,-216.64233,915.84998
174,1.442,191.34019,-236.11165,1087.68225,126.14816,-255.04726,958.52661,225.16707,-216.64233,915.84998
175,1.45,191.34019,-236.11165,1087.68225,125.58005,-255.20587,958.16046,224.8611,-216.28149,915.41925
176,1.458,191.34019,-236.11165,1087.68225,125.58005,-255.20587,958.16046,224.17702,-216.11507,915.64099
177,1.467,191.34019,-236.11165,1087.68225,124.75751,-255.80852,957.90851,223.70818,-214.99997,915.49475
178,1.475,191.34019,-236.11165,1087.68225,124.41946,-255.99876,957.4621,223.27789,-214.62251,915.39612
179,1.483,191.34019,-236.11165,1087.68225,123.53471,-256.37274,957.07397,223.35622,-214.46289,915.16998
180,1.492,191.25406,-235.84419,1087.54712,122.76734,-256.15726,957.20349,222.78485,-213.81479,915.49121
181,1.5,191.44357,-235.37592,1087.56091,122.76734,-256.15726,957.20349,222.78485,-213.81479,915.49121
182,1.508,191.44357,-235.37592,1087.56091,122.76734,-256.15726,957.20349,222.55458,-213.46985,915.48767
183,1.517,191.1528,-233.99117,1087.66956,122.65244,-256.39993,957.18579,221.64156,-211.73564,915.94684
184,1.525,190.40022,-233.20345,1087.91248,122.52551,-256.55212,956.99542,221.63925,-211.60448,916.1001
185,1.533,191.08879,-233.02567,1087.64746,122.52551,-256.55212,956.99542,221.74277,-211.41415,916.25427
186,1.542,190.42723,-232.85004,1087.8302,122.71819,-256.24374,957.1062,222.29678,-211.45441,916.21051
187,1.55,190.42723,-232.85004,1087.8302,122.70267,-255.91713,957.08661,222.78316,-211.04558,916.13214
188,1.558,190.4117,-233.13449,1088.53748,122.59816,-255.34879,956.75085,223.26027,-210.75647,915.92822
189,1.567,191.08879,-233.02567,1087.64746,123.69633,-254.34253,956.73523,223.99258,-210.38632,916.39954
190,1.575,191.40936,-232.64175,1087.87793,124.66438,-253.59311,956.68701,224.17194,-209.94185,916.27502
191,1.583,191.76633,-233.12975,1087.66064,126.25603,-251.96648,956.45978,224.98737,-209.08394,916.13953
192,1.592,192.22134,-233.11728,1087.91577,126.43545,-251.61349,956.41669,225.67949,-209.13423,916.08478
193,1.6,192.69876,-232.31642,1088.20923,126.4042,-251.0448,956.2301,226.73984,-209.04909,915.77246
194,1.608,192.90746,-231.57506,1088.09924,127.37229,-250.4986,955.81268,226.73984,-209.04909,915.77246
