Frame#,Time,L.Forearm.x,L.Forearm.y,L.Forearm.z,L.Ulna.x,L.Ulna.y,L.Ulna.z,L.Radius.x,L.Radius.y,L.Radius.z
1,0,16.04689,351.59491,1098.57251,115.61449,440.02316,1089.45728,194.8943,366.72922,1096.09021
2,0.008,16.09274,350.99966,1097.24963,116.08407,440.12048,1088.69299,195.59454,366.6947,1094.58801
3,0.017,16.97142,350.45129,1096.66077,117.13475,440.31415,1087.2041,195.93019,366.71045,1093.5614
4,0.025,16.58646,350.82721,1095.38049,116.68632,440.12109,1085.68982,195.96582,366.73825,1091.95801
5,0.033,16.93923,350.75916,1094.97815,116.91974,439.57202,1085.36182,196.59331,366.66211,1091.74146
6,0.042,17.46176,350.39426,1094.74084,117.05337,439.86517,1084.51648,196.4538,366.75522,1091.39453
7,0.05,18.12042,350.24951,1094.19836,116.85475,440.44275,1083.43311,196.43063,367.18378,1089.9906
8,0.058,18.16788,350.02219,1093.41199,117.04928,440.74225,1082.31311,196.56227,366.55698,1087.71082
9,0.067,18.3281,349.94067,1093.31665,117.8305,439.95041,1080.50049,197.39891,366.64078,1087.03796
10,0.075,18.32422,350.49518,1092.28528,117.90443,440.39413,1080.00037,197.34581,366.23807,1086.38965
11,0.083,18.6276,350.14664,1091.16479,117.89443,440.15701,1079.61206,196.93155,366.73334,1085.04456
12,0.092,19.45844,349.79434,1090.58826,118.81297,438.90155,1077.88794,197.32901,366.17969,1084.03174
13,0.1,19.27221,349.82925,1089.44385,119.19681,439.14764,1077.19543,197.51643,365.86359,1082.6554
14,0.108,19.76634,349.2406,1089.00146,120.20261,438.99438,1076.07422,198.42767,365.6604,1082.11707
15,0.117,20.39715,349.55069,1088.2738,119.882,438.64111,1075.58374,199.43182,365.46317,1080.6178
16,0.125,20.41998,349.68729,1087.50244,120.61744,437.88971,1074.35547,199.68294,365.48911,1079.31287
17,0.133,20.94745,349.23209,1086.58618,120.2261,437.98325,1073.76477,199.8089,364.76407,1077.74023
18,0.142,21.28422,349.01285,1086.07556,121.12892,438.08975,1072.41333,199.09489,363.95508,1077.13367
19,0.15,21.79674,348.87619,1085.34802,121.11675,438.02267,1070.65063,199.97624,364.17807,1075.78015
20,0.158,21.65354,348.17682,1083.92554,120.98269,437.71353,1069.67053,200.45107,363.37027,1075.43762
21,0.167,21.5327,348.03857,1083.28235,121.1256,437.93481,1068.83203,201.13217,363.09924,1073.69043
22,0.175,21.67217,348.06686,1082.40601,121.69405,437.65662,1068.17261,201.03207,363.05768,1072.8772
23,0.183,22.13796,348.03314,1081.005,121.86063,437.54568,1066.25879,200.70256,362.20377,1070.80896
24,0.192,22.83965,347.52121,1080.2157,121.81786,436.05417,1065.19397,200.44728,362.08362,1070.32129
25,0.2,22.49001,347.4104,1079.22205,122.18993,435.81375,1064.39001,201.00191,362.61029,1068.40698
26,0.208,23.04024,347.07104,1078.92004,122.35463,436.00241,1063.93811,201.38965,362.11792,1067.08557
27,0.217,23.00484,346.25351,1078.14978,122.63132,434.5563,1061.38098,201.56944,360.54907,1065.18872
28,0.225,23.65982,345.14899,1076.47021,123.36536,434.27747,1060.37805,201.16074,359.96582,1064.51111
29,0.233,24.24819,345.30978,1075.82275,124.26412,434.32523,1059.85669,201.8781,360.45508,1063.30029
30,0.242,23.91079,346.64258,1075.32898,125.12205,434.00592,1059.25623,202.82062,359.90765,1061.74658
31,0.25,24.48835,346.22198,1073.78674,125.03462,434.08548,1058.25525,203.8636,358.16824,1059.79382
32,0.258,25.4791,345.86066,1073.60461,124.97025,433.63239,1056.43726,204.03157,357.57559,1058.86963
33,0.267,25.20741,346.2439,1073.06665,125.59805,433.91956,1054.96423,204.24043,357.86349,1058.18799
34,0.275,25.35533,345.26236,1071.66724,125.64737,433.65308,1054.31995,204.75514,357.97659,1056.15552
35,0.283,26.99941,344.98807,1070.6355,126.13855,433.07996,1053.62854,204.60973,357.98425,1055.09387
36,0.292,27.11601,345.45416,1069.86096,126.30366,432.5423,1052.28699,204.95082,357.22806,1053.66235
37,0.3,27.37816,344.54526,1069.37915,127.32172,432.91812,1051.15308,205.2554,357.62869,1051.75452
38,0.308,27.67457,344.43124,1068.61633,127.71172,432.89362,1049.51086,205.40419,357.65991,1050.61829
39,0.317,27.79166,344.35904,1067.71521,128.27762,431.89774,1048.57068,205.67426,357.17661,1050.13708
40,0.325,27.70704,342.53308,1066.4646,128.6893,431.10321,1047.4126,206.87151,355.94742,1049.11438
41,0.333,28.61115,342.68732,1065.93665,128.69145,430.54935,1046.46997,206.76363,355.41168,1047.61353
42,0.342,29.21584,343.35254,1065.58276,128.83414,430.21109,1044.82581,207.05061,356.15533,1046.46521
43,0.35,29.52102,342.9039,1064.77173,128.68616,429.08054,1043.99011,207.65846,355.09619,1044.92627
44,0.358,29.53404,343.1116,1063.05151,128.66234,427.95703,1042.84595,208.2401,353.55524,1043.15442
45,0.367,28.85839,342.00323,1061.7041,129.20805,428.09344,1041.72314,207.70111,353.73456,1042.69519
46,0.375,29.47482,340.9798,1061.10095,129.54877,427.12671,1040.12598,208.33345,352.56805,1041.29395
47,0.383,30.06506,340.78683,1060.71594,129.06485,427.34253,1039.05164,208.51637,351.48532,1040.65491
48,0.392,29.53935,340.83978,1060.17078,129.91492,427.02374,1037.36401,207.82095,351.78082,1038.8645
49,0.4,30.31656,339.84064,1058.99304,130.74092,427.53586,1036.4303,208.16435,351.84201,1036.70264
50,0.408,30.5699,339.58237,1058.13965,130.75223,426.87622,1035.29053,208.54227,351.80783,1035.94604
51,0.417,30.53666,338.37802,1057.4397,131.69737,425.54745,1034.29297,208.96089,351.11215,1034.88379
52,0.425,31.50303,338.64749,1056.15002,132.03555,424.91782,1033.47241,209.78772,349.71445,1033.44849
53,0.433,31.5031,338.17505,1054.75208,131.80913,424.88696,1032.56409,208.7292,349.68567,1031.56152
54,0.442,32.10417,337.29941,1053.94629,132.22536,423.7262,1030.46436,209.85895,349.00259,1030.49243
55,0.45,32.21973,337.07898,1053.68237,132.13298,423.44293,1029.17932,209.83882,348.16794,1029.16748
56,0.458,32.98335,336.71988,1053.07239,133.17641,422.96136,1028.28845,210.24251,347.6109,1027.82678
57,0.467,33.05872,336.91861,1052.62183,133.05611,423.23627,1027.90393,211.27652,346.96774,1026.55432
58,0.475,33.21992,335.97836,1050.95959,133.42928,422.30212,1026.41113,211.33858,346.26929,1025.44299
59,0.483,33.035,335.91348,1049.82874,134.50484,422.46255,1024.59277,211.97072,347.06601,1024.10986
60,0.492,34.46177,335.19995,1049.23499,134.73924,422.1402,1023.3913,212.46205,345.97635,1023.09808
61,0.5,34.73154,335.42218,1048.73975,135.53459,421.39536,1022.60889,212.40997,345.40039,1022.00415
62,0.508,35.30428,334.93051,1048.245,135.79114,420.8941,1021.03296,212.82846,344.681,1020.40308
63,0.517,35.4226,334.58661,1046.01135,135.83694,419.23837,1020.07074,212.95837,342.95822,1019.27942
64,0.525,35.48558,334.52451,1045.71057,135.78488,417.48688,1018.85095,213.33179,342.12701,1017.99927
65,0.533,36.01839,333.35745,1044.94421,135.79321,417.80414,1018.0766,213.78902,341.37946,1016.67676
66,0.542,36.59203,332.12329,1044.49451,136.26677,417.17911,1017.14063,214.1794,341.44531,1015.69568
67,0.55,36.74895,331.39102,1043.30359,137.22542,417.06393,1016.09839,213.99931,340.39056,1013.74939
68,0.558,37.20668,330.61966,1042.16431,137.81494,416.1232,1014.81873,213.99194,338.99875,1012.70978
69,0.567,38.29456,329.88809,1041.29614,138.10248,415.06012,1012.96515,214.192,338.4791,1012.11969
70,0.575,38.61338,329.8107,1040.76489,137.93356,415.38757,1012.59717,215.66583,338.59982,1010.65796
71,0.583,39.03159,329.62195,1039.93945,139.41202,415.75302,1013.32666,215.67487,338.15256,1008.96539
72,0.592,39.03999,329.51782,1039.17847,139.58156,415.21744,1011.80676,215.96309,337.08325,1007.24213
73,0.6,39.154,328.65674,1038.45129,139.3737,412.7977,1009.60468,215.93584,336.30746,1006.88446
74,0.608,39.24621,328.52536,1037.20483,139.99872,412.66418,1008.56909,216.42146,335.90454,1005.61664
75,0.617,39.71002,327.95444,1036.50928,141.30717,412.37909,1008.25299,217.20171,333.83453,1004.97284
76,0.625,39.96137,327.53995,1035.83118,141.80679,411.28439,1006.72949,217.40857,333.82086,1004.10345
77,0.633,40.16051,326.64749,1035.23804,141.50969,410.37946,1004.50629,217.57352,332.36884,1003.03662
78,0.642,40.92659,326.21637,1034.49292,142.14671,410.54211,1003.60535,218.37894,333.01404,1000.95313
79,0.65,41.54763,325.7229,1033.16626,142.29707,410.10736,1002.81702,218.2308,332.12595,999.72351
80,0.658,41.63337,325.87561,1032.64026,141.76414,408.50183,1002.15155,218.86148,331.47839,999.30322
81,0.667,41.64551,324.98898,1031.94653,142.83121,406.80328,1000.59833,218.57899,331.60645,997.81219
82,0.675,42.11451,324.38498,1031.46106,142.84007,406.59256,1000.15228,218.60513,330.41769,996.76801
83,0.683,42.82282,323.7944,1030.18921,143.16101,406.13184,999.78967,219.26021,328.71219,995.30255
84,0.692,42.94225,324.0304,1029.7113,144.28712,405.41251,998.13739,219.83664,328.78836,993.83789
85,0.7,42.46077,323.41864,1028.77234,144.2482,405.138,997.47479,220.14072,329.15305,993.38739
86,0.708,43.38638,322.55246,1027.51294,144.65436,403.96005,996.65778,220.2652,328.10931,991.5498
87,0.717,43.52327,322.33987,1027.01514,144.97784,403.54654,994.77789,220.15088,326.23764,989.81482
88,0.725,43.95942,321.12524,1026.27307,145.15173,403.45737,994.41223,220.42465,326.40497,988.95831
89,0.733,45.11827,320.16675,1025.70972,145.58559,403.03232,993.32062,220.83618,323.51962,988.51202
90,0.742,45.49801,319.68909,1024.7616,146.00734,401.3248,992.75372,221.45906,322.49854,987.48846
91,0.75,45.20341,318.75327,1024.07043,146.45126,400.32483,992.06738,221.00034,321.58304,986.74457
92,0.758,45.03053,318.85947,1023.16705,147.68062,398.83218,990.66821,221.35945,321.50681,985.5882
93,0.767,45.91539,318.60388,1022.54022,147.87636,398.88824,989.57416,222.04338,321.47983,983.85992
94,0.775,46.08811,317.78726,1021.85083,147.64813,397.26895,988.68115,222.52867,319.46439,982.59436
95,0.783,46.59507,317.3223,1021.56958,147.84334,396.6499,987.84277,222.05846,319.13953,982.07269
96,0.792,47.17706,316.63467,1020.68402,148.04863,396.82797,988.02777,222.7682,318.24451,981.07861
97,0.8,47.4907,316.15567,1019.90613,148.43398,396.11975,986.66327,222.65646,316.42618,980.29114
98,0.808,48.47734,315.31729,1018.82013,149.37386,394.87604,985.50232,222.84851,315.34912,978.84943
99,0.817,48.34132,314.3783,1018.4834,150.20459,393.80865,984.48126,223.51831,315.60498,977.5202
100,0.825,48.55103,313.01825,1017.82056,151.10913,393.35013,983.40204,223.51303,314.38306,976.70642
101,0.833,48.67192,312.81192,1017.42554,150.86229,392.53326,983.2276,224.52547,314.00055,975.16687
102,0.842,49.2871,311.80917,1016.41803,151.46663,392.83456,982.14392,225.1541,312.51801,974.21405
103,0.85,49.46399,311.54312,1016.05597,152.09895,391.52319,980.89288,225.05563,311.22757,974.01532
104,0.858,50.47881,310.95819,1014.90765,152.65997,390.8407,980.758,225.06711,310.94693,972.60535
105,0.867,50.86824,310.4447,1014.23462,153.66817,388.9729,978.76886,226.41113,308.69733,971.19849
106,0.875,51.19419,308.9783,1013.66193,153.49675,387.91608,978.24835,226.45428,308.15448,970.38892
107,0.883,51.61441,308.01291,1013.08698,153.28497,386.53708,977.69702,226.07196,306.36307,970.48273
108,0.892,52.05682,307.465,1011.84052,153.69858,386.26358,976.78503,227.16934,306.63922,969.35236
109,0.9,51.88971,306.85339,1011.20032,153.48177,384.93613,975.48376,226.71236,305.38962,967.89783
110,0.908,52.4218,306.33865,1010.46887,154.46506,384.23264,974.13416,226.74065,304.52258,966.92877
111,0.917,53.04346,305.15579,1009.89941,155.08353,382.99692,974.27466,227.46315,303.29904,965.16113
112,0.925,53.03617,304.51569,1009.69763,155.79375,380.1506,973.6344,228.2169,302.0661,964.0907
113,0.933,53.49517,303.17282,1008.70642,157.22902,379.91501,972.36829,228.1546,300.85229,963.79645
114,0.942,53.98927,302.66583,1008.11078,156.81816,378.9913,971.69391,228.26863,297.961,962.21063
115,0.95,54.50546,301.5578,1007.6131,157.01367,377.81952,970.54022,227.74959,296.34045,961.75153
116,0.958,54.96649,300.24869,1006.97437,156.8914,376.9397,970.0014,228.39082,295.78055,960.47064
117,0.967,55.11502,299.92532,1006.58716,157.57404,375.38809,968.88483,229.45039,295.38989,959.45026
118,0.975,55.90495,298.84305,1005.32391,158.8468,374.88324,966.95917,229.54784,294.65033,958.45056
119,0.983,56.42413,298.39429,1004.27582,158.68881,373.17715,966.6651,229.72514,292.86777,957.1496
120,0.992,56.88309,297.53076,1003.80774,159.74338,372.94226,965.49872,230.31068,290.36758,956.67871
121,1,57.00486,297.03049,1003.53461,160.45062,372.41376,964.87994,230.73814,288.67032,955.72662
122,1.008,57.51221,295.01529,1002.71515,160.32835,369.59232,963.85114,230.71913,287.58551,953.97455
123,1.017,58.47315,293.87347,1001.92236,160.91867,368.18076,963.49982,230.82759,285.40176,953.37372
124,1.025,59.01338,292.53867,1001.03558,162.33458,367.45322,962.28003,230.87885,284.94147,952.93793
125,1.033,59.37781,292.21799,1000.47308,162.35353,367.32883,961.92322,231.0475,282.52557,951.74536
126,1.042,59.49777,291.53943,1000.10425,162.40219,364.61914,960.4527,231.62547,282.10159,951.06372
127,1.05,59.78468,290.35272,999.3819,163.81859,365.01535,959.98877,232.31253,280.98364,949.724
128,1.058,60.07284,289.24603,998.67554,164.32338,363.81485,958.89807,233.52248,278.71344,949.04437
129,1.067,60.53598,287.93112,997.70807,164.93634,361.60526,957.66797,234.07491,277.37228,947.776
130,1.075,60.75105,287.09729,997.10431,165.40405,360.35083,957.54327,234.28442,275.9671,947.02838
131,1.083,61.29097,286.76666,996.9679,165.0112,359.09888,956.33362,234.0918,275.2804,946.78229
132,1.092,61.92301,285.07495,996.27002,165.93256,357.50439,955.5368,233.46916,273.00143,944.77051
133,1.1,62.52477,284.10635,995.64581,166.61209,356.34088,955.19202,233.70699,271.44922,943.82745
134,1.108,62.54823,283.15433,995.41425,167.51094,354.06882,953.92841,234.70296,269.96683,943.35522
135,1.117,62.73588,280.9971,993.98138,167.783,353.49738,953.50616,234.99007,268.02316,942.12134
136,1.125,63.9006,280.29272,993.78998,169.39151,351.84341,952.82422,236.04436,266.45572,941.89459
137,1.133,63.85704,279.27963,992.94373,169.54489,350.88788,952.55371,236.29056,265.41919,941.31738
138,1.142,64.93589,276.91135,992.60272,170.10814,348.6377,950.96283,236.22108,262.81342,939.72772
139,1.15,65.5282,276.39529,992.08521,170.30003,347.0347,951.16034,236.28799,261.46799,938.15576
140,1.158,65.87033,275.57117,991.60315,171.29012,344.81262,949.34265,236.61057,259.82452,937.37738
141,1.167,66.13393,274.13632,990.76874,171.81509,344.18378,948.78333,237.6893,258.39478,936.90466
142,1.175,66.15024,273.54199,990.26978,172.80014,342.03729,948.38739,237.79779,256.51724,936.63403
143,1.183,67.64653,272.35428,989.80164,173.31549,341.09048,947.35571,237.87628,254.05353,935.97662
144,1.192,67.93774,270.52805,989.60004,174.25089,339.97916,945.94812,238.33205,251.84741,935.1532
145,1.2,67.79681,269.10095,988.95105,174.69746,336.82642,944.95557,238.11313,250.14264,934.54071
146,1.208,68.40643,268.89911,987.89386,175.33975,335.02145,944.45972,238.66754,248.66281,933.3158
147,1.217,69.15728,267.38492,986.89557,175.48801,334.41882,944.05902,238.87648,246.45116,932.5014
148,1.225,69.56937,266.00034,986.75104,176.59488,333.05542,942.92108,239.27713,245.05627,931.04364
149,1.233,70.43611,264.67267,986.02728,177.43193,330.70947,942.09589,239.90648,243.47885,930.00085
150,1.242,70.55698,262.36545,985.98932,178.23412,329.71332,941.87775,240.36937,241.75325,929.27747
151,1.25,71.04631,261.71338,985.48633,178.2933,327.45004,940.94312,240.2626,238.6599,928.84351
152,1.258,71.59856,260.87448,984.84424,179.03143,324.99713,939.50562,240.40718,237.99216,928.15668
153,1.267,72.63087,258.43948,983.88641,180.0838,324.35806,938.94702,240.17984,234.47273,926.97388
154,1.275,73.07742,256.58853,982.87097,180.76469,322.37335,938.73962,241.08644,233.21159,925.75958
155,1.283,73.43842,255.8461,982.64856,181.3896,321.06076,938.0863,242.09114,232.56895,925.05481
156,1.292,73.4875,255.07706,982.28754,180.91756,317.62769,937.80853,241.70898,230.11328,924.50684
157,1.3,73.66111,253.1069,981.38263,181.57239,316.82169,936.60223,241.99652,226.03777,923.84033
158,1.308,74.21824,251.55798,980.90985,182.24216,315.16425,935.56921,242.00473,225.65457,923.41553
159,1.317,74.95391,250.02554,980.40155,183.09953,313.68356,934.77588,242.16811,222.74881,922.63831
160,1.325,75.24157,249.23827,979.7132,184.00188,312.29636,934.10669,243.24467,221.2368,921.11414
161,1.333,75.52458,247.46275,979.3009,184.18144,309.99777,934.06653,243.87015,220.13252,920.95367
162,1.342,75.76237,246.88565,979.17877,184.97211,306.92297,932.49316,243.24327,216.98329,919.74902
163,1.35,75.8779,244.84262,978.5589,186.24043,305.35413,932.54468,243.47382,215.55711,918.67505
164,1.358,76.82634,243.50777,977.9895,186.36139,304.6329,932.05542,243.77522,214.27869,918.51825
165,1.367,77.70296,242.44011,977.54572,186.44443,303.25668,931.53943,244.78986,211.88493,918.24463
166,1.375,78.46354,240.31787,976.86023,188.69022,300.03561,931.11737,244.84671,209.75841,916.8125
167,1.383,78.65156,239.1377,976.13312,188.58235,298.11322,929.93451,245.02031,206.6606,916.297
168,1.392,79.0546,237.6492,975.76965,189.06154,296.74506,929.67664,245.41844,205.43219,915.48779
169,1.4,79.14136,236.55032,975.22156,189.69292,295.5874,928.84515,245.93607,201.83983,915.19012
170,1.408,80.4508,234.19066,974.82446,190.78683,293.04062,928.65625,246.66997,200.47636,915.13513
171,1.417,80.82523,233.41873,974.52753,191.31766,290.9165,928.12427,247.37415,199.30438,913.36621
172,1.425,80.95869,231.95509,974.23041,190.89578,289.0675,927.021,246.84622,196.13309,912.073
173,1.433,81.41069,229.73518,973.4613,191.88443,288.28867,926.10828,246.09993,195.28636,912.31635
174,1.442,82.02357,228.93048,973.19769,192.81596,285.9444,924.73114,246.37062,193.98718,911.86481
175,1.45,82.32877,227.89502,972.94196,193.74168,284.05481,924.72974,246.71742,190.74438,911.28156
176,1.458,82.87747,225.55917,972.63397,193.03687,281.64288,924.1936,247.00081,188.05666,910.25568
177,1.467,82.92993,223.86215,972.48901,193.0141,278.85077,923.98981,247.01805,185.37463,909.49817
178,1.475,82.67029,222.84227,971.91492,194.2114,277.54938,923.56104,246.6322,183.67514,908.79291
179,1.483,83.3195,220.44446,971.16138,195.51541,276.61432,922.94733,246.92339,181.98376,908.38422
180,1.492,84.01418,219.8766,970.31238,196.12527,274.63007,922.55115,247.36786,179.5455,907.78809
181,1.5,84.74928,218.29892,970.27545,195.93169,270.73697,922.29431,248.14673,176.45874,906.49402
182,1.508,85.56477,215.86066,969.6759,196.53366,270.10928,921.99622,247.49466,174.39226,906.40662
183,1.517,85.36643,214.90988,969.43597,197.70375,268.23975,921.61621,247.95399,172.27411,905.37018
184,1.525,85.26064,212.84453,968.90948,198.26308,264.90527,919.99017,247.9039,170.27887,905.07483
185,1.533,85.56969,211.56346,968.57874,198.18138,263.64334,919.46283,247.61613,168.49333,903.40283
186,1.542,85.62392,209.76993,967.81116,199.62898,261.37469,919.44464,248.00725,164.86606,903.54529
187,1.55,86.77252,208.15062,967.87469,199.46498,259.39355,918.49286,248.651,163.13797,902.7644
188,1.558,87.3386,206.43816,967.48834,200.73637,257.47836,918.36804,248.10078,160.90332,901.63934
189,1.567,87.21346,204.98688,966.58588,200.45042,254.48004,918.04083,248.23119,158.96231,900.61194
190,1.575,87.33663,202.54292,966.62708,200.93858,253.21103,917.44165,248.17511,155.89145,900.34717
191,1.583,88.00504,201.73293,966.40564,201.34753,250.743,916.17029,249.01015,153.32367,899.74841
192,1.592,88.25222,199.52153,965.5639,202.10176,248.54077,916.01227,249.18849,150.90982,898.75372
193,1.6,88.69981,197.39378,965.48877,202.56664,246.25891,915.70349,248.89885,149.56645,898.76355
194,1.608,89.0371,195.7054,964.79657,202.51035,242.49249,914.02911,248.42575,145.98386,896.49011
195,1.617,89.3236,195.09706,964.4397,203.35524,241.97353,914.20166,247.78181,144.39517,896.3587
196,1.625,89.51419,193.02663,963.58545,203.42958,240.28548,914.03717,249.05055,143.26797,895.56567
197,1.633,89.22777,191.01054,962.7207,205.29474,236.89182,912.83844,248.86203,138.12267,894.89722
198,1.642,90.15455,188.74379,962.2865,204.85982,234.85435,912.47162,248.44904,134.6722,895.06592
199,1.65,90.52296,187.11748,962.26306,205.40213,233.27211,912.44592,248.37527,133.54442,893.82623
200,1.658,91.01508,184.86267,961.81293,204.82376,229.95485,910.90454,248.04474,131.31245,893.47784
201,1.667,91.01987,183.27235,961.39471,206.25156,227.34303,910.95386,247.68256,129.61147,893.26404
