Frame#,Time,R.Forearm.x,R.Forearm.y,R.Forearm.z,R.Ulna.x,R.Ulna.y,R.Ulna.z,R.Radius.x,R.Radius.y,R.Radius.z
1,0,674.92493,-135.74338,1345.70996,749.44519,-150.09598,1312.58838,776.46484,-92.02127,1360.38086
2,0.008,675.08203,-135.84818,1345.61426,749.78632,-150.26349,1312.36438,776.71368,-92.09292,1360.4447
3,0.017,674.83014,-135.88388,1345.56812,749.78632,-150.26349,1312.36438,776.71368,-92.09292,1360.4447
4,0.025,674.83014,-135.88388,1345.56812,749.78632,-150.26349,1312.36438,776.71368,-92.09292,1360.4447
5,0.033,675.10461,-135.91342,1345.55139,750.32336,-149.87904,1312.35352,776.71368,-92.09292,1360.4447
6,0.042,675.23462,-135.67838,1345.7876,749.95868,-150.01456,1312.23206,776.71368,-92.09292,1360.4447
7,0.05,675.21307,-135.95435,1345.51074,750.58167,-149.85706,1312.35706,776.71368,-92.09292,1360.4447
8,0.058,675.52277,-135.88931,1345.58826,750.7655,-149.91455,1312.27808,776.71368,-92.09292,1360.4447
9,0.067,675.47046,-135.89101,1345.58435,750.91174,-149.80624,1312.38708,776.71368,-92.09292,1360.4447
10,0.075,675.70612,-136.01158,1345.47668,751.07935,-149.87584,1312.29614,776.71368,-92.09292,1360.4447
11,0.083,675.77277,-135.82634,1345.66138,751.07935,-149.87584,1312.29614,776.71368,-92.09292,1360.4447
12,0.092,675.77277,-135.82634,1345.66138,751.48816,-150.31245,1312.34473,776.78143,-92.12988,1360.36902
13,0.1,675.77277,-135.82634,1345.66138,751.65576,-150.38193,1312.25378,776.78143,-92.12988,1360.36902
14,0.108,675.71722,-137.06737,1345.63916,751.65576,-150.38193,1312.25378,776.8399,-92.61948,1360.48267
15,0.117,675.71722,-137.06737,1345.63916,752.01288,-150.04512,1312.11121,777.04108,-92.70938,1360.34814
16,0.125,675.71722,-137.06737,1345.63916,752.01288,-150.04512,1312.11121,777.32471,-92.51199,1360.61084
17,0.133,676.06891,-136.25989,1345.76575,752.01288,-150.04512,1312.11121,777.30157,-92.57712,1360.61938
18,0.142,675.9917,-137.18039,1345.58398,752.01288,-150.04512,1312.11121,777.44238,-92.63965,1360.50122
19,0.15,675.9917,-137.18039,1345.58398,752.01288,-150.04512,1312.11121,777.53479,-93.01903,1360.61182
20,0.158,676.19299,-137.06416,1345.70703,752.01288,-150.04512,1312.11121,777.53479,-93.01903,1360.61182
21,0.167,676.02484,-137.01457,1345.74805,752.01288,-150.04512,1312.11121,777.62866,-92.83272,1360.33728
22,0.175,676.4245,-137.5795,1345.45703,752.01288,-150.04512,1312.11121,777.77026,-92.93648,1360.25769
23,0.183,676.43518,-137.37775,1345.65515,752.11865,-149.87468,1311.70532,777.82495,-92.80653,1360.40417
24,0.192,676.4245,-137.5795,1345.45703,752.47589,-149.53802,1311.56274,777.77026,-92.93648,1360.25769
25,0.2,676.4245,-137.5795,1345.45703,752.93463,-149.29102,1311.46204,777.85724,-92.8761,1360.18616
26,0.208,676.4245,-137.5795,1345.45703,752.93463,-149.29102,1311.46204,778.00635,-92.81532,1360.27954
27,0.217,676.4245,-137.5795,1345.45703,752.64355,-149.60751,1311.4718,778.33173,-93.07346,1360.06885
28,0.225,676.4245,-137.5795,1345.45703,753.04926,-150.0303,1311.5415,778.44763,-93.59601,1360.2666
29,0.233,676.5481,-137.70387,1345.34094,753.04926,-150.0303,1311.5415,778.37372,-93.34813,1360.02258
30,0.242,676.4245,-137.5795,1345.45703,753.56573,-150.40579,1311.57056,778.37372,-93.34813,1360.02258
31,0.25,676.5481,-137.70387,1345.34094,753.56573,-150.40579,1311.57056,778.37372,-93.34813,1360.02258
32,0.258,676.5481,-137.70387,1345.34094,753.56573,-150.40579,1311.57056,778.37372,-93.34813,1360.02258
33,0.267,676.73486,-137.58817,1345.24646,753.56573,-150.40579,1311.57056,778.89764,-93.40504,1359.74756
34,0.275,676.65692,-137.78996,1345.13672,753.56573,-150.40579,1311.57056,778.92242,-93.32342,1359.62561
35,0.283,676.84076,-137.72658,1344.92395,753.38489,-150.39236,1311.12146,778.9646,-93.71111,1360.01379
36,0.292,676.61993,-137.82974,1344.81274,753.45642,-150.22253,1310.92932,778.77332,-93.38419,1359.53223
37,0.3,676.84076,-137.72658,1344.92395,753.45642,-150.22253,1310.92932,778.92242,-93.32342,1359.62561
38,0.308,676.61993,-137.82974,1344.81274,753.73242,-150.13646,1310.41138,779.08826,-93.60893,1359.47766
39,0.317,676.84076,-137.72658,1344.92395,753.73242,-150.13646,1310.41138,779.04327,-93.42402,1359.54492
40,0.325,677.02759,-137.61067,1344.82947,753.73242,-150.13646,1310.41138,779.08826,-93.60893,1359.47766
41,0.333,676.8067,-137.71385,1344.71838,754.07294,-150.30534,1310.18738,779.08826,-93.60893,1359.47766
42,0.342,677.02759,-137.61067,1344.82947,754.18085,-150.09576,1310.00073,779.08826,-93.60893,1359.47766
43,0.35,677.02759,-137.61067,1344.82947,754.18085,-150.09576,1310.00073,779.08826,-93.60893,1359.47766
44,0.358,676.8067,-137.71385,1344.71838,754.18085,-150.09576,1310.00073,779.08826,-93.60893,1359.47766
45,0.367,677.02759,-137.61067,1344.82947,754.18085,-150.09576,1310.00073,779.08826,-93.60893,1359.47766
46,0.375,676.8067,-137.71385,1344.71838,754.18085,-150.09576,1310.00073,779.01099,-93.67836,1359.27588
47,0.383,677.02759,-137.61067,1344.82947,754.18085,-150.09576,1310.00073,779.13934,-93.61454,1359.36829
48,0.392,677.22559,-137.33304,1344.79309,754.18085,-150.09576,1310.00073,779.60016,-93.09707,1359.3219
49,0.4,677.00476,-137.43626,1344.68201,754.18085,-150.09576,1310.00073,779.39459,-92.65757,1359.12634
50,0.408,677.00476,-137.43626,1344.68201,754.28583,-150.23294,1309.83899,779.40387,-92.65762,1358.97363
51,0.417,677.00476,-137.43626,1344.68201,754.18085,-150.09576,1310.00073,779.64038,-92.34498,1358.75366
52,0.425,677.00476,-137.43626,1344.68201,754.18085,-150.09576,1310.00073,779.55035,-92.50998,1358.38855
53,0.433,677.00476,-137.43626,1344.68201,754.18085,-150.09576,1310.00073,779.53229,-92.28307,1358.3905
54,0.442,677.55804,-137.16165,1344.66321,754.18085,-150.09576,1310.00073,779.37628,-92.45145,1358.55676
55,0.45,677.55804,-137.16165,1344.66321,754.51617,-150.23439,1309.8186,779.4248,-92.22211,1358.02747
56,0.458,677.26715,-137.28072,1344.53308,754.54565,-149.93762,1309.80322,779.33923,-92.38605,1357.83936
57,0.467,677.37231,-137.0713,1344.39697,754.63556,-150.06203,1309.17822,779.33923,-92.38605,1357.83936
58,0.475,677.17352,-137.06384,1344.39514,754.63556,-150.06203,1309.17822,779.5542,-92.09666,1357.53723
59,0.483,677.94171,-137.04008,1344.17102,754.72235,-149.69742,1309.0686,779.41827,-92.17125,1357.43225
60,0.492,677.97949,-136.71552,1344.0979,754.88269,-149.93594,1308.9281,779.86554,-92.58798,1357.31567
61,0.5,677.62433,-136.82932,1343.97009,754.88269,-149.93594,1308.9281,779.69507,-92.01788,1357.43213
62,0.508,677.75177,-137.22342,1344.05005,754.84436,-149.71588,1308.6676,779.71857,-92.16655,1357.28186
63,0.517,677.62433,-136.82932,1343.97009,754.96948,-149.57132,1308.81848,779.61658,-91.93658,1357.02515
64,0.525,677.62433,-136.82932,1343.97009,754.96948,-149.57132,1308.81848,779.8111,-92.20975,1357.16418
65,0.533,677.58655,-137.1539,1344.04309,754.84436,-149.71588,1308.6676,779.7807,-92.09831,1357.1366
66,0.542,677.58655,-137.1539,1344.04309,754.75983,-149.78664,1308.5957,779.7807,-92.09831,1357.1366
67,0.55,677.97949,-136.71552,1344.0979,754.96948,-149.57132,1308.81848,779.62134,-92.02424,1357.18188
68,0.558,677.43439,-137.01259,1343.84912,754.96948,-149.57132,1308.81848,779.88177,-92.12137,1356.96216
69,0.567,677.78955,-136.89885,1343.97693,754.96948,-149.57132,1308.81848,779.16003,-91.25956,1356.68616
70,0.575,677.43439,-137.01259,1343.84912,754.96948,-149.57132,1308.81848,779.86005,-91.90601,1356.8562
71,0.583,677.62433,-136.82932,1343.97009,754.61951,-149.02464,1308.62878,779.61658,-91.93658,1357.02515
72,0.592,677.62433,-136.82932,1343.97009,754.74463,-148.88008,1308.77966,779.88177,-92.12137,1356.96216
73,0.6,677.43439,-137.01259,1343.84912,754.74463,-148.88008,1308.77966,778.95276,-90.96546,1356.65039
74,0.608,677.78955,-136.89885,1343.97693,754.74463,-148.88008,1308.77966,779.59485,-91.72119,1356.91919
75,0.617,677.62433,-136.82932,1343.97009,754.74463,-148.88008,1308.77966,778.95276,-90.96546,1356.65039
76,0.625,677.43439,-137.01259,1343.84912,754.53497,-149.09538,1308.55688,779.59485,-91.72119,1356.91919
77,0.633,677.72253,-137.22318,1343.64978,754.74463,-148.88008,1308.77966,779.51379,-91.58578,1356.75989
78,0.642,678.07776,-137.10942,1343.77759,754.53497,-149.09538,1308.55688,779.51379,-91.58578,1356.75989
79,0.65,677.91248,-137.03995,1343.77075,754.74463,-148.88008,1308.77966,779.11896,-90.98129,1356.44714
80,0.658,678.07776,-137.10942,1343.77759,754.74463,-148.88008,1308.77966,778.95276,-90.96546,1356.65039
81,0.667,677.72253,-137.22318,1343.64978,754.74463,-148.88008,1308.77966,778.90179,-90.8633,1356.5083
82,0.675,677.72253,-137.22318,1343.64978,754.53497,-149.09538,1308.55688,778.95276,-90.96546,1356.65039
83,0.683,678.94354,-138.32695,1343.21533,754.74463,-148.88008,1308.77966,778.90179,-90.8633,1356.5083
84,0.692,678.97504,-138.15961,1342.98462,754.61951,-149.02464,1308.62878,778.82007,-90.74705,1356.62195
85,0.7,677.72253,-137.22318,1343.64978,754.53497,-149.09538,1308.55688,778.90179,-90.8633,1356.5083
86,0.708,677.7688,-137.10675,1343.48816,754.74463,-148.88008,1308.77966,778.90179,-90.8633,1356.5083
87,0.717,677.7688,-137.10675,1343.48816,754.74463,-148.88008,1308.77966,778.90179,-90.8633,1356.5083
88,0.725,677.7688,-137.10675,1343.48816,754.74463,-148.88008,1308.77966,778.90179,-90.8633,1356.5083
89,0.733,677.7688,-137.10675,1343.48816,754.74463,-148.88008,1308.77966,778.90179,-90.8633,1356.5083
90,0.742,678.14069,-137.1804,1342.83716,754.53497,-149.09538,1308.55688,778.90179,-90.8633,1356.5083
91,0.75,678.97504,-138.15961,1342.98462,754.61951,-149.02464,1308.62878,778.82007,-90.74705,1356.62195
92,0.758,678.14069,-137.1804,1342.83716,754.42194,-149.22997,1308.41638,778.90179,-90.8633,1356.5083
93,0.767,678.14069,-137.1804,1342.83716,754.5249,-149.03925,1308.25024,778.90179,-90.8633,1356.5083
94,0.775,678.14069,-137.1804,1342.83716,754.42194,-149.22997,1308.41638,778.90179,-90.8633,1356.5083
95,0.783,678.14069,-137.1804,1342.83716,754.53497,-149.09538,1308.55688,778.90179,-90.8633,1356.5083
96,0.792,678.14069,-137.1804,1342.83716,754.42194,-149.22997,1308.41638,778.82007,-90.74705,1356.62195
97,0.8,678.07306,-136.95238,1342.69336,754.2218,-148.83432,1308.09888,778.90179,-90.8633,1356.5083
98,0.808,677.8092,-136.83827,1343.03345,754.10083,-148.5808,1308.02039,778.61804,-91.14867,1356.32153
99,0.817,677.8092,-136.83827,1343.03345,754.32477,-148.64346,1307.93262,778.61804,-91.14867,1356.32153
100,0.825,677.84131,-136.92313,1342.71143,754.32477,-148.64346,1307.93262,778.90179,-90.8633,1356.5083
101,0.833,678.07306,-136.95238,1342.69336,754.32477,-148.64346,1307.93262,778.4718,-91.05305,1356.19873
102,0.842,678.07306,-136.95238,1342.69336,754.32477,-148.64346,1307.93262,778.42657,-90.95596,1356.34338
103,0.85,678.07306,-136.95238,1342.69336,754.10083,-148.5808,1308.02039,778.42657,-90.95596,1356.34338
104,0.858,678.07306,-136.95238,1342.69336,754.10083,-148.5808,1308.02039,778.42657,-90.95596,1356.34338
105,0.867,678.07306,-136.95238,1342.69336,754.32477,-148.64346,1307.93262,778.32214,-90.92162,1356.24768
106,0.875,678.07306,-136.95238,1342.69336,754.32477,-148.64346,1307.93262,778.32214,-90.92162,1356.24768
107,0.883,678.07306,-136.95238,1342.69336,754.45801,-148.67725,1307.91833,778.32214,-90.92162,1356.24768
108,0.892,677.84131,-136.92313,1342.71143,754.26038,-148.88252,1307.70593,778.284,-90.83713,1356.33606
109,0.9,677.42279,-136.53812,1343.00562,754.03644,-148.81989,1307.7937,778.284,-90.83713,1356.33606
110,0.908,677.61871,-136.70189,1342.36829,754.03644,-148.81989,1307.7937,778.32214,-90.92162,1356.24768
111,0.917,677.41016,-136.91376,1342.15125,753.75452,-148.26186,1307.47693,778.32214,-90.92162,1356.24768
112,0.925,677.17456,-136.8443,1342.2085,753.75452,-148.26186,1307.47693,778.32214,-90.92162,1356.24768
113,0.933,677.17456,-136.8443,1342.2085,753.53052,-148.19911,1307.5647,778.32214,-90.92162,1356.24768
114,0.942,677.52429,-137.17775,1342.11792,753.43207,-148.20763,1307.36536,778.32214,-90.92162,1356.24768
115,0.95,677.17456,-136.8443,1342.2085,753.43207,-148.20763,1307.36536,778.284,-90.83713,1356.33606
116,0.958,677.52429,-137.17775,1342.11792,753.43207,-148.20763,1307.36536,778.18469,-90.85384,1356.3092
117,0.967,677.53558,-137.36903,1341.90869,753.35938,-148.2291,1307.13965,778.4718,-91.05305,1356.19873
118,0.975,677.2287,-137.52361,1342.06506,753.04346,-148.60518,1307.32776,777.97748,-90.77218,1356.09875
119,0.983,676.56561,-136.85744,1342.16833,753.04346,-148.60518,1307.32776,777.66608,-90.8427,1355.88513
120,0.992,676.46674,-137.07451,1342.24683,753.04346,-148.60518,1307.32776,777.66418,-90.96632,1355.729
121,1,676.46674,-137.07451,1342.24683,752.88379,-148.50876,1307.448,777.40009,-90.95936,1355.74585
122,1.008,676.46674,-137.07451,1342.24683,752.46704,-148.09851,1307.36963,777.40009,-90.95936,1355.74585
123,1.017,677.23999,-137.7148,1341.85583,752.30737,-148.00194,1307.48987,777.40009,-90.95936,1355.74585
124,1.025,677.23999,-137.7148,1341.85583,751.96649,-147.83394,1307.71399,777.1051,-90.85429,1355.75989
125,1.033,677.23999,-137.7148,1341.85583,751.96649,-147.83394,1307.71399,776.81464,-90.7715,1355.74792
126,1.042,677.23999,-137.7148,1341.85583,751.88123,-147.9178,1307.48401,776.81464,-90.7715,1355.74792
127,1.05,677.23999,-137.7148,1341.85583,751.96649,-147.83394,1307.71399,777.11011,-90.87868,1355.7312
128,1.058,676.94568,-137.60696,1341.72241,751.96649,-147.83394,1307.71399,776.81464,-90.7715,1355.74792
129,1.067,676.94568,-137.60696,1341.72241,751.96649,-147.83394,1307.71399,776.81464,-90.7715,1355.74792
130,1.075,676.94568,-137.60696,1341.72241,751.88123,-147.9178,1307.48401,776.81464,-90.7715,1355.74792
131,1.083,676.94568,-137.60696,1341.72241,751.96649,-147.83394,1307.71399,776.4093,-90.69022,1355.90942
132,1.092,676.93445,-137.41577,1341.93152,751.39874,-148.33023,1307.65405,776.44818,-90.58406,1356.02759
133,1.1,676.94568,-137.60696,1341.72241,751.63196,-148.18513,1307.79688,776.44818,-90.58406,1356.02759
134,1.108,676.89282,-137.64589,1341.80005,751.34283,-148.30698,1307.68445,776.34973,-90.66721,1356.12573
135,1.117,676.01849,-137.39653,1341.74731,751.34283,-148.30698,1307.68445,776.20898,-90.75058,1356.2262
136,1.125,676.20917,-137.71405,1341.46509,751.63196,-148.18513,1307.79688,776.0567,-90.76019,1356.18457
137,1.133,676.20917,-137.71405,1341.46509,751.11768,-148.45546,1307.53735,776.06372,-90.91352,1356.25171
138,1.142,675.78528,-137.7374,1341.51758,751.1181,-147.6144,1307.64551,776.00134,-91.08759,1356.52051
139,1.15,675.59467,-137.41988,1341.79993,750.89288,-147.76286,1307.49841,775.91138,-90.92315,1356.21021
140,1.158,675.0755,-137.35983,1341.67078,750.55615,-147.80449,1307.47913,775.91138,-90.92315,1356.21021
141,1.167,675.32092,-137.63443,1341.45703,750.70105,-147.68314,1307.60242,775.91138,-90.92315,1356.21021
142,1.175,675.32092,-137.63443,1341.45703,750.55615,-147.80449,1307.47913,775.86475,-90.98855,1356.29907
143,1.183,675.24658,-137.75967,1341.28943,750.55615,-147.80449,1307.47913,775.86475,-90.98855,1356.29907
144,1.192,674.89923,-137.4644,1341.82581,750.21948,-147.84622,1307.45996,775.86475,-90.98855,1356.29907
145,1.2,674.89923,-137.4644,1341.82581,750.33234,-147.71156,1307.60059,775.72742,-90.9329,1356.34766
146,1.208,674.89923,-137.4644,1341.82581,750.21948,-147.84622,1307.45996,775.72742,-90.9329,1356.34766
147,1.217,674.8736,-137.17162,1342.10083,749.88062,-148.27597,1307.5979,775.69684,-90.83506,1356.45105
148,1.225,674.85333,-137.65617,1341.59473,749.88062,-148.27597,1307.5979,775.69684,-90.83506,1356.45105
149,1.233,674.54437,-137.27579,1341.90259,749.7262,-148.40131,1307.68408,775.72742,-90.9329,1356.34766
150,1.242,674.51874,-136.98293,1342.17749,749.7262,-148.40131,1307.68408,775.55518,-90.87473,1356.46265
151,1.25,673.61084,-136.7014,1342.20178,749.61328,-148.53587,1307.54346,775.55518,-90.87473,1356.46265
152,1.258,673.50897,-136.28532,1342.95862,749.10065,-148.8526,1307.59509,775.55518,-90.87473,1356.46265
153,1.267,673.50897,-136.28532,1342.95862,749.08698,-148.70456,1307.82776,775.55518,-90.87473,1356.46265
154,1.275,673.50897,-136.28532,1342.95862,748.98236,-148.6152,1308.20532,774.53644,-90.78321,1356.64392
155,1.283,673.47601,-136.45166,1342.7948,748.9176,-148.73947,1308.07239,774.6026,-90.73343,1356.82776
156,1.292,673.50897,-136.28532,1342.95862,748.69824,-148.59116,1307.96643,774.83594,-90.99132,1356.84033
157,1.3,673.50897,-136.28532,1342.95862,748.80688,-148.48212,1308.36792,774.65851,-90.90969,1357.12646
158,1.308,673.18195,-136.4001,1342.98608,748.85583,-148.32132,1308.54333,774.60474,-91.07226,1357.18884
159,1.317,673.18195,-136.4001,1342.98608,749.19403,-148.31374,1308.52429,774.10687,-90.83508,1357.42273
160,1.325,673.18195,-136.4001,1342.98608,748.80688,-148.48212,1308.36792,774.25317,-90.93121,1357.54529
161,1.333,672.68951,-135.84169,1342.93274,748.90918,-148.35567,1308.73157,773.78363,-90.79518,1357.52917
162,1.342,672.72253,-135.67537,1343.0968,748.90918,-148.35567,1308.73157,773.9082,-91.47801,1357.97156
163,1.35,672.72253,-135.67537,1343.0968,748.90918,-148.35567,1308.73157,773.7475,-91.16631,1357.79895
164,1.358,672.67639,-135.7917,1343.2583,748.90918,-148.35567,1308.73157,773.66022,-91.43481,1357.92712
165,1.367,672.55365,-135.95944,1343.32275,748.90918,-148.35567,1308.73157,773.66022,-91.43481,1357.92712
166,1.375,672.58667,-135.79311,1343.48669,748.90918,-148.35567,1308.73157,773.66022,-91.43481,1357.92712
167,1.383,672.34656,-136.15511,1343.57751,748.90918,-148.35567,1308.73157,773.38452,-91.36729,1357.90222
168,1.392,672.34656,-136.15511,1343.57751,748.90918,-148.35567,1308.73157,773.38452,-91.36729,1357.90222
169,1.4,672.34656,-136.15511,1343.57751,748.90918,-148.35567,1308.73157,773.38452,-91.36729,1357.90222
170,1.408,672.15594,-136.06963,1343.65271,748.90918,-148.35567,1308.73157,773.38452,-91.36729,1357.90222
171,1.417,672.34656,-136.15511,1343.57751,748.7077,-148.51021,1308.86279,773.38452,-91.36729,1357.90222
172,1.425,672.00677,-136.6226,1343.57092,748.7077,-148.51021,1308.86279,773.17383,-91.39834,1357.96875
173,1.433,671.61365,-136.76559,1343.578,748.7077,-148.51021,1308.86279,773.17383,-91.39834,1357.96875
174,1.442,671.61365,-136.76559,1343.578,748.7077,-148.51021,1308.86279,773.17383,-91.39834,1357.96875
175,1.45,671.61365,-136.76559,1343.578,748.7077,-148.51021,1308.86279,773.04224,-91.66215,1357.92212
176,1.458,671.61365,-136.76559,1343.578,748.7077,-148.51021,1308.86279,772.4765,-92.25849,1358.12402
177,1.467,671.31653,-136.98514,1343.78894,748.7077,-148.51021,1308.86279,772.30646,-92.30685,1358.21143
178,1.475,671.31653,-136.98514,1343.78894,748.7077,-148.51021,1308.86279,772.30646,-92.30685,1358.21143
179,1.483,671.31653,-136.98514,1343.78894,748.57825,-148.56462,1309.12646,772.30646,-92.30685,1358.21143
180,1.492,671.31653,-136.98514,1343.78894,748.57825,-148.56462,1309.12646,772.30646,-92.30685,1358.21143
181,1.5,671.31653,-136.98514,1343.78894,748.57825,-148.56462,1309.12646,772.30646,-92.30685,1358.21143
182,1.508,671.30518,-137.472,1343.78455,748.57825,-148.56462,1309.12646,772.30646,-92.30685,1358.21143
183,1.517,671.30518,-137.472,1343.78455,748.57825,-148.56462,1309.12646,772.30646,-92.30685,1358.21143
184,1.525,671.30518,-137.472,1343.78455,748.34369,-148.50786,1309.20911,772.30646,-92.30685,1358.21143
185,1.533,671.30518,-137.472,1343.78455,748.27075,-148.72108,1308.97717,772.30646,-92.30685,1358.21143
186,1.542,671.18164,-137.34778,1343.90076,748.27075,-148.72108,1308.97717,772.30646,-92.30685,1358.21143
187,1.55,670.62494,-137.55139,1344.10144,748.17151,-149.29559,1308.95251,772.30646,-92.30685,1358.21143
188,1.558,671.28558,-137.65765,1344.02625,747.90564,-149.55589,1309.08008,772.30646,-92.30685,1358.21143
189,1.567,671.16205,-137.53345,1344.14246,748.40588,-148.81377,1309.25891,772.30646,-92.30685,1358.21143
190,1.575,670.89349,-137.54236,1344.12195,748.10675,-149.27728,1309.37439,772.32013,-92.64173,1358.58997
191,1.583,670.89349,-137.54236,1344.12195,747.90564,-149.55589,1309.08008,772.30646,-92.30685,1358.21143
192,1.592,670.89349,-137.54236,1344.12195,748.34125,-149.33401,1309.29175,772.30646,-92.30685,1358.21143
