Frame#,Time,L.Forearm.x,L.Forearm.y,L.Forearm.z,L.Ulna.x,L.Ulna.y,L.Ulna.z,L.Radius.x,L.Radius.y,L.Radius.z
1,0,484.0683,195.33745,1467.20837,594.14709,220.59007,1440.43591,631.61908,132.68903,1476.2301
2,0.008,483.98419,195.50681,1467.16028,594.24023,220.85034,1440.31116,631.70459,132.99156,1476.20593
3,0.017,484.52789,195.94089,1466.91333,594.37872,221.07158,1440.22375,632.11133,134.04906,1475.82275
4,0.025,484.78244,195.94394,1466.77991,594.38641,221.19275,1440.06335,632.21222,134.45868,1475.66992
5,0.033,484.78244,195.94394,1466.77991,594.2356,221.33766,1439.92859,632.505,134.35037,1475.63245
6,0.042,485.83496,196.14774,1466.8999,594.28912,221.40297,1439.82495,633.22272,133.45404,1474.68323
7,0.05,486.23734,196.44418,1466.80664,594.32263,222.02194,1439.55652,632.92273,134.00815,1474.80469
8,0.058,486.29227,196.59779,1466.72913,594.32263,222.02194,1439.55652,633.33801,133.6174,1474.55615
9,0.067,486.26334,196.77144,1466.54443,594.4906,221.56375,1439.63257,633.33801,133.6174,1474.55615
10,0.075,486.24216,197.11331,1466.03735,594.32263,222.02194,1439.55652,633.14038,134.29503,1474.21423
11,0.083,486.13043,197.22424,1465.91467,594.77118,221.49007,1438.41028,633.30573,134.10774,1473.24402
12,0.092,486.27213,197.46634,1465.62183,595.31342,221.23244,1438.39258,633.14594,134.02058,1473.12524
13,0.1,486.08884,197.75426,1465.35071,595.15839,221.22842,1438.04004,633.48102,133.20924,1473.19824
14,0.108,486.08884,197.75426,1465.35071,595.26721,220.98817,1437.84412,633.23962,133.50835,1472.98962
15,0.117,485.6871,197.70943,1464.91907,595.26721,220.98817,1437.84412,633.06628,133.29263,1472.89929
16,0.125,485.86179,197.85564,1464.82727,595.51141,220.91971,1437.6394,632.66431,134.45284,1472.34521
17,0.133,485.86179,197.85564,1464.82727,595.79779,220.63965,1437.41711,632.81201,133.58388,1472.48352
18,0.142,486.23276,196.40396,1464.99683,596.3324,219.61414,1436.91077,632.23187,133.64799,1472.2572
19,0.15,486.159,196.40318,1464.89661,595.80542,219.27815,1436.21899,632.53735,133.79604,1471.93457
20,0.158,485.84329,197.92903,1463.83374,595.80542,219.27815,1436.21899,632.46875,133.43347,1472.10071
21,0.167,486.20413,196.02185,1463.53662,595.6236,219.57169,1435.75439,632.5603,133.35188,1471.32141
22,0.175,486.00522,197.62743,1462.77661,595.40808,220.67928,1435.57129,632.59839,133.77434,1471.17957
23,0.183,485.28503,197.8244,1462.81421,595.40808,220.67928,1435.57129,632.60248,134.37206,1470.49072
24,0.192,485.49054,197.67169,1462.50195,594.91949,221.0542,1434.80603,632.81689,133.39725,1470.51123
25,0.2,485.74805,196.97177,1462.32483,594.89471,220.99168,1434.67957,632.62689,133.3616,1470.15479
26,0.208,485.72488,196.8821,1462.08044,594.76862,221.19933,1434.67139,632.40265,133.17166,1469.26062
27,0.217,485.44055,196.84428,1461.96509,594.57825,221.13972,1434.53381,632.40265,133.17166,1469.26062
28,0.225,485.28732,197.18478,1461.72253,594.63739,220.96835,1434.45142,632.30884,133.30304,1469.02966
29,0.233,485.29324,197.10271,1461.66333,594.42535,220.85217,1434.08667,631.88147,133.88586,1468.58411
30,0.242,485.4657,196.7861,1461.55273,594.60657,220.22688,1433.19153,632.13593,133.08685,1468.93921
31,0.25,485.19299,197.12041,1461.63379,594.4303,220.7953,1433.18982,632.13593,133.08685,1468.93921
32,0.258,485.00208,197.16251,1461.63672,594.4303,220.7953,1433.18982,631.94525,134.20207,1468.12646
33,0.267,485.371,196.84286,1461.5022,594.4303,220.7953,1433.18982,632.185,133.46596,1468.44202
34,0.275,485.0983,197.17715,1461.58337,594.48389,221.15825,1433.04309,632.185,133.46596,1468.44202
35,0.283,484.73923,196.72478,1461.41333,594.48389,221.15825,1433.04309,631.96295,133.69269,1468.29199
36,0.292,485.15405,197.53104,1461.46228,594.48389,221.15825,1433.04309,631.65356,134.67789,1467.84497
37,0.3,484.92355,197.52626,1461.31812,594.48389,221.15825,1433.04309,631.84814,134.51237,1467.9856
38,0.308,485.04196,197.36301,1461.54297,594.18689,221.59735,1433.04944,631.96295,133.69269,1468.29199
39,0.317,484.92355,197.52626,1461.31812,594.18689,221.59735,1433.04944,631.65356,134.67789,1467.84497
40,0.325,484.95761,197.54005,1461.47754,594.48389,221.15825,1433.04309,631.89752,135.24228,1467.80603
41,0.333,484.95422,197.46564,1461.39551,594.48389,221.15825,1433.04309,632.09204,135.07683,1467.94653
42,0.342,484.95761,197.54005,1461.47754,594.31793,221.18805,1433.06335,632.35791,133.68213,1468.53247
43,0.35,485.08008,197.28651,1461.62915,594.18689,221.59735,1433.04944,632.35791,133.68213,1468.53247
44,0.358,484.98441,197.27274,1461.68518,594.18689,221.59735,1433.04944,632.0282,134.71671,1468.07397
45,0.367,484.86139,197.52542,1461.53088,594.31793,221.18805,1433.06335,632.35791,133.68213,1468.53247
46,0.375,484.86139,197.52542,1461.53088,594.31793,221.18805,1433.06335,632.0282,134.71671,1468.07397
47,0.383,484.73209,196.44028,1462.01831,594.31793,221.18805,1433.06335,632.48547,133.37309,1468.8396
48,0.392,484.61212,196.12375,1461.96753,594.3703,217.23166,1434.02014,632.30884,133.30304,1469.02966
49,0.4,484.5173,196.17458,1461.92578,593.5918,219.80078,1433.49243,632.06146,134.09023,1468.67236
50,0.408,484.61212,196.12375,1461.96753,593.26935,219.66408,1433.28113,632.06146,134.09023,1468.67236
51,0.417,484.33884,195.91484,1462.02454,593.11298,219.52733,1433.50708,632.04028,132.30411,1469.37415
52,0.425,484.43369,195.86401,1462.06628,592.98322,219.94397,1433.50366,631.53876,132.68845,1469.01733
53,0.433,484.06342,195.64168,1462.2948,593.02057,219.77547,1433.6593,631.53876,132.68845,1469.01733
54,0.442,484.15012,195.45073,1462.39075,593.02057,219.77547,1433.6593,631.53876,132.68845,1469.01733
55,0.45,483.78009,194.93987,1462.08459,593.02057,219.77547,1433.6593,631.50079,131.22626,1470.0498
56,0.458,483.64859,194.85355,1462.06445,592.59094,218.4585,1433.66943,631.40082,131.31749,1470.53589
57,0.467,483.496,194.90147,1462.14722,592.40802,218.48686,1433.69739,631.2854,131.15428,1470.66309
58,0.475,483.49036,194.78764,1462.21021,592.40802,218.48686,1433.69739,630.40344,131.0782,1470.56799
59,0.483,483.1326,194.19608,1462.0968,592.40802,218.48686,1433.69739,629.87592,130.38673,1470.81958
60,0.492,483.01123,194.25423,1462.19751,592.87695,216.50308,1434.30444,629.87592,130.38673,1470.81958
61,0.5,483.01123,194.25423,1462.19751,591.91272,218.44774,1433.97876,629.44049,130.13809,1470.85583
62,0.508,483.08508,193.97897,1462.3075,592.06152,218.09602,1434.0946,629.28784,129.48827,1470.89063
63,0.517,483.05161,193.54832,1462.20166,592.06152,218.09602,1434.0946,629.28784,129.48827,1470.89063
64,0.525,483.1041,193.28186,1462.11218,591.64026,217.56149,1434.03198,629.27014,129.19266,1470.80566
65,0.533,482.84201,193.04973,1462.19385,591.68915,217.47307,1434.15417,628.89728,129.92436,1470.21692
66,0.542,482.79987,192.94588,1462.15454,591.23724,216.89017,1433.96167,628.60718,129.9825,1470.23694
67,0.55,482.62119,192.84416,1462.14807,590.85449,216.52805,1433.96472,628.77332,129.24178,1470.72351
68,0.558,482.41238,192.80081,1462.21228,590.88165,216.62938,1433.82349,628.77332,129.24178,1470.72351
69,0.567,482.44592,192.73949,1462.26135,590.86432,216.65599,1434.10583,628.77332,129.24178,1470.72351
70,0.575,482.09308,192.7131,1462.05798,590.86432,216.65599,1434.10583,628.60718,129.9825,1470.23694
71,0.583,481.65924,192.85532,1461.98254,590.60107,216.83981,1434.30945,628.77332,129.24178,1470.72351
72,0.592,481.65924,192.85532,1461.98254,590.61328,216.724,1434.43982,628.77332,129.24178,1470.72351
73,0.6,481.65924,192.85532,1461.98254,590.61328,216.724,1434.43982,628.67273,128.83275,1470.87659
74,0.608,481.60056,192.70726,1462.05322,590.60553,216.63971,1434.34326,628.19,129.40337,1470.41858
75,0.617,481.12546,192.83842,1462.18774,590.87128,216.62521,1434.71912,628.37402,128.60564,1470.93115
76,0.625,481.19025,192.59541,1462.24744,590.4408,215.30725,1434.72925,628.37402,128.60564,1470.93115
77,0.633,480.89163,192.23625,1462.43762,590.35974,215.69095,1434.86938,628.11377,128.14519,1470.89136
78,0.642,480.89163,192.23625,1462.43762,589.90057,215.80571,1434.8667,628.13458,127.89267,1470.75964
79,0.65,480.29758,191.8877,1462.76111,590.0127,215.39851,1434.8291,628.13458,127.89267,1470.75964
80,0.658,480.10159,191.89624,1462.77637,590.0127,215.39851,1434.8291,627.67487,127.68633,1470.88562
81,0.667,480.39316,191.5737,1462.70618,589.90057,215.80571,1434.8667,627.35669,127.79391,1470.91113
82,0.675,479.9064,191.74229,1463.02771,590.09662,214.89241,1434.91235,627.35669,127.79391,1470.91113
83,0.683,479.98074,191.56998,1463.10181,589.93091,215.45145,1434.9303,627.27136,127.49136,1470.93555
84,0.692,479.9064,191.74229,1463.02771,590.21057,214.39142,1434.88989,627.27136,127.49136,1470.93555
85,0.7,479.9064,191.74229,1463.02771,590.07678,214.36374,1434.97339,627.04065,127.23259,1471.21729
86,0.708,479.51819,191.15105,1463.08569,589.85443,214.45532,1434.93372,626.56354,127.39368,1471.25574
87,0.717,479.43793,191.0318,1463.10461,590.03992,214.10326,1435.00574,626.56354,127.39368,1471.25574
88,0.725,479.30286,190.74367,1463.18384,589.85004,214.54651,1435.24475,626.39117,126.81049,1471.43127
89,0.733,478.97574,190.7245,1463.11414,589.68884,214.62234,1435.1698,626.39117,126.81049,1471.43127
90,0.742,479.15765,190.43858,1463.00427,589.10468,212.58501,1435.11218,626.25116,126.64736,1471.24109
91,0.75,479.02179,190.40279,1463.01941,590.10016,209.56142,1435.55835,625.85919,125.84171,1471.04749
92,0.758,478.86093,189.38535,1463.02075,589.95825,209.57079,1435.58887,624.85406,125.45193,1471.22278
93,0.767,478.67667,189.2374,1462.92395,588.72382,212.36606,1435.1449,624.85406,125.45193,1471.22278
94,0.775,478.88901,189.03163,1462.81226,588.4585,212.31598,1434.8916,624.53619,125.55894,1471.24854
95,0.783,478.88901,189.03163,1462.81226,588.26355,212.20377,1434.68982,624.51874,125.26308,1471.1637
96,0.792,478.62793,188.50279,1462.82703,588.26355,212.20377,1434.68982,624.4917,125.10031,1471.38208
97,0.8,478.47763,188.98271,1462.80457,588.45758,211.75366,1434.84912,624.4917,125.10031,1471.38208
98,0.808,478.62793,188.50279,1462.82703,588.30597,211.12779,1434.66577,624.35315,124.2705,1471.67712
99,0.817,478.6951,188.04079,1462.8678,588.4577,209.12627,1434.90112,624.35315,124.2705,1471.67712
100,0.825,478.44019,188.74211,1462.4989,588.16705,209.19971,1434.8418,624.35315,124.2705,1471.67712
101,0.833,478.69781,187.45174,1462.1261,588.16705,209.19971,1434.8418,624.35315,124.2705,1471.67712
102,0.842,478.52515,188.12296,1462.16357,587.25238,210.98865,1434.27832,624.35315,124.2705,1471.67712
103,0.85,478.50009,188.46402,1461.9762,587.25238,210.98865,1434.27832,624.09369,123.80897,1471.63721
104,0.858,478.60022,187.88004,1462.08496,587.31128,210.81662,1434.1958,624.09369,123.80897,1471.63721
105,0.867,478.68286,187.96167,1462.01624,586.71216,209.69106,1433.89783,624.09369,123.80897,1471.63721
106,0.875,478.49344,187.88776,1461.77759,586.71216,209.69106,1433.89783,623.95386,123.47652,1471.38147
107,0.883,478.34958,187.96135,1461.74402,587.18237,209.39702,1433.78003,624.69263,122.20365,1470.7583
108,0.892,478.39478,188.03249,1461.48157,587.57117,208.35547,1434.40759,624.78448,122.11537,1470.29956
109,0.9,478.48813,187.68022,1460.94641,587.18237,209.39702,1433.78003,624.69928,121.81297,1470.32397
110,0.908,478.50464,187.20213,1460.88049,587.18237,209.39702,1433.78003,624.56201,122.12882,1469.62781
111,0.917,478.35254,187.5881,1460.57776,587.48517,207.42931,1433.49841,624.47699,121.82614,1469.65247
112,0.925,478.53308,186.8383,1460.53479,587.10718,209.17349,1433.38428,624.78882,121.31976,1469.21667
113,0.933,478.67764,186.79208,1460.31055,587.10883,209.23215,1432.9491,624.54761,121.61668,1469.00854
114,0.942,479.18829,186.18636,1460.42493,587.26868,209.22775,1432.89783,624.54761,121.61668,1469.00854
115,0.95,479.1358,186.21562,1460.59424,587.38843,209.19908,1432.41699,624.88263,121.48895,1468.96631
116,0.958,479.26981,186.4104,1460.45911,588.28882,210.23161,1432.16223,625.20728,121.39381,1468.5697
117,0.967,479.38333,186.15334,1460.09058,588.53754,210.18777,1431.66467,625.42419,121.87289,1468.53442
118,0.975,479.38333,186.15334,1460.09058,588.84534,210.0665,1431.50378,625.64459,122.03815,1468.1969
119,0.983,479.492,186.1899,1460.15259,589.15906,209.60925,1431.03259,626.03845,122.06873,1468.02698
120,0.992,479.54776,185.52164,1460.03674,589.14197,209.27235,1429.85828,626.33679,121.84904,1467.88135
121,1,480.40262,185.17545,1459.64526,589.63196,205.42041,1430.3595,626.33679,121.84904,1467.88135
122,1.008,480.68863,185.20712,1459.81189,590.00458,209.04419,1430.02319,626.25262,121.99376,1467.24158
123,1.017,481.50497,184.72014,1460.0116,590.2644,208.68123,1429.93481,627.73871,120.00724,1467.28577
124,1.025,482.01215,183.79398,1459.96912,590.58704,205.34467,1430.41467,628.19409,120.26994,1467.12659
125,1.033,481.4577,183.92357,1459.54138,590.58704,205.34467,1430.41467,628.97455,119.07476,1466.86938
126,1.042,481.6532,183.91507,1459.526,590.65546,205.38438,1430.3324,628.97455,119.07476,1466.86938
127,1.05,482.09094,184.43626,1459.5061,590.73016,206.90779,1429.87854,629.08362,119.00343,1466.66235
128,1.058,482.41913,184.03178,1459.75598,591.16132,208.22881,1429.87024,629.32257,119.42609,1466.80225
129,1.067,482.66278,183.74147,1459.95398,591.16132,208.22881,1429.87024,629.27545,119.03555,1467.01941
130,1.075,482.90567,183.74216,1459.68005,590.98975,206.27538,1429.97119,629.27545,119.03555,1467.01941
131,1.083,483.01651,183.57039,1459.90161,591.73285,205.70418,1430.15515,629.44739,119.25177,1467.10986
132,1.092,483.07584,182.87497,1460.4762,592.56628,203.01871,1430.95691,630.00348,119.00791,1467.25024
133,1.1,483.0946,183.5036,1460.37561,593.16833,203.71466,1431.12549,630.26581,118.80245,1467.35156
134,1.108,483.27768,183.50958,1460.50964,593.08282,205.72067,1430.33057,630.633,118.93998,1467.58936
135,1.117,483.27768,183.50958,1460.50964,593.40204,205.50612,1430.49414,630.633,118.93998,1467.58936
136,1.125,483.34924,183.38345,1460.6189,593.57141,205.51103,1430.42725,630.633,118.93998,1467.58936
137,1.133,483.47781,183.33165,1460.91418,593.61115,205.38287,1430.57922,630.633,118.93998,1467.58936
138,1.142,483.47781,183.33165,1460.91418,593.68091,205.50638,1431.68921,631.02161,118.68822,1467.67468
139,1.15,484.0369,182.85243,1461.09338,593.87714,205.36852,1430.95569,631.02161,118.68822,1467.67468
140,1.158,484.94049,182.67029,1461.38379,594.75458,205.17094,1431.07678,630.91254,118.75961,1467.88159
141,1.167,485.21222,182.62744,1461.57703,594.65735,205.71951,1432.44263,631.25946,118.70269,1467.75293
142,1.175,485.211,182.72784,1461.81873,595.06158,205.30501,1432.25488,631.1889,119.1063,1468.0238
143,1.183,485.62512,182.20152,1462.00513,595.77686,206.25648,1432.65649,631.61749,118.84689,1468.21228
144,1.192,486.08267,182.1346,1461.9342,595.80383,206.03329,1432.56921,631.61749,118.84689,1468.21228
145,1.2,486.60852,182.37143,1461.83252,595.8255,206.17932,1432.76184,631.77832,118.92585,1468.3363
146,1.208,486.78342,182.47227,1462.03088,596.17529,206.21071,1432.9696,631.77832,118.92585,1468.3363
147,1.217,487.11224,182.38258,1461.99243,596.36304,206.30664,1433.13623,632.15363,118.83125,1468.2345
148,1.225,487.49283,182.89177,1462.05701,596.36304,206.30664,1433.13623,632.60217,118.92356,1468.38489
149,1.233,487.77322,183.06078,1462.22192,596.96643,205.97409,1433.23987,632.60217,118.92356,1468.38489
150,1.242,487.9715,182.91495,1462.07788,596.97687,206.1546,1433.13965,633.07092,118.23442,1468.56299
151,1.25,487.9715,182.91495,1462.07788,597.43738,206.04082,1433.14233,633.07092,118.23442,1468.56299
152,1.258,488.61588,183.61629,1462.17297,597.74945,205.60934,1433.09033,634.28156,116.9034,1468.50269
153,1.267,488.81128,183.77103,1461.9209,597.74945,205.60934,1433.09033,635.21857,116.44721,1468.39661
154,1.275,489.29526,183.83365,1462.30334,597.74945,205.60934,1433.09033,635.42145,116.43692,1468.69617
155,1.283,489.41254,183.59711,1462.1051,598.70056,205.13828,1433.29785,635.95038,116.25719,1468.65393
156,1.292,489.45166,183.85756,1462.20703,598.87781,205.05338,1433.34497,636.45056,117.58809,1468.94055
157,1.3,489.93738,183.97179,1462.43872,599.34045,204.96681,1432.86462,636.45056,117.58809,1468.94055
158,1.308,491.19946,184.47256,1462.73328,599.82727,204.68947,1432.55042,636.82593,117.49413,1468.83887
159,1.317,491.56824,184.42673,1462.65662,600.23785,204.9904,1432.35986,637.32172,117.44397,1468.9209
160,1.325,491.74329,184.36075,1462.69397,600.66638,206.31348,1432.35046,637.50458,117.82654,1468.90381
161,1.333,491.97,184.6012,1462.6228,600.66638,206.31348,1432.35046,637.54309,118.15832,1468.96777
162,1.342,492.03479,184.63199,1462.55652,601.04303,206.31807,1432.60999,637.8667,118.51758,1468.57434
163,1.35,492.51501,184.23599,1462.62329,601.33099,206.03709,1432.38647,638.5462,118.57068,1468.15161
164,1.358,492.68912,184.60739,1462.64978,602.17017,207.66196,1432.32104,638.87292,118.47404,1468.14087
165,1.367,492.95889,184.64478,1462.69324,602.17017,207.66196,1432.32104,639.24048,118.592,1468.17358
166,1.375,492.95889,184.64478,1462.69324,602.57275,207.28674,1431.99072,639.53204,118.39749,1468.05334
167,1.383,493.72635,184.70164,1462.61914,602.95746,207.21716,1431.94421,639.77002,118.41096,1468.13171
168,1.392,494.16779,185.05458,1462.39539,603.33972,207.5123,1431.9939,639.94214,118.62598,1468.22168
169,1.4,494.75946,185.99411,1462.36511,603.83282,208.45174,1432.0824,640.22894,119.01211,1467.97986
170,1.408,495.27954,186.25479,1462.02673,604.44678,208.30103,1432.08582,640.56421,118.88249,1467.93823
171,1.417,496.32489,186.02571,1461.91443,605.21912,208.29178,1432.26782,640.56421,118.88249,1467.93823
172,1.425,496.64624,186.19284,1461.92529,605.32336,208.09515,1432.39075,640.82123,119.73888,1467.62878
173,1.433,496.60565,186.22432,1461.60559,605.27368,208.35114,1432.07727,641.04156,120.0229,1468.01257
174,1.442,496.60666,186.27484,1461.5321,605.45306,208.22382,1432.17859,641.04156,120.0229,1468.01257
175,1.45,496.65283,186.24464,1461.33923,605.50568,208.58931,1432.03137,641.04156,120.0229,1468.01257
176,1.458,496.4035,186.25996,1460.74243,605.37225,208.79869,1431.80786,641.34955,120.78059,1467.75574
177,1.467,496.31573,186.35236,1460.53625,605.37225,208.79869,1431.80786,641.46552,120.87446,1467.60181
178,1.475,496.08127,186.75601,1460.21118,604.9328,209.37276,1430.93225,641.57758,121.41401,1467.43018
179,1.483,496.67834,187.26938,1459.81909,605.33118,209.04704,1430.71484,641.57758,121.41401,1467.43018
180,1.492,496.8732,187.27673,1459.13354,605.33118,209.04704,1430.71484,641.87305,122.58904,1467.03918
181,1.5,496.79871,187.314,1458.79187,605.26831,208.55563,1429.81213,641.87305,122.58904,1467.03918
182,1.508,496.82858,186.78215,1458.64551,605.65302,206.76834,1430.12793,641.87305,122.58904,1467.03918
183,1.517,496.88406,186.93492,1458.37537,605.77106,206.91231,1429.9176,641.77191,123.25448,1465.84521
184,1.525,496.88406,186.93492,1458.37537,605.85297,207.18196,1429.79102,642.78748,122.97386,1465.27771
185,1.533,497.06909,187.07874,1457.98584,605.83459,208.54443,1428.97205,643.1087,123.04237,1465.07971
186,1.542,496.93286,188.07614,1457.82861,606.22339,212.00655,1427.42432,643.31287,122.50524,1464.58569
187,1.55,497.01547,188.15686,1457.76025,606.78198,208.37996,1427.80518,643.47729,123.35158,1463.90833
188,1.558,497.08139,188.1794,1457.58862,606.53558,209.96684,1426.479,643.58728,124.17364,1463.08679
189,1.567,497.20749,188.02531,1457.23364,606.47223,210.54707,1426.09631,644.24121,123.26498,1462.16541
190,1.575,497.77441,187.49744,1457.95581,607.77246,208.2563,1426.29175,644.55096,123.23005,1461.79895
191,1.583,497.96756,188.18823,1457.10461,607.25861,209.99767,1425.63464,645.52423,122.97184,1461.44495
192,1.592,498.43915,187.56233,1456.52405,607.20551,210.23407,1425.69617,645.5105,123.26468,1461.20728
193,1.6,499.07562,187.29762,1456.38257,607.76385,211.58755,1425.60535,645.62323,123.09511,1460.6687
194,1.608,499.48108,186.50485,1456.39893,607.76727,210.98352,1424.72888,645.68805,122.84332,1460.42883
195,1.617,499.48108,186.50485,1456.39893,607.83496,210.80061,1424.64417,645.68805,122.84332,1460.42883
196,1.625,499.48108,186.50485,1456.39893,607.33075,209.80754,1424.64856,645.8623,123.41515,1460.12183
