Frame#,Time,R.Forearm.x,R.Forearm.y,R.Forearm.z,R.Ulna.x,R.Ulna.y,R.Ulna.z,R.Radius.x,R.Radius.y,R.Radius.z
1,0,-216.51157,-377.49057,839.64703,-141.70534,-337.34314,780.7135,-128.73744,-264.12686,856.54041
2,0.008,-216.65714,-377.37399,839.5531,-141.70534,-337.34314,780.7135,-129.13203,-263.87296,856.42535
3,0.017,-216.87573,-377.3447,839.57935,-141.70534,-337.34314,780.7135,-129.13203,-263.87296,856.42535
4,0.025,-216.39879,-377.20807,839.4989,-141.56354,-337.18011,780.76678,-129.31229,-263.76086,856.25464
5,0.033,-216.35092,-377.02002,839.34558,-141.37245,-337.19131,780.66187,-129.28593,-263.71271,856.38287
6,0.042,-216.23262,-376.85895,839.41138,-141.37245,-337.19131,780.66187,-129.28593,-263.71271,856.38287
7,0.05,-215.94077,-377.24854,839.33649,-141.4296,-337.10776,780.24298,-129.46619,-263.60056,856.21216
8,0.058,-216.12039,-377.03714,839.38147,-141.30841,-336.95212,780.11914,-129.46619,-263.60056,856.21216
9,0.067,-216.03389,-377.10681,838.84985,-141.37959,-336.65439,779.95959,-129.46619,-263.60056,856.21216
10,0.075,-216.03389,-377.10681,838.84985,-141.55006,-336.57336,779.80035,-129.46619,-263.60056,856.21216
11,0.083,-215.66124,-376.68735,838.69379,-141.2428,-336.43765,779.51904,-129.22006,-263.65216,856.16449
12,0.092,-215.636,-377.12241,838.71332,-141.09979,-336.29825,779.03101,-129.08743,-263.73035,856.04572
13,0.1,-215.40977,-377.10834,838.42169,-141.09979,-336.29825,779.03101,-129.08743,-263.73035,856.04572
14,0.108,-214.95393,-377.12936,838.35156,-140.81197,-336.35779,779.02515,-128.47633,-263.96811,855.94855
15,0.117,-214.98512,-377.36749,838.19061,-140.32385,-336.40451,778.82153,-128.14917,-264.24536,855.82129
16,0.125,-214.65929,-377.4859,838.16241,-140.07901,-336.14584,778.52472,-128.17615,-264.14886,855.57452
17,0.133,-214.37921,-376.91693,838.09235,-139.74875,-335.95386,778.10455,-128.14784,-264.06976,855.33252
18,0.142,-214.01443,-377.26102,837.97443,-139.72084,-335.89847,777.88538,-127.99397,-264.23007,855.37512
19,0.15,-214.01443,-377.26102,837.97443,-139.49416,-335.93546,777.84412,-127.78262,-264.15338,854.92639
20,0.158,-213.49188,-377.21854,837.78381,-139.49416,-335.93546,777.84412,-127.53662,-264.20535,854.87878
21,0.167,-213.26614,-377.25839,837.75452,-139.49416,-335.93546,777.84412,-127.36197,-264.40283,854.5166
22,0.175,-213.26614,-377.25839,837.75452,-139.32803,-335.75992,777.38824,-127.24461,-264.49237,854.39642
23,0.183,-213.26614,-377.25839,837.75452,-139.51816,-335.81888,777.12592,-127.23432,-264.66342,854.26642
24,0.192,-213.23093,-377.59448,837.65137,-139.33513,-336.06305,777.13763,-126.82803,-264.59357,854.1297
25,0.2,-213.23093,-377.59448,837.65137,-139.33513,-336.06305,777.13763,-126.82803,-264.59357,854.1297
26,0.208,-213.06056,-377.38507,837.55298,-139.33513,-336.06305,777.13763,-126.49192,-264.35535,853.81915
27,0.217,-212.96309,-377.44,837.69165,-139.33356,-336.22537,777.01764,-126.5219,-263.79568,853.77002
28,0.225,-213.05203,-377.71146,837.12378,-139.27164,-336.23407,776.8764,-126.5219,-263.79568,853.77002
29,0.233,-212.86494,-377.44269,836.95581,-139.60675,-335.91208,776.77881,-127.00698,-263.03592,853.32568
30,0.242,-212.90712,-377.63702,836.88629,-139.60675,-335.91208,776.77881,-127.01256,-262.6069,852.9826
31,0.25,-213.00714,-377.72028,836.55927,-139.64536,-336.02112,776.67834,-126.78271,-262.50403,852.95367
32,0.258,-213.00714,-377.72028,836.55927,-139.64536,-336.02112,776.67834,-126.5976,-263.14777,852.85535
33,0.267,-212.98883,-377.61157,836.33423,-139.45067,-335.27905,776.22858,-127.2425,-262.82541,852.23077
34,0.275,-212.98883,-377.61157,836.33423,-139.30197,-335.27264,775.77643,-127.08015,-262.81396,851.70581
35,0.283,-212.82204,-377.48282,835.94788,-139.30197,-335.27264,775.77643,-127.03279,-262.74521,851.47699
36,0.292,-212.71664,-377.46695,835.79468,-139.42564,-335.20212,775.13635,-126.79346,-262.29495,851.20789
37,0.3,-212.71912,-376.6246,835.31726,-139.32108,-335.17426,774.95624,-126.92989,-262.08743,850.92493
38,0.308,-212.77917,-376.57666,834.91559,-139.32108,-335.17426,774.95624,-127.22733,-262.09683,850.52502
39,0.317,-212.97945,-376.54163,834.95587,-139.29337,-335.11911,774.73688,-127.22733,-262.09683,850.52502
40,0.325,-212.95602,-377.06467,834.98108,-139.66458,-335.14606,774.52637,-127.29784,-262.04205,850.41473
41,0.333,-213.12437,-376.46576,834.7984,-139.66458,-335.14606,774.52637,-127.2322,-261.98206,850.19611
42,0.342,-212.92807,-376.50369,834.77228,-139.84929,-335.17386,774.49847,-127.5753,-261.70071,850.14966
43,0.35,-213.12437,-376.46576,834.7984,-139.4597,-335.03494,774.56189,-127.40004,-261.85446,850.4411
44,0.358,-213.12437,-376.46576,834.7984,-139.40482,-335.1973,774.51105,-127.02412,-261.60501,850.35034
45,0.367,-212.92807,-376.50369,834.77228,-139.53468,-335.38745,774.43231,-126.92192,-261.7926,850.32397
46,0.375,-213.2215,-376.37292,834.7663,-139.53468,-335.38745,774.43231,-126.86337,-261.69431,850.44751
47,0.383,-213.12437,-376.46576,834.7984,-139.58955,-335.22513,774.48315,-126.92192,-261.7926,850.32397
48,0.392,-213.22238,-376.34921,834.67938,-139.84929,-335.17386,774.49847,-126.92192,-261.7926,850.32397
49,0.4,-213.45154,-376.30304,834.7027,-139.7944,-335.33621,774.44763,-126.86337,-261.69431,850.44751
50,0.408,-213.45154,-376.30304,834.7027,-139.981,-334.90942,774.51074,-126.80209,-261.91736,850.35724
51,0.417,-213.45154,-376.30304,834.7027,-140.05592,-335.26196,774.38116,-126.92192,-261.7926,850.32397
52,0.425,-212.92989,-376.37112,834.55743,-139.981,-334.90942,774.51074,-126.92192,-261.7926,850.32397
53,0.433,-213.12708,-376.30948,834.4967,-139.72137,-334.95868,774.48859,-126.86337,-261.69431,850.44751
54,0.442,-212.83276,-376.46396,834.5896,-140.11081,-335.09961,774.43201,-126.92192,-261.7926,850.32397
55,0.45,-212.92989,-376.37112,834.55743,-139.48643,-334.55032,774.61768,-126.92192,-261.7926,850.32397
56,0.458,-213.02519,-376.41089,834.74017,-139.48643,-334.55032,774.61768,-126.86337,-261.69431,850.44751
57,0.467,-213.06076,-376.32712,834.73267,-139.22662,-334.60159,774.60242,-126.86337,-261.69431,850.44751
58,0.475,-213.12524,-376.44208,834.71149,-139.48643,-334.55032,774.61768,-127.02412,-261.60501,850.35034
59,0.483,-213.43086,-376.22623,834.7674,-139.48643,-334.55032,774.61768,-126.99239,-261.49188,850.4577
60,0.492,-213.55693,-376.08969,834.73541,-139.48643,-334.55032,774.61768,-126.99239,-261.49188,850.4577
61,0.5,-213.32689,-376.15964,834.79907,-139.48643,-334.55032,774.61768,-126.99239,-261.49188,850.4577
62,0.508,-213.30324,-375.80511,834.91669,-139.06026,-334.68579,774.7774,-127.52919,-261.33444,850.43915
63,0.517,-213.53244,-375.75888,834.94,-139.06026,-334.68579,774.7774,-127.52919,-261.33444,850.43915
64,0.525,-213.47238,-375.80695,835.34167,-139.19658,-334.66025,775.10687,-127.52919,-261.33444,850.43915
65,0.533,-213.47238,-375.80695,835.34167,-139.08798,-334.74094,774.99683,-127.52919,-261.33444,850.43915
66,0.542,-213.47238,-375.80695,835.34167,-139.23386,-334.64014,775.47461,-127.36343,-261.47412,850.69843
67,0.55,-213.22346,-375.81641,835.53088,-139.30115,-334.68811,775.28699,-127.36343,-261.47412,850.69843
68,0.558,-213.46124,-375.74692,835.47577,-139.23386,-334.64014,775.47461,-127.20428,-261.16956,850.75281
69,0.567,-213.5985,-375.67056,835.30975,-139.23386,-334.64014,775.47461,-127.20428,-261.16956,850.75281
70,0.575,-213.5985,-375.67056,835.30975,-139.23386,-334.64014,775.47461,-126.96252,-261.07883,851.23804
71,0.583,-213.46124,-375.74692,835.47577,-139.23386,-334.64014,775.47461,-126.52682,-261.22919,851.26031
72,0.592,-213.46124,-375.74692,835.47577,-139.23386,-334.64014,775.47461,-126.57421,-261.29813,851.48932
73,0.6,-213.46124,-375.74692,835.47577,-139.51624,-334.57211,775.44696,-126.30527,-261.72882,851.92645
74,0.608,-213.46124,-375.74692,835.47577,-139.51624,-334.57211,775.44696,-126.30527,-261.72882,851.92645
75,0.617,-213.47238,-375.80695,835.34167,-139.51624,-334.57211,775.44696,-126.58248,-261.69025,852.03497
76,0.625,-213.46124,-375.74692,835.47577,-139.23386,-334.64014,775.47461,-126.59045,-261.71564,852.08813
77,0.633,-213.33513,-375.88327,835.50769,-139.23386,-334.64014,775.47461,-126.9039,-261.57733,852.15747
78,0.642,-213.58743,-375.73236,835.60199,-139.42184,-334.73315,776.14813,-126.9039,-261.57733,852.15747
79,0.65,-213.86636,-375.7002,835.64551,-139.77927,-334.70361,776.33386,-127.08226,-261.75961,852.10651
80,0.658,-214.13811,-375.41986,835.99677,-139.93239,-335.01315,776.36365,-127.24084,-261.66281,852.0166
81,0.667,-214.12416,-375.1384,836.23022,-139.66014,-335.08755,776.422,-127.44312,-261.65057,852.15826
82,0.675,-214.25826,-374.37787,836.41748,-139.89383,-334.90405,776.46411,-127.77546,-261.55576,852.15381
83,0.683,-214.25826,-374.37787,836.41748,-140.14796,-334.73364,776.56763,-128.23598,-261.34149,851.81683
84,0.692,-214.25826,-374.37787,836.41748,-140.3748,-334.69693,776.60889,-128.69461,-261.58786,851.72675
85,0.7,-214.46809,-374.34845,836.48596,-140.3748,-334.69693,776.60889,-128.61041,-261.32358,851.55536
86,0.708,-214.25826,-374.37787,836.41748,-140.20412,-334.77783,776.76837,-128.59857,-261.18494,851.10577
87,0.717,-214.25826,-374.37787,836.41748,-140.12535,-334.86548,776.50262,-128.79132,-261.56693,851.29315
88,0.725,-214.25826,-374.37787,836.41748,-140.28116,-334.99591,776.56744,-128.82295,-261.6799,851.18579
89,0.733,-214.64952,-374.27902,836.38318,-140.45183,-334.91495,776.40796,-128.78931,-261.60242,850.94397
90,0.742,-214.80902,-374.36209,835.94879,-140.45183,-334.91495,776.40796,-128.82295,-261.6799,851.18579
91,0.75,-214.88475,-374.39911,835.90466,-140.45183,-334.91495,776.40796,-129.03758,-262.18951,851.1239
92,0.758,-214.71349,-374.41211,835.80798,-140.45183,-334.91495,776.40796,-128.64287,-262.56894,852.10095
93,0.767,-214.82613,-374.57852,835.57941,-140.45183,-334.91495,776.40796,-128.46977,-262.50333,851.72937
94,0.775,-214.99738,-374.56555,835.67609,-140.64999,-334.83322,776.26624,-128.80249,-262.48758,851.94507
95,0.783,-214.99738,-374.56555,835.67609,-140.68895,-334.95529,775.55066,-128.56856,-262.38681,851.91077
96,0.792,-214.99738,-374.56555,835.67609,-140.68895,-334.95529,775.55066,-128.23581,-262.40247,851.69501
97,0.8,-214.66725,-375.40115,835.59991,-140.86433,-334.91562,775.18097,-128.47029,-262.59995,851.99847
98,0.808,-214.83844,-375.38824,835.69659,-140.94942,-334.9606,775.42523,-128.97505,-262.45651,852.04755
99,0.817,-215.01187,-375.31436,835.5697,-140.91321,-334.88409,775.70782,-129.00783,-262.35837,851.80005
100,0.825,-215.1709,-374.49158,835.54913,-140.91321,-334.88409,775.70782,-129.00783,-262.35837,851.80005
101,0.833,-215.1709,-374.49158,835.54913,-140.96568,-334.92419,775.89117,-128.91714,-261.87668,851.00494
102,0.842,-215.36613,-374.49719,835.62726,-140.95969,-334.42776,776.40594,-129.54883,-262.04373,851.11694
103,0.85,-215.52441,-373.67432,835.60681,-141.08307,-334.06219,776.20734,-129.63124,-261.56717,850.93317
104,0.858,-215.52441,-373.67432,835.60681,-141.21529,-333.70432,775.85455,-129.74428,-261.6228,851.13696
105,0.867,-215.6371,-373.63916,835.52625,-141.10657,-333.55997,776.00555,-129.79915,-260.72812,851.18787
106,0.875,-215.6371,-373.63916,835.52625,-141.14069,-333.35275,775.65497,-129.49858,-261.11008,851.00385
107,0.883,-215.6371,-373.63916,835.52625,-141.26791,-333.49716,775.42157,-129.80946,-260.60822,850.82202
108,0.892,-215.79407,-373.59802,835.03308,-141.26791,-333.49716,775.42157,-129.74454,-260.61868,850.6712
109,0.9,-215.79407,-373.59802,835.03308,-141.26791,-333.49716,775.42157,-129.74454,-260.61868,850.6712
110,0.908,-215.73396,-373.64609,835.43488,-141.39484,-333.39273,775.14386,-129.74454,-260.61868,850.6712
111,0.917,-215.59885,-373.59244,834.95496,-141.39484,-333.39273,775.14386,-129.74454,-260.61868,850.6712
112,0.925,-215.59885,-373.59244,834.95496,-141.39484,-333.39273,775.14386,-129.74454,-260.61868,850.6712
113,0.933,-215.59885,-373.59244,834.95496,-141.35287,-333.34421,774.93707,-129.73943,-260.97134,850.61346
114,0.942,-215.50378,-373.55234,834.77185,-141.39484,-333.39273,775.14386,-129.58142,-261.25772,850.60187
115,0.95,-215.50378,-373.55234,834.77185,-141.35287,-333.34421,774.93707,-129.58142,-261.25772,850.60187
116,0.958,-215.50378,-373.55234,834.77185,-141.42444,-333.05338,774.77875,-129.62006,-260.93164,850.78583
117,0.967,-215.50378,-373.55234,834.77185,-141.35287,-333.34421,774.93707,-129.62006,-260.93164,850.78583
118,0.975,-215.59885,-373.59244,834.95496,-141.36288,-333.19339,774.63184,-129.62006,-260.93164,850.78583
119,0.983,-215.48944,-373.81805,834.94635,-141.42444,-333.05338,774.77875,-129.75215,-261.18869,850.83832
120,0.992,-215.67899,-373.83029,835.01904,-141.4664,-333.10193,774.9856,-129.87672,-261.11975,850.95111
121,1,-215.98901,-373.71243,835.05304,-141.57925,-333.54703,775.11694,-129.87672,-261.11975,850.95111
122,1.008,-215.98901,-373.71243,835.05304,-141.65942,-333.5751,775.27911,-129.70178,-261.60889,851.10449
123,1.017,-216.34962,-373.85526,835.05267,-141.83264,-333.58499,775.35303,-130.04414,-261.3624,851.2901
124,1.025,-216.58775,-373.78583,834.9975,-141.83264,-333.58499,775.35303,-130.35176,-260.7482,851.30835
125,1.033,-216.45847,-374.0405,834.97552,-141.83264,-333.58499,775.35303,-130.35176,-260.7482,851.30835
126,1.042,-216.34962,-373.85526,835.05267,-142.29951,-334.01068,775.6225,-130.46977,-261.70105,851.71893
127,1.05,-216.60077,-373.86276,835.30035,-142.86029,-334.47949,776.19147,-130.50014,-261.14032,851.66962
128,1.058,-216.81259,-373.83652,835.65778,-142.84459,-334.5452,776.4151,-130.68977,-260.12036,851.8299
129,1.067,-216.86072,-373.73236,835.93811,-142.84459,-334.5452,776.4151,-131.00861,-259.96262,851.79181
130,1.075,-216.86072,-373.73236,835.93811,-142.84459,-334.5452,776.4151,-131.00861,-259.96262,851.79181
131,1.083,-217.30365,-373.76022,835.95203,-142.72858,-334.37326,776.53595,-131.00861,-259.96262,851.79181
132,1.092,-217.30365,-373.76022,835.95203,-142.72858,-334.37326,776.53595,-131.00861,-259.96262,851.79181
133,1.1,-217.30365,-373.76022,835.95203,-142.71365,-334.88324,776.5835,-131.21104,-260.54901,851.75769
134,1.108,-217.30365,-373.76022,835.95203,-142.65677,-334.66397,776.69415,-131.21104,-260.54901,851.75769
135,1.117,-217.30365,-373.76022,835.95203,-142.64189,-335.17392,776.7417,-131.21104,-260.54901,851.75769
136,1.125,-217.42451,-373.83255,836.31799,-142.63504,-335.41959,776.79144,-130.67104,-262.25687,851.92749
137,1.133,-217.39777,-373.78387,836.11755,-142.51901,-335.24765,776.91229,-130.78168,-261.59348,852.15491
138,1.142,-217.4321,-373.96518,836.56195,-142.51901,-335.24765,776.91229,-130.67104,-262.25687,851.92749
139,1.15,-217.40535,-373.9166,836.36151,-142.63504,-335.41959,776.79144,-130.89368,-261.77808,851.87488
140,1.158,-217.40535,-373.9166,836.36151,-142.51901,-335.24765,776.91229,-130.93422,-261.65448,852.28662
141,1.167,-217.35493,-374.08273,836.30737,-142.64517,-335.20773,777.00079,-130.54335,-262.11465,852.17157
142,1.175,-217.4321,-373.96518,836.56195,-142.64517,-335.20773,777.00079,-130.39423,-262.37595,852.04333
143,1.183,-217.40535,-373.9166,836.36151,-142.51901,-335.24765,776.91229,-130.4614,-261.63907,852.41541
144,1.192,-217.40535,-373.9166,836.36151,-142.64517,-335.20773,777.00079,-130.524,-261.4639,852.87817
145,1.2,-217.63281,-373.93054,836.60223,-142.64517,-335.20773,777.00079,-130.524,-261.4639,852.87817
146,1.208,-217.5936,-373.88785,836.41327,-142.60672,-335.09872,777.1012,-130.8089,-261.28976,852.76489
147,1.217,-217.5936,-373.88785,836.41327,-142.60672,-335.09872,777.1012,-131.01082,-260.73502,852.66125
148,1.225,-217.5936,-373.88785,836.41327,-142.60672,-335.09872,777.1012,-131.01082,-260.73502,852.66125
149,1.233,-217.5936,-373.88785,836.41327,-142.60672,-335.09872,777.1012,-130.8089,-261.28976,852.76489
150,1.242,-217.63281,-373.93054,836.60223,-142.62178,-334.89243,777.36206,-131.14542,-260.90695,852.9176
151,1.25,-217.63742,-373.75781,836.72229,-142.62178,-334.89243,777.36206,-131.21655,-260.15756,852.84448
152,1.258,-217.73433,-373.66898,836.83179,-142.89651,-334.33337,777.33673,-131.27455,-259.62302,853.31476
153,1.267,-217.73433,-373.66898,836.83179,-142.89651,-334.33337,777.33673,-131.69868,-259.43936,853.36761
154,1.275,-217.73433,-373.66898,836.83179,-143.55197,-334.13651,777.12982,-131.69868,-259.43936,853.36761
155,1.283,-217.69513,-373.62634,836.64282,-143.55197,-334.13651,777.12982,-132.07275,-259.53006,853.17102
156,1.292,-217.69513,-373.62634,836.64282,-143.55197,-334.13651,777.12982,-132.23343,-259.44025,853.07397
157,1.3,-217.68755,-373.49365,836.39886,-143.55197,-334.13651,777.12982,-132.46402,-259.26813,852.96423
158,1.308,-217.59062,-373.58243,836.28937,-143.32274,-334.20242,777.19196,-132.46402,-259.26813,852.96423
159,1.317,-217.59062,-373.58243,836.28937,-143.55197,-334.13651,777.12982,-132.20688,-259.49121,852.78625
160,1.325,-217.58603,-373.75516,836.16931,-143.55197,-334.13651,777.12982,-132.44402,-259.78119,852.26978
161,1.333,-217.58603,-373.75516,836.16931,-143.64291,-333.81754,776.83191,-132.13455,-259.80731,852.72321
162,1.342,-217.83876,-373.58252,835.70355,-143.64291,-333.81754,776.83191,-131.7937,-260.41083,852.3515
163,1.35,-217.64943,-373.61847,835.44427,-143.26379,-334.19598,777.12408,-131.66969,-260.53909,852.21844
164,1.358,-217.64619,-373.70734,835.7674,-143.53677,-334.34286,776.86896,-131.33699,-260.56598,852.42181
165,1.367,-217.69232,-373.55872,835.2605,-143.017,-334.44077,776.82471,-131.33699,-260.56598,852.42181
166,1.375,-217.69232,-373.55872,835.2605,-143.01495,-334.4678,776.92004,-131.26588,-261.31525,852.495
167,1.383,-217.64619,-373.70734,835.7674,-143.72467,-334.224,776.58984,-131.26588,-261.31525,852.495
168,1.392,-217.9136,-373.53305,835.35107,-143.53677,-334.34286,776.86896,-131.14032,-261.14575,852.77222
169,1.4,-217.85341,-373.58105,835.75305,-143.60872,-334.05203,776.71075,-131.14542,-260.90695,852.9176
170,1.408,-217.86551,-373.49835,835.18317,-143.59358,-334.56219,776.7583,-131.34209,-260.32715,852.56726
171,1.417,-217.69232,-373.55872,835.2605,-142.85043,-333.9899,776.84607,-131.35536,-260.04321,852.97607
172,1.425,-217.64619,-373.70734,835.7674,-143.32274,-334.20242,777.19196,-131.35536,-260.04321,852.97607
173,1.433,-217.64619,-373.70734,835.7674,-143.15643,-334.28433,777.35889,-131.40747,-259.54459,853.43372
174,1.442,-217.64619,-373.70734,835.7674,-143.24731,-333.96552,777.06104,-131.53499,-259.68707,853.18945
175,1.45,-217.59062,-373.58243,836.28937,-143.38109,-334.21722,777.28931,-131.52965,-259.08011,853.35895
176,1.458,-217.68755,-373.49365,836.39886,-143.55197,-334.13651,777.12982,-131.52965,-259.08011,853.35895
177,1.467,-217.92685,-373.54419,836.76807,-143.60457,-333.70868,776.93237,-131.63208,-258.89215,853.38538
178,1.475,-217.72675,-373.53638,836.58789,-143.39781,-333.94604,777.44067,-131.93994,-258.66312,853.49286
179,1.483,-217.72675,-373.53638,836.58789,-143.39781,-333.94604,777.44067,-132.09418,-258.50244,853.45026
180,1.492,-217.72675,-373.53638,836.58789,-143.17313,-334.01315,777.51025,-132.09418,-258.50244,853.45026
181,1.5,-217.72675,-373.53638,836.58789,-143.17313,-334.01315,777.51025,-132.09418,-258.50244,853.45026
182,1.508,-217.72675,-373.53638,836.58789,-142.91319,-334.06223,777.48816,-132.16243,-258.54437,853.25311
183,1.517,-217.73248,-373.63458,836.21521,-143.17313,-334.01315,777.51025,-132.16243,-258.54437,853.25311
184,1.525,-217.86343,-373.68082,836.7688,-143.17313,-334.01315,777.51025,-132.30582,-258.49265,853.58728
185,1.533,-217.73433,-373.66898,836.83179,-143.17313,-334.01315,777.51025,-132.09418,-258.50244,853.45026
186,1.542,-217.91928,-373.41156,836.52411,-143.17313,-334.01315,777.51025,-132.09418,-258.50244,853.45026
187,1.55,-217.91928,-373.41156,836.52411,-142.65332,-334.11136,777.46594,-131.93994,-258.66312,853.49286
188,1.558,-217.91928,-373.41156,836.52411,-142.42867,-334.17865,777.53552,-131.69331,-258.71494,853.44525
189,1.567,-217.72675,-373.53638,836.58789,-142.65332,-334.11136,777.46594,-131.40204,-258.82025,853.51135
190,1.575,-217.91928,-373.41156,836.52411,-142.65332,-334.11136,777.46594,-131.40204,-258.82025,853.51135
