Frame#,Time,L.Forearm.x,L.Forearm.y,L.Forearm.z,L.Ulna.x,L.Ulna.y,L.Ulna.z,L.Radius.x,L.Radius.y,L.Radius.z
1,0,168.76375,246.70915,1048.41357,256.94479,306.3223,1037.39771,334.53171,228.66673,1041.54333
2,0.008,167.27014,248.31015,1054.32605,253.89818,311.38278,1044.1803,332.50412,234.23587,1048.8595
3,0.017,165.70293,249.90962,1059.60315,252.81367,314.84357,1051.36157,332.33847,237.8952,1056.18506
4,0.025,163.32466,253.28543,1064.43945,249.83446,317.51135,1058.35339,330.26099,241.23497,1063.56665
5,0.033,161.73305,254.33914,1069.52502,247.97517,320.21112,1065.06738,328.19226,245.40329,1071.07324
6,0.042,159.81468,257.1301,1075.74292,245.21136,323.55692,1071.69312,325.88864,247.14752,1081.2561
7,0.05,157.36467,258.77332,1081.56421,243.03719,325.17151,1079.13416,323.55496,251.61359,1088.1582
8,0.058,156.41295,260.65668,1087.92798,241.09801,327.26392,1086.14209,323.50806,254.25931,1096.84644
9,0.067,153.70499,261.52365,1092.70605,237.93756,329.6452,1093.43018,320.89661,256.64764,1104.80444
10,0.075,151.48056,263.06662,1098.49951,236.04062,330.49329,1099.64648,317.11078,258.45157,1111.44568
11,0.083,149.1427,263.41031,1103.10437,233.2542,331.53589,1106.79749,315.35632,258.49377,1120.11572
12,0.092,146.98418,263.18591,1108.70508,230.49286,332.62531,1113.71033,313.60242,258.60028,1129.26196
13,0.1,143.40706,264.93155,1113.84778,227.99905,332.82123,1119.94824,309.1076,258.78598,1137.80017
14,0.108,141.73235,264.42032,1119.35059,225.63795,332.50375,1126.65308,306.10553,258.95798,1145.24011
15,0.117,139.992,264.86066,1125.17078,223.74153,333.04996,1133.81787,303.36008,259.43799,1152.46716
16,0.125,136.97191,263.87427,1129.21423,220.72304,331.51019,1140.92456,302.00223,259.58386,1159.98145
17,0.133,134.49506,263.42834,1133.50171,218.23839,331.11966,1146.68787,299.11877,259.1882,1166.87366
18,0.142,131.38147,262.84671,1138.45862,215.80722,330.11044,1153.06604,295.9801,257.35416,1173.61145
19,0.15,130.11385,262.35025,1143.28479,213.74931,329.57343,1158.74353,290.64471,253.51442,1183.44458
20,0.158,127.49747,261.33124,1147.29541,211.19797,327.99106,1164.73157,288.43329,251.92903,1190.29321
21,0.167,125.99791,259.20288,1151.32129,208.52174,325.6517,1171.35828,285.74115,249.23936,1196.91455
22,0.175,123.9076,257.33624,1156.12219,206.67885,324.16928,1177.20374,283.37576,247.62767,1203.86475
23,0.183,120.59444,257.1821,1159.52087,203.87781,321.75497,1182.4729,280.29791,244.10652,1209.81555
24,0.192,119.52018,254.87459,1164.35913,202.27139,318.96255,1187.34167,277.57062,240.71593,1216.30652
25,0.2,117.22886,252.51898,1167.6709,201.21628,316.9455,1191.72046,272.72919,238.32982,1222.52856
26,0.208,114.456,251.00293,1171.40295,198.54051,313.52591,1197.4519,270.98431,233.50105,1227.64941
27,0.217,113.3196,249.96532,1174.30322,197.86665,310.85901,1202.09448,269.04932,230.60338,1233.80725
28,0.225,110.79643,247.01814,1177.64966,196.05035,307.69244,1206.05615,265.23236,226.15588,1239.55176
29,0.233,108.74717,245.59019,1181.27002,194.24608,303.69278,1210.94629,263.04276,222.16547,1244.59143
30,0.242,107.17294,242.24362,1184.66077,193.43433,300.67737,1216.17102,260.28946,217.32817,1249.69763
31,0.25,106.96073,239.4169,1188.12183,191.82542,296.66357,1220.13245,256.92017,213.36394,1255.00232
32,0.258,104.63809,235.37646,1190.4458,190.65121,292.67224,1224.63025,254.68266,208.63887,1259.0957
33,0.267,103.51928,233.74878,1193.08093,189.75618,288.92038,1228.87085,251.63275,203.49738,1263.64954
34,0.275,102.24574,229.56305,1195.99731,188.53123,283.42316,1232.87158,248.69777,197.46106,1269.14392
35,0.283,100.54944,227.09941,1198.98682,187.50317,280.17422,1236.57336,245.09843,192.84215,1273.56555
36,0.292,100.2513,222.93489,1201.6156,186.69708,274.91809,1240.32971,243.76965,186.26434,1278.33862
37,0.3,98.76256,220.24637,1204.47083,186.09181,270.14648,1243.79419,242.08072,181.70569,1280.70984
38,0.308,98.23332,216.77567,1206.40515,185.07152,265.09665,1247.43408,238.33464,175.98112,1285.75562
39,0.317,97.02327,212.80284,1208.89624,183.92441,259.8096,1250.79053,236.52896,169.62462,1289.34155
40,0.325,95.83145,209.30099,1211.29236,183.49261,255.43716,1253.95544,234.19792,162.86559,1293.65588
41,0.333,94.06945,206.21613,1212.62268,182.38481,250.18195,1257.53027,231.14439,156.83974,1295.09216
42,0.342,93.81681,200.62976,1214.82556,182.4743,244.44218,1260.48914,227.82701,150.58382,1298.57788
43,0.35,92.76178,198.47641,1216.26038,181.04985,239.57111,1262.54553,225.39729,144.2233,1300.78955
44,0.358,91.37392,193.77438,1218.18213,180.00516,233.91118,1265.15527,223.09297,137.93102,1303.08667
45,0.367,90.969,190.34923,1218.43018,179.16872,228.3455,1266.84644,221.21645,131.41344,1304.96765
46,0.375,90.19509,186.02682,1219.27344,178.87601,223.20647,1269.20508,218.24188,124.94024,1306.49597
47,0.383,89.2492,182.00275,1220.21704,177.91962,217.72105,1270.95239,215.89207,118.82158,1307.67419
48,0.392,88.6519,178.45848,1220.84155,177.3582,211.92464,1272.34277,213.0361,113.47032,1307.94812
49,0.4,87.22559,174.97141,1220.94714,176.79146,205.93706,1273.33313,210.37888,105.99093,1308.86157
50,0.408,87.25876,170.04767,1221.62292,175.78769,200.64258,1273.75574,209.22835,100.36321,1309.1969
51,0.417,86.61012,167.59657,1221.42737,175.76414,195.24861,1274.72131,207.16821,93.83044,1309.63855
52,0.425,85.54374,163.04227,1221.81946,175.30891,189.31036,1275.99524,205.38693,86.97168,1309.11438
53,0.433,85.89198,159.38606,1220.79773,175.50211,184.42661,1275.59814,203.1328,81.23246,1308.70337
54,0.442,85.83524,154.51837,1220.77222,174.51135,178.76604,1275.95886,200.591,75.94389,1308.22314
55,0.45,85.61971,151.75436,1219.71045,174.89827,174.19633,1276.14917,199.90253,68.4374,1308.01978
56,0.458,85.06065,148.78104,1218.72021,176.02977,168.75803,1275.45923,199.17216,64.05931,1306.50537
57,0.467,86.15268,143.51035,1218.19458,175.50708,163.27922,1273.37305,196.28394,58.6188,1305.32397
58,0.475,85.42343,139.77953,1217.14807,175.63005,158.05707,1272.99207,195.0695,52.95173,1304.01843
59,0.483,85.20811,137.7439,1215.64136,175.79243,152.94302,1272.55981,194.2598,46.93044,1302.81604
60,0.492,85.77833,133.32315,1213.70862,175.59427,148.50249,1271.85132,194.08963,43.12513,1300.46814
61,0.5,86.61454,130.02626,1212.28442,176.51352,143.68027,1269.73511,192.17827,37.18111,1299.3573
62,0.508,86.79074,127.8226,1210.97913,176.39012,139.19078,1268.60925,191.17186,32.76373,1297.39441
63,0.517,86.21033,124.47633,1209.63708,177.27188,134.6692,1267.25122,191.57874,27.86207,1295.34888
64,0.525,88.14463,120.02042,1208.07922,177.43759,130.56787,1265.51025,189.38239,23.58856,1293.2207
65,0.533,88.4232,118.01723,1206.16785,178.24973,126.585,1263.44641,188.64458,20.37158,1290.54224
66,0.542,88.07197,115.70778,1203.99255,179.58435,122.29379,1261.50195,189.47598,14.70862,1288.65381
67,0.55,89.81568,111.77164,1202.58289,180.00572,119.08371,1259.06738,188.72171,11.57537,1287.41296
68,0.558,90.4353,110.63799,1201.17688,181.73839,115.33794,1256.36328,187.58803,8.23503,1284.31104
69,0.567,90.30432,106.8042,1198.09448,182.838,112.27324,1254.05554,187.95859,3.99057,1281.47742
70,0.575,91.33134,105.61105,1196.6604,184.48773,108.86187,1251.35693,188.84464,-0.15939,1278.26831
71,0.583,93.84464,102.98061,1195.03943,185.52809,104.9257,1248.72717,188.08345,-3.74558,1275.22571
72,0.592,94.47655,101.15,1193.00964,186.86528,100.25432,1245.5658,190.00606,-7.361,1272.47632
73,0.6,94.38835,99.47581,1190.20801,188.19949,97.52486,1242.23279,190.79565,-10.73715,1269.03748
74,0.608,96.35882,95.01105,1188.12305,190.01517,95.55673,1239.79736,191.51891,-14.63325,1264.96863
75,0.617,96.85268,92.37486,1185.3385,191.06169,90.88344,1236.3905,193.21889,-17.94207,1262.22644
76,0.625,98.11823,91.21744,1182.58484,192.18561,88.14328,1233.67749,193.6001,-20.31921,1257.43762
77,0.633,100.61249,87.44578,1180.80957,194.78455,85.04895,1229.57983,195.20888,-25.72859,1254.13269
78,0.642,101.24224,86.41155,1176.59253,196.15822,81.76415,1226.25146,196.06198,-27.18991,1249.4718
79,0.65,101.89816,84.33147,1174.16882,197.10744,79.58486,1222.99072,198.1848,-30.10661,1245.06836
80,0.658,102.99625,82.33887,1171.91162,198.94164,76.16895,1219.07312,199.87381,-33.1936,1241.35364
81,0.667,104.64844,79.52074,1168.38745,200.81544,73.26053,1214.86768,200.49207,-35.11568,1236.39038
82,0.675,105.32572,77.7592,1165.00232,201.91438,71.12783,1210.50403,202.54681,-39.2973,1231.48804
83,0.683,107.10579,74.75896,1162.58167,204.72739,69.01953,1205.72693,203.57869,-41.36804,1226.49951
84,0.692,108.7678,74.42236,1157.74768,205.90852,66.23611,1201.5415,203.11646,-42.68152,1222.03723
85,0.7,109.48026,72.48872,1155.94946,207.88759,63.9969,1197.24426,206.10153,-45.83251,1217.71777
86,0.708,110.84695,71.05661,1151.52185,210.0835,62.06534,1192.00146,208.17401,-47.40016,1211.97644
87,0.717,113.70899,69.59303,1148.30176,212.06145,59.69532,1187.02673,209.37834,-49.1353,1207.9491
88,0.725,114.67747,66.97678,1144.68591,213.92993,57.92089,1182.25391,212.08754,-52.62501,1202.25989
89,0.733,115.2977,67.62169,1141.57971,215.10974,55.43316,1177.63403,213.17686,-53.38732,1196.34595
90,0.742,117.27934,65.0593,1137.84485,217.71997,53.50679,1172.5968,215.3129,-56.51209,1191.45203
91,0.75,118.57418,62.6314,1135.32837,218.8645,51.26149,1167.04468,217.50769,-59.10969,1185.99548
92,0.758,120.09785,61.54387,1130.44482,221.33176,48.47243,1161.92456,218.75133,-61.04771,1180.37195
93,0.767,121.46581,58.69313,1126.59753,222.4696,47.12069,1157.00317,221.4216,-63.82903,1174.8092
94,0.775,123.09665,57.11531,1123.07239,225.03889,44.66069,1151.67529,222.18021,-65.203,1169.05103
95,0.783,123.97542,55.49881,1119.91406,225.94193,43.35279,1146.77454,224.7222,-66.55735,1164.93958
96,0.792,125.14097,53.84384,1117.21826,227.92979,41.36129,1141.67078,226.95256,-69.52831,1159.05176
97,0.8,126.02737,52.87718,1113.40674,230.00194,39.73085,1136.86536,228.24654,-71.1811,1152.87244
98,0.808,127.90885,50.45616,1110.0835,231.80757,37.4468,1131.84717,231.0739,-72.63277,1147.54065
99,0.817,130.08563,49.62235,1106.21289,233.61433,36.11841,1126.65198,232.8569,-74.58677,1141.74182
100,0.825,129.76561,48.77097,1103.16553,234.4225,35.43073,1121.61877,234.26102,-75.16807,1136.54749
101,0.833,131.69533,47.65338,1099.84583,236.61424,33.98766,1116.36658,236.2487,-76.62435,1131.50781
102,0.842,133.79993,45.40945,1095.80408,238.31004,32.42186,1112.33984,238.94962,-78.30453,1125.78601
103,0.85,134.145,44.59407,1093.11157,239.75046,31.57149,1107.15222,239.58842,-78.97276,1120.47693
104,0.858,135.20755,44.26147,1089.13477,240.4632,30.82093,1101.48315,242.30554,-80.70387,1115.45288
105,0.867,136.12959,43.71693,1085.66321,241.91185,29.71681,1097.39722,243.12656,-80.91701,1109.65137
106,0.875,137.88841,41.7769,1082.66052,242.69402,28.70671,1092.07202,244.60155,-81.85349,1103.1665
107,0.883,139.38487,40.36213,1078.93433,244.88007,27.66336,1087.22864,246.62122,-83.08508,1098.35413
108,0.892,139.414,39.45685,1075.07031,245.51793,27.0294,1082.4082,247.16292,-84.08043,1094
109,0.9,140.77927,39.96426,1072.67969,246.22014,27.08187,1076.85193,248.53444,-83.41259,1087.92688
110,0.908,141.86763,38.21839,1068.44153,248.51311,25.80112,1072.81421,250.74422,-84.5374,1083.59375
111,0.917,142.80984,39.10883,1066.52502,249.66266,25.44348,1068.00354,251.61641,-84.69587,1078.02173
112,0.925,143.30566,38.52218,1062.6322,250.27306,25.36789,1063.31616,253.84221,-86.06025,1072.59827
113,0.933,144.50833,36.93428,1059.63867,251.49547,24.98941,1058.41882,254.54805,-86.00005,1067.98206
114,0.942,145.73109,36.47894,1055.56775,252.25778,24.90631,1053.71289,256.27628,-85.58542,1063.29688
115,0.95,146.59389,35.63239,1053.16101,253.19739,25.00668,1049.31238,257.67136,-85.12045,1058.50635
116,0.958,146.84312,34.4654,1048.71594,254.07523,24.70147,1045.52576,259.69659,-85.48122,1054.48145
117,0.967,148.19363,35.1878,1045.61829,255.32785,24.5469,1040.19531,261.07608,-85.04764,1048.81714
118,0.975,148.88408,36.21601,1042.19043,256.73257,26.6404,1036.60938,262.46561,-84.21039,1044.01575
119,0.983,150.15211,36.8749,1039.55566,256.86432,26.61181,1031.92493,263.50406,-84.5213,1039.99658
120,0.992,151.31833,38.06425,1036.59985,257.66324,27.56786,1028.01575,265.06375,-82.33272,1035.59729
121,1,152.33281,38.20955,1033.07959,258.92953,27.94378,1023.86566,265.93008,-81.55165,1030.9458
122,1.008,153.12335,39.62898,1030.297,258.85211,29.21111,1018.96405,269.01102,-81.04312,1025.80811
123,1.017,153.87883,40.29971,1026.79895,260.30869,30.75051,1014.85138,269.2106,-80.47338,1021.32172
124,1.025,154.54245,39.76461,1024.11731,261.46643,32.37658,1011.78644,270.82523,-77.24026,1017.40271
125,1.033,154.85977,40.4212,1019.86462,261.20868,34.43605,1006.73425,271.4407,-74.54933,1012.58728
126,1.042,156.36786,42.65759,1018.2688,262.55002,35.76942,1003.15564,273.69342,-73.07298,1007.19177
127,1.05,157.0219,44.19553,1014.82043,263.54105,38.44872,999.62299,274.06638,-72.94637,1004.59106
128,1.058,158.02539,45.31044,1012.13239,263.34805,40.70988,994.89471,276.33826,-69.21461,999.73383
129,1.067,159.12456,47.4322,1009.21582,264.31247,42.15227,991.53345,277.61359,-66.78501,994.46362
130,1.075,159.57814,48.49092,1005.68469,265.0376,44.71873,987.15118,278.33203,-64.04251,989.29211
131,1.083,160.82738,49.92633,1004.03601,265.12354,47.34555,982.92627,280.16208,-61.72955,985.02374
132,1.092,162.03136,52.13507,1000.52521,266.39911,50.38352,978.92334,281.78583,-59.15253,981.39496
133,1.1,161.23836,54.53858,997.28625,266.62802,52.9475,975.08148,282.48987,-56.45932,976.62421
134,1.108,161.67017,56.72629,994.80267,266.64508,55.09,971.74823,284.65906,-51.50204,971.35632
135,1.117,162.87729,58.54226,992.55835,267.81674,58.89556,967.71185,285.7756,-51.05593,968.11841
136,1.125,164.37619,61.10701,989.09149,268.2309,61.42387,964.29974,286.89175,-49.34327,964.60254
137,1.133,165.0563,63.08688,987.2406,268.91675,65.64451,959.93127,288.77432,-43.389,959.52899
138,1.142,164.8817,65.03198,983.51257,268.85648,68.47677,957.60596,290.14938,-40.78834,956.04468
139,1.15,166.71243,66.95396,981.30908,269.86438,71.99787,953.6521,292.11105,-35.30053,952.88361
140,1.158,166.427,70.65376,979.13379,270.15878,75.37768,950.94928,292.71896,-33.7157,947.87677
141,1.167,166.63593,73.5846,976.54932,270.46298,79.20349,947.81207,293.71683,-29.93485,946.57501
142,1.175,167.33496,77.27179,974.56488,271.34192,83.41909,944.74146,294.92709,-23.59166,942.06085
143,1.183,168.70091,79.88719,972.67749,271.47321,87.29605,942.70502,296.72141,-22.02211,940.41266
144,1.192,169.12195,82.70448,970.43304,271.67023,92.08958,940.10327,297.35724,-16.71224,936.61292
145,1.2,169.12637,86.43639,968.85333,271.31311,96.1558,938.15057,298.47687,-9.53249,933.6358
146,1.208,169.686,90.38508,966.68671,272.17511,100.79482,935.8869,300.2981,-6.69696,931.2984
147,1.217,170.424,93.77795,965.8938,272.46625,105.97585,934.1651,302.09097,-1.10655,929.63702
148,1.225,171.11975,96.30671,965.09833,272.23355,110.41763,932.39917,302.2388,5.03059,927.44397
149,1.233,170.99089,99.97555,964.16943,272.64703,115.61143,932.03558,305.944,9.98457,925.59222
150,1.242,171.39908,104.71865,963.45038,272.93643,120.24358,931.58228,305.35611,14.82279,924.48126
151,1.25,172.45459,107.37463,962.08337,273.30139,124.82418,930.44189,307.58853,21.70929,922.01556
152,1.258,173.01823,111.38647,961.91016,273.43454,129.72577,929.85181,309.16379,27.12427,921.24945
153,1.267,172.2368,115.93839,960.93988,273.41602,135.85313,929.16412,310.78284,32.98628,920.255
154,1.275,173.11162,119.70828,961.30725,273.43408,140.39169,928.75909,310.82327,37.98236,920.50562
155,1.283,174.18538,122.9949,961.13159,274.01959,146.70146,929.16888,313.76266,42.3366,920.75555
156,1.292,172.87044,127.91898,961.27191,274.35281,151.83235,929.13745,314.59445,50.02245,920.59387
157,1.3,174.3279,132.03583,961.4928,274.80566,157.23367,929.25354,316.4173,55.8242,920.94275
158,1.308,174.37642,135.24915,961.78082,274.13962,162.47523,929.74554,317.00458,59.53772,921.26367
159,1.317,176.15025,139.82498,961.94672,273.82965,167.49719,931.17749,318.46616,68.29039,921.5932
160,1.325,174.763,143.47963,962.84802,274.42126,173.68616,931.35413,319.78598,72.74091,923.17389
161,1.333,175.96773,147.91855,963.62109,273.82016,179.1545,932.49811,321.2226,79.96294,924.09424
162,1.342,176.51884,151.59705,965.18158,273.81934,185.15291,933.67578,322.06927,85.99638,925.07104
163,1.35,176.48981,156.80783,966.31897,273.76782,190.33531,935.40997,324.54688,91.76473,927.00171
164,1.358,176.12576,160.04994,968.12805,273.84003,196.47014,937.21008,324.59439,99.01966,929.54736
165,1.367,177.16756,165.05344,969.51703,273.14587,201.96709,938.99805,325.43277,105.73787,930.98181
166,1.375,176.20126,169.69086,971.12622,272.50143,207.14545,940.09857,327.57364,112.71414,932.13007
167,1.383,175.69995,173.82375,973.21045,272.267,212.10907,942.75635,327.34006,118.87037,934.27887
168,1.392,176.14055,177.24773,975.08478,271.49884,217.17644,944.61542,328.74539,123.06103,938.36072
169,1.4,175.3452,182.77852,977.41705,271.23709,222.86998,947.77649,329.74988,129.70815,940.32751
170,1.408,175.9334,186.17381,978.64807,270.3356,229.11729,950.49139,330.82492,136.60086,943.27716
171,1.417,175.6111,189.7224,982.05188,269.61398,234.58754,952.99597,330.1152,142.86856,946.04962
172,1.425,174.81145,194.84222,983.80518,268.98196,238.36533,957.00409,330.32617,148.18097,949.91528
173,1.433,174.49904,197.989,986.28192,268.43445,244.51714,959.94733,331.31833,152.74004,953.56366
174,1.442,174.46667,201.83388,989.65466,267.82068,248.97513,963.62549,329.82266,159.25323,958.49072
175,1.45,173.34103,205.51007,991.99341,267.24695,253.85634,967.01239,331.9949,165.68584,961.73456
176,1.458,172.90962,209.0594,996.10229,265.34589,258.52628,971.3941,331.69614,170.41727,967.10809
177,1.467,172.51453,213.10193,998.21808,264.87677,263.05206,975.75214,332.20245,175.70493,970.06696
178,1.475,171.37149,216.60362,1002.10559,264.23199,267.75867,980.4093,332.57376,180.18663,975.7641
179,1.483,170.69943,220.32123,1005.75403,263.10449,271.89154,984.34949,331.20999,186.31367,981.18781
180,1.492,170.13129,222.89911,1010.57837,261.57639,275.31747,989.63983,331.2691,190.1797,986.4754
181,1.5,168.62074,227.36575,1013.08344,260.55682,280.49939,994.90942,332.46585,194.55644,992.00629
182,1.508,167.82941,229.02887,1018.38245,259.6626,283.99643,1001.20245,329.8703,200.3456,998.18591
183,1.517,166.65672,232.41292,1022.72211,258.63849,288.36008,1006.01495,328.93695,204.93094,1005.28601
184,1.525,165.24821,235.64783,1027.09949,256.74481,292.23618,1013.02777,328.46494,209.25218,1012.04156
185,1.533,164.1837,238.34654,1030.96045,254.54076,295.25726,1018.84412,327.58139,213.13353,1019.3252
186,1.542,163.13867,240.33896,1035.93628,253.14192,299.53091,1024.91516,327.42133,215.66098,1027.15649
187,1.55,161.03479,244.45164,1041.43433,251.42737,302.98889,1031.55164,324.19785,220.78543,1034.19458
188,1.558,159.54756,246.27191,1046.73621,249.11662,305.25406,1038.23853,324.36859,224.35219,1041.49841
189,1.567,158.1624,248.2032,1051.66907,248.1835,309.14154,1044.86658,323.26959,226.25381,1050.81848
190,1.575,155.85397,252.13551,1057.38855,245.82372,310.90512,1051.61401,320.7037,231.47841,1058.4762
191,1.583,154.76834,252.494,1062.26953,243.65355,314.1803,1059.12769,319.31769,232.25757,1066.61267
192,1.592,152.10645,254.6356,1067.96448,241.43204,316.67557,1066.09167,316.66165,235.89844,1074.18982
193,1.6,150.52303,255.94688,1073.67139,239.48441,317.19385,1072.86682,315.85349,238.36465,1081.56055
194,1.608,148.17006,257.94229,1079.36572,237.14856,319.74683,1079.96387,313.65329,239.47282,1091.8623
195,1.617,147.57025,259.28662,1085.3623,234.79367,321.88757,1087.71533,311.10748,242.45117,1100.8197
196,1.625,144.98447,260.6124,1090.13599,233.27425,322.85449,1094.47119,308.16559,244.0943,1108.12817
197,1.633,142.82072,260.87213,1095.84119,230.64159,324.33752,1101.31189,307.62436,244.80833,1116.16541
198,1.642,140.44119,261.74252,1101.47278,228.1282,325.29849,1109.36328,306.06689,246.28577,1124.09607
199,1.65,139.04678,262.38391,1106.88733,226.243,326.43484,1115.72754,301.18933,246.77316,1134.08948
200,1.658,136.66319,263.21436,1112.60925,223.47083,326.04919,1121.93896,299.18115,246.76947,1141.6156
