Frame#,Time,L.Forearm.x,L.Forearm.y,L.Forearm.z,L.Ulna.x,L.Ulna.y,L.Ulna.z,L.Radius.x,L.Radius.y,L.Radius.z
1,0,60.18388,344.30118,1050.48608,165.31274,367.73959,1067.07617,196.513,269.98642,1088.75
2,0.008,59.21172,346.28796,1051.62634,163.58319,368.94189,1068.83215,194.48276,271.35657,1090.20337
3,0.017,58.7274,346.26169,1053.11768,163.34427,370.34549,1070.59485,194.03342,272.332,1092.74231
4,0.025,58.12867,347.28275,1054.5946,162.11247,372.3653,1072.70447,193.84724,273.95532,1094.8396
5,0.033,57.47626,347.48734,1055.50293,161.26695,373.3382,1074.28894,193.76445,275.00549,1096.57532
6,0.042,56.41766,349.24359,1057.28699,160.31003,375.18805,1076.18445,193.46205,277.20969,1098.65503
7,0.05,55.74131,350.04221,1058.22791,159.85077,376.65692,1077.88647,192.14532,279.25452,1101.43079
8,0.058,55.30537,350.78516,1059.35156,158.47675,377.88251,1079.81177,191.86235,281.17819,1102.31677
9,0.067,54.2836,351.90906,1061.09192,157.37349,378.33398,1081.10205,191.54126,282.70093,1104.06641
10,0.075,53.7328,352.76074,1062.46204,156.55176,380.22537,1083.24329,191.26457,284.25418,1107.50879
11,0.083,53.39048,353.905,1064.58044,155.72739,381.74719,1085.26929,190.92514,284.18414,1108.94653
12,0.092,52.28445,354.63351,1065.47546,155.00554,383.03766,1086.68738,190.27731,285.42694,1109.78735
13,0.1,50.73633,356.09949,1066.73621,154.46828,383.86472,1088.97021,190.72327,286.92599,1111.28418
14,0.108,50.86952,356.88882,1068.73035,153.70061,385.39786,1091.53333,189.80757,289.18997,1113.92615
15,0.117,49.91657,358.10397,1069.97766,152.80859,385.81213,1093.04626,188.31737,290.22891,1116.08179
16,0.125,49.62918,357.83829,1071.61487,152.05571,386.27655,1095.01672,188.47607,290.50925,1117.5531
17,0.133,48.98874,358.18881,1072.95178,150.87639,387.82251,1097.55505,187.95485,290.78412,1118.98962
18,0.142,48.51174,358.62338,1074.32434,150.55714,387.44583,1099.75012,187.33185,291.41895,1121.12915
19,0.15,48.06133,358.11221,1076.87122,149.49229,388.46393,1101.01538,187.29387,292.5062,1122.79578
20,0.158,47.36022,358.85944,1078.78015,148.6534,389.24573,1104.13232,186.84155,292.83777,1124.09277
21,0.167,46.05273,359.62027,1079.87732,147.51389,389.07104,1105.57178,186.68712,292.79749,1125.54578
22,0.175,45.58514,359.71808,1081.05713,146.68318,389.88705,1107.39929,184.78049,294.31122,1127.37891
23,0.183,44.97874,359.19754,1083.20374,145.84137,390.17395,1109.40991,185.19714,293.33127,1129.67871
24,0.192,44.24313,359.15186,1084.23206,145.28598,390.90482,1111.48254,184.25897,294.93396,1131.34631
25,0.2,44.3639,359.49106,1085.13818,144.09178,390.18286,1113.27686,182.29999,294.97476,1132.72083
26,0.208,42.53302,360.21793,1086.13293,143.74184,390.94614,1114.82117,180.7411,294.7962,1135.75488
27,0.217,42.87173,359.14359,1086.76282,142.3504,391.7226,1116.60742,180.24791,294.5481,1136.70056
28,0.225,42.44872,359.78256,1088.57715,141.68629,392.21075,1118.53247,180.56679,295.14468,1138.34058
29,0.233,41.15421,360.89484,1089.57153,141.93303,392.89899,1119.65198,180.45329,296.30231,1139.7572
30,0.242,40.81779,361.20956,1090.95325,139.90965,393.18561,1121.60437,179.01953,295.72217,1142.77905
31,0.25,40.57815,360.4079,1092.07324,139.62669,394.06641,1123.69299,178.99603,297.12738,1143.97351
32,0.258,40.69298,361.25629,1093.19568,138.29414,394.83093,1124.49756,178.35605,298.32858,1145.55164
33,0.267,40.2551,362.17569,1093.98438,137.75056,395.22873,1126.47095,177.5038,299.93442,1147.30371
34,0.275,39.05584,363.32922,1095.73059,137.76721,395.3439,1128.35974,175.96831,300.84644,1149.69458
35,0.283,38.96295,363.45697,1096.81091,137.46025,396.64029,1130.78577,175.69397,301.55753,1151.0946
36,0.292,38.12153,363.62143,1098.30396,136.12398,397.49216,1131.57715,175.96021,301.76276,1151.91333
37,0.3,36.92758,364.69492,1098.34448,135.96117,399.34482,1133.34143,175.58119,304.68118,1153.67529
38,0.308,37.7611,365.75809,1100.49109,134.72794,400.32855,1134.53687,175.34109,304.54462,1156.52734
39,0.317,37.60752,366.18219,1101.86902,134.56044,401.87375,1136.31177,175.23389,305.80969,1157.92395
40,0.325,36.20215,367.6813,1102.73694,133.62099,402.71722,1137.8894,175.52547,306.58026,1158.29492
41,0.333,36.87541,368.06314,1103.93066,132.83403,403.43533,1138.9624,175.39406,308.6698,1159.8252
42,0.342,35.7493,368.51517,1105.11731,132.27129,403.94571,1140.54053,175.62248,311.20142,1161.9679
43,0.35,34.42334,369.0033,1105.72461,131.50609,405.5011,1142.03113,173.23022,313.1528,1164.43921
44,0.358,33.37685,370.90262,1106.5697,130.53758,407.23099,1143.54846,173.14153,313.92923,1165.98865
45,0.367,33.74194,371.80734,1108.32275,129.43246,408.91873,1144.0426,173.45091,314.98868,1166.44678
46,0.375,33.33791,372.15988,1108.90808,128.62262,409.71918,1145.18665,172.62515,315.69839,1167.64246
47,0.383,32.26625,372.64328,1109.47546,127.38808,411.63205,1146.84412,171.18942,318.11414,1169.60278
48,0.392,31.73896,373.33191,1110.05957,126.70289,412.13916,1146.63916,170.71638,319.04913,1171.48523
49,0.4,30.9972,374.55051,1111.31152,125.68053,414.05524,1147.9624,169.54037,321.54089,1173.65674
50,0.408,30.91471,375.4108,1111.60437,124.86915,414.11188,1148.6947,169.25908,323.73169,1174.43933
51,0.417,29.65741,376.23132,1112.35803,123.80532,416.65216,1150.09375,169.20222,325.15793,1175.10742
52,0.425,28.35191,377.35922,1112.74646,122.9334,418.84677,1150.95581,168.08116,325.39667,1176.797
53,0.433,28.13469,378.01321,1113.88062,122.84722,420.59509,1151.6825,165.9283,328.96414,1178.97986
54,0.442,27.45832,378.91718,1115.41003,120.28557,421.88205,1153.47388,165.31718,330.25937,1180.39246
55,0.45,26.73734,380.45807,1116.26941,120.07112,422.89575,1154.08789,166.03137,331.91138,1180.90369
56,0.458,26.77845,380.99387,1116.54858,118.65795,425.46188,1155.01123,165.96083,334.10107,1182.06384
57,0.467,25.17778,382.5863,1116.94812,118.1322,426.89508,1155.87756,166.21701,336.30353,1182.97375
58,0.475,24.7136,383.32526,1117.58704,116.79994,428.48486,1156.41907,165.25609,338.73892,1184.26208
59,0.483,24.56806,382.93643,1119.44446,115.81313,431.30948,1157.66858,164.33543,340.36737,1185.26599
60,0.492,23.93672,385.43588,1119.35352,115.07334,432.13089,1157.76672,163.66827,342.78452,1186.24792
61,0.5,22.9869,387.19571,1119.81946,114.02567,433.59235,1158.78052,163.35332,345.51105,1187.32642
62,0.508,22.24063,388.42535,1120.30054,112.78269,435.79828,1159.65955,164.37019,346.92932,1187.42969
63,0.517,21.6178,389.08176,1120.52869,111.54845,437.91641,1160.01819,163.18207,350.11649,1188.17615
64,0.525,21.20489,389.8548,1121.68323,111.00627,438.9227,1160.93909,162.14038,352.71713,1188.07751
65,0.533,20.7244,391.45276,1122.53516,109.33304,441.72836,1161.07312,162.42656,354.38348,1188.97058
66,0.542,18.85291,393.50284,1123.12915,108.45418,443.41727,1161.50781,162.72224,356.44977,1189.26123
67,0.55,18.00593,394.21796,1123.11902,107.30768,444.3739,1161.95032,162.74687,358.46829,1189.60779
68,0.558,17.30929,395.00769,1124.10327,107.33162,446.2421,1161.3136,162.76656,361.30225,1188.93677
69,0.567,17.26001,395.64041,1123.36084,105.39047,448.56232,1161.67383,160.08101,363.5813,1189.12256
70,0.575,16.10028,396.6076,1123.56995,104.00581,449.95013,1161.29736,160.17172,365.80798,1189.54822
71,0.583,14.12127,398.75604,1125.09717,103.26894,451.02222,1160.9137,160.65587,367.84866,1188.99133
72,0.592,13.76651,399.52429,1125.40991,102.29861,452.92856,1161.11475,160.69177,368.69754,1189.0105
73,0.6,13.38114,401.18314,1125.18152,100.9471,455.03711,1160.91089,159.25531,371.34595,1188.18408
74,0.608,13.61807,400.83749,1123.79321,100.87395,455.86371,1160.25366,158.96202,372.79672,1188.43481
75,0.617,11.93369,402.61234,1124.18091,99.81026,457.79724,1160.35608,159.02425,374.78314,1188.20471
76,0.625,10.95836,404.02975,1124.37109,98.99989,458.92719,1159.77002,158.4603,376.06653,1187.82849
77,0.633,11.27446,403.91669,1123.44666,98.01008,459.96655,1159.59229,157.49391,378.65979,1187.15308
78,0.642,10.68608,404.61707,1122.60339,97.70818,461.80765,1159.28589,158.17801,378.31445,1186.79114
79,0.65,10.46003,405.46164,1122.51953,96.38696,462.59995,1158.37231,157.66391,380.62875,1186.83423
80,0.658,8.67811,407.71881,1122.47961,96.08968,463.4502,1158.03442,156.43987,382.87228,1185.86426
81,0.667,9.44828,406.88779,1121.61194,95.30125,464.96948,1157.29529,156.62065,383.9137,1185.94861
82,0.675,9.30926,407.61981,1121.18542,94.65586,465.52344,1157.05322,156.75256,385.79578,1185.58777
83,0.683,9.06573,408.55182,1120.83301,93.83527,467.306,1156.26257,156.94579,387.07599,1185.56958
84,0.692,9.0396,409.05038,1120.67761,93.80364,468.69327,1156.00891,156.23486,388.19901,1185.04663
85,0.7,8.8619,409.53278,1120.35095,92.71687,469.95782,1155.67725,156.12231,390.01721,1185.05872
86,0.708,8.24356,410.41022,1120.4856,93.14366,471.66,1155.33936,154.25272,393.46649,1185.50342
87,0.717,7.73438,411.46899,1120.49487,91.99382,473.34308,1154.86829,154.46538,395.01019,1185.26624
88,0.725,7.13317,412.52118,1120.00244,91.58549,474.29956,1154.92883,154.95465,396.39261,1184.79211
89,0.733,6.50206,413.99033,1120.41321,90.84126,474.92157,1154.81409,155.21211,396.87878,1185.2616
90,0.742,6.07902,414.09656,1120.41833,89.90805,477.55893,1155.01648,154.61427,397.98911,1185.25769
91,0.75,4.94406,415.49399,1121.66699,89.6574,478.06042,1154.50793,153.8217,400.67746,1184.38049
92,0.758,4.66798,416.06335,1120.89893,88.98227,479.87286,1154.67297,152.57124,403.60522,1184.40942
93,0.767,4.94577,418.01465,1120.54016,87.50652,481.71719,1154.76575,153.04648,404.84369,1185.31091
94,0.775,4.48593,418.90582,1120.90918,87.15881,482.98462,1154.89648,152.68819,407.61603,1184.97681
95,0.783,3.94251,419.45514,1121.21912,86.55096,483.43887,1154.89539,152.73784,408.082,1185.01514
96,0.792,3.49108,420.88052,1121.24316,85.84555,484.92117,1154.89355,152.41805,408.76782,1185.33081
97,0.8,3.43571,421.81161,1121.16907,84.56693,486.77676,1155.05603,150.19574,411.54605,1185.63916
98,0.808,1.5838,423.21927,1121.09595,83.3515,488.29269,1154.77502,149.34851,414.15622,1184.59888
99,0.817,1.38723,423.35431,1121.10413,82.2669,489.55093,1154.47644,149.54063,414.56967,1185.08545
100,0.825,0.63404,424.17072,1121.17603,82.01065,490.3967,1154.36438,149.53951,415.32742,1185.38367
101,0.833,0.70281,425.41153,1121.66797,81.16562,491.82178,1154.16711,149.32407,418.74417,1185.05164
102,0.842,-0.55648,426.78091,1121.63428,79.90959,493.79593,1154.11963,148.58932,420.83133,1185.41956
103,0.85,-0.9919,427.98853,1121.07544,79.31804,495.32019,1154.25513,148.4315,422.03879,1185.21875
104,0.858,-1.92702,428.72775,1121.22534,78.83473,496.00275,1154.33728,148.13448,423.19455,1185.36133
105,0.867,-2.59064,429.43597,1121.33765,77.93053,497.90811,1153.67297,146.72473,424.59378,1185.54199
106,0.875,-3.0013,430.59872,1120.76685,76.98744,499.3465,1153.76294,146.28322,426.51761,1184.73621
107,0.883,-3.28932,430.8826,1120.66626,75.70978,500.53665,1153.28955,144.58672,428.41364,1185.43774
108,0.892,-4.32297,432.25537,1120.89575,75.47755,501.50204,1152.97083,144.30179,429.7438,1186.28687
109,0.9,-4.80154,433.45688,1120.7998,74.08517,503.03955,1152.72717,143.70604,432.52002,1186.1676
110,0.908,-5.73405,434.0629,1120.57739,73.32006,504.99829,1152.94617,143.54379,433.9874,1186.13379
111,0.917,-6.31969,434.68707,1120.23901,71.8958,505.93256,1151.78601,142.47008,435.52072,1185.88672
112,0.925,-7.24884,435.96045,1120.39697,70.53233,506.80267,1151.55334,142.3654,436.83734,1185.66846
113,0.933,-7.33203,436.45303,1120.42236,70.23376,507.53052,1151.57605,141.26334,438.90784,1185.38672
114,0.942,-7.80603,437.11841,1120.18445,69.87229,509.31824,1151.13855,140.44267,440.2265,1185.44128
115,0.95,-9.0207,438.13397,1120.05786,69.06458,510.91196,1150.71753,140.05139,440.40161,1185.24365
116,0.958,-10.36981,439.63635,1120.24963,67.05004,511.92523,1150.43628,138.99774,441.95151,1185.19751
117,0.967,-10.36981,439.63635,1120.24963,66.62837,512.35699,1150.48816,137.17038,444.08069,1184.82507
118,0.975,-10.95215,440.92255,1119.85156,65.82552,513.29956,1149.95813,137.19791,443.93781,1184.20093
119,0.983,-12.65181,442.16739,1119.81824,65.38102,513.5636,1149.61682,136.43149,444.7587,1183.71936
120,0.992,-13.32512,443.03198,1119.20459,64.59829,516.12646,1149.48413,135.54399,445.84854,1183.38733
121,1,-14.60291,443.54709,1118.45605,62.65128,517.23322,1148.90698,135.05754,446.65179,1182.91138
122,1.008,-15.15012,444.57385,1118.26563,61.96597,517.63824,1148.46118,133.06415,447.1644,1182.12439
123,1.017,-15.77962,444.53421,1117.06396,61.45342,517.86505,1147.69751,132.4794,448.41632,1181.34888
124,1.025,-17.65223,445.76279,1116.20093,60.5417,518.63525,1147.35315,131.34444,449.78424,1180.49866
125,1.033,-17.54095,446.08658,1115.33105,58.99154,519.71191,1146.14441,131.45116,450.27695,1180.05737
126,1.042,-18.00993,446.37317,1114.56177,56.72842,520.15411,1145.52979,131.52223,452.48691,1179.2168
127,1.05,-19.17841,447.65192,1114.07288,55.58872,522.01605,1144.52576,130.0627,455.90729,1177.44897
128,1.058,-19.60937,448.84479,1113.3186,55.14001,522.83105,1143.74951,130.0627,455.90729,1177.44897
129,1.067,-19.40287,449.67935,1112.93787,55.14392,523.41113,1141.63647,129.76413,456.51163,1176.55872
130,1.075,-20.28306,450.85233,1112.16895,53.84927,525.91266,1141.42615,129.77232,459.12701,1174.49976
131,1.083,-20.89145,452.26361,1111.35193,52.87563,527.20697,1140.17273,129.11501,460.73242,1174.21423
132,1.092,-20.9395,453.2063,1111.20532,52.49348,528.81952,1139.5387,128.73589,464.07944,1172.30164
133,1.1,-20.85021,453.80429,1110.8512,52.84119,531.19824,1138.19312,128.59518,467.33139,1171.03174
134,1.108,-21.12971,454.74625,1110.47217,52.15208,533.0368,1137.75012,128.78638,468.25787,1170.32935
135,1.117,-21.95558,455.68738,1110.12292,50.98657,534.88281,1136.8291,129.11522,471.12604,1168.42249
136,1.125,-22.32378,457.37991,1109.65271,50.62867,537.28534,1135.40417,129.21812,473.36996,1166.6925
137,1.133,-22.55145,458.18204,1109.07971,50.28343,538.53375,1134.34851,128.72147,475.94144,1165.01221
138,1.142,-22.85097,459.39874,1108.33997,49.63208,539.88977,1132.36292,128.98817,478.17639,1163.26721
139,1.15,-22.66163,460.47397,1107.75891,48.69606,541.63501,1130.96558,130.11838,481.21475,1161.95752
140,1.158,-22.73569,461.14655,1106.20203,48.26216,543.82166,1129.79004,128.81468,484.11066,1159.78564
141,1.167,-23.47639,462.1796,1105.71619,47.16656,543.97729,1128.89209,128.88744,484.82004,1157.73694
142,1.175,-23.83326,463.36273,1104.12012,45.67389,544.3302,1125.83826,127.77265,486.38101,1156.73364
143,1.183,-24.55043,464.40482,1103.71716,44.85861,546.36145,1124.92078,126.92134,488.17117,1153.70032
144,1.192,-26.08579,466.40784,1101.77539,43.47641,547.85602,1123.26978,127.18658,490.02231,1151.521
145,1.2,-26.54815,466.92035,1100.79395,44.19146,550.93549,1121.23999,126.72346,491.81418,1150.47034
146,1.208,-26.63927,467.67828,1099.72546,43.22635,550.82605,1119.67566,126.92702,491.84332,1149.52417
147,1.217,-28.04301,468.24814,1098.00208,42.77123,551.98297,1117.46814,125.41279,493.71649,1147.57361
148,1.225,-28.34846,468.67026,1096.4928,41.84755,551.00299,1115.64148,124.56265,494.76157,1144.91833
149,1.233,-29.07509,469.37439,1095.49146,40.52681,552.46814,1114.72876,123.54765,496.69305,1143.68616
150,1.242,-29.03754,469.61615,1093.90247,39.18317,553.62366,1112.10828,123.4491,496.69443,1142.63867
151,1.25,-29.6092,470.00952,1092.29309,39.37328,553.91241,1110.73328,122.88226,496.86017,1139.43701
152,1.258,-30.6886,470.6412,1091.00281,38.92875,554.50146,1109.11792,123.35129,497.15863,1137.87036
153,1.267,-31.08183,471.37692,1089.6759,38.87309,554.44519,1107.02734,123.06883,497.58691,1137.24658
154,1.275,-30.83527,472.29044,1088.88574,37.95898,555.14874,1105.55786,121.80947,499.4216,1134.83289
155,1.283,-31.43764,472.76694,1087.06335,38.35621,556.37085,1103.94202,122.99314,499.56619,1131.71973
156,1.292,-32.24803,473.48462,1085.47534,37.19341,556.95215,1102.84607,122.50893,500.97174,1130.26636
157,1.3,-32.28451,474.50443,1083.953,37.50854,557.4184,1100.79346,122.00331,502.1286,1129.97388
158,1.308,-32.10614,474.49393,1083.11389,37.33483,557.88104,1098.73804,121.90963,501.86145,1127.93127
159,1.317,-32.63061,475.18115,1082.06836,36.58735,558.57898,1097.41467,122.14422,502.88483,1125.70374
160,1.325,-32.18274,475.66742,1081.1123,36.28304,558.73761,1096.70068,122.12045,503.12222,1123.58398
161,1.333,-31.72187,475.38144,1079.96497,36.63678,559.89673,1094.43335,122.13934,504.96741,1121.96924
162,1.342,-31.7071,476.17062,1078.38391,36.86567,560.5575,1092.83752,122.52035,505.11877,1120.07983
163,1.35,-31.83753,476.73166,1077.55164,36.59391,560.77277,1091.12756,121.70845,508.59183,1116.92346
164,1.358,-31.17256,476.91522,1075.72876,36.48625,561.86786,1089.10608,122.46392,507.47552,1116.06506
165,1.367,-31.51247,477.39368,1074.58398,36.41794,562.15497,1087.33984,123.95145,507.49408,1114.28027
166,1.375,-31.67046,478.49631,1073.11182,36.3213,563.07074,1085.65234,122.63425,508.78049,1111.875
167,1.383,-31.41885,478.50278,1071.91919,36.27256,563.56897,1083.07349,122.99301,508.37836,1110.50403
168,1.392,-31.54333,478.93103,1069.96411,36.18005,564.82257,1081.18127,122.41761,510.0112,1108.33838
169,1.4,-32.1296,480.39578,1068.81165,35.99453,564.35956,1078.9718,122.36169,510.39923,1105.96057
170,1.408,-32.02891,480.7666,1066.73206,35.59869,565.36627,1076.68408,122.74015,511.1004,1103.625
171,1.417,-32.33308,481.18381,1065.01001,35.9613,565.97375,1075.29639,123.41635,511.33475,1101.95361
172,1.425,-31.49156,479.47836,1062.28064,35.42834,566.33234,1072.552,123.38272,511.28571,1099.58801
173,1.433,-31.84174,480.21936,1061.4884,35.63065,566.92731,1071.69141,121.25191,511.75928,1097.20947
174,1.442,-32.11156,480.09317,1058.83032,35.07344,566.45239,1068.05176,122.44543,511.35626,1095.34863
175,1.45,-32.52211,479.95316,1057.2395,35.52454,566.336,1066.93774,123.26276,509.44055,1093.96069
176,1.458,-32.79382,480.82086,1055.72546,35.56263,566.13898,1064.55286,121.04396,512.23273,1090.58728
177,1.467,-33.11869,480.97534,1054.03674,35.40712,565.50073,1062.83691,121.29289,509.51715,1088.63647
178,1.475,-34.9733,481.86563,1053.08984,35.33428,566.39227,1060.89966,121.06756,508.94366,1087.73889
179,1.483,-34.98741,480.7951,1051.60205,35.25811,564.98242,1058.96606,119.98048,508.8688,1085.47644
180,1.492,-35.83508,481.61719,1048.7677,34.92095,564.52277,1057.59802,119.74728,509.07724,1082.24353
181,1.5,-36.24488,482.49911,1048.1167,36.09457,564.94678,1055.96619,119.70191,508.3519,1081.62659
182,1.508,-36.37078,482.40005,1046.64355,35.81755,564.61536,1054.21545,120.51454,509.3158,1080.66748
183,1.517,-36.9579,482.68015,1045.59937,36.00362,564.45996,1052.5946,120.85452,508.62793,1078.94348
184,1.525,-36.09461,482.80917,1044.95374,36.60275,565.19879,1051.33252,120.80782,508.42859,1076.57361
185,1.533,-35.81191,483.19269,1044.32776,36.88432,565.31561,1050.14575,121.76263,508.61777,1075.42004
186,1.542,-34.89293,482.88602,1043.85535,37.45238,565.76239,1048.7052,121.31487,508.90045,1074.84009
187,1.55,-34.60151,483.40192,1042.07239,37.5158,566.39423,1047.12573,123.23297,510.36987,1073.19653
188,1.558,-33.46319,484.63144,1042.01428,38.00518,567.22229,1046.24658,123.88235,511.1777,1071.73682
189,1.567,-32.5693,485.354,1041.63208,38.77787,567.68213,1045.05811,125.3276,511.59592,1071.20422
190,1.575,-31.74031,485.47171,1040.93115,39.0078,568.27783,1044.08643,125.2072,514.00574,1068.04724
191,1.583,-31.27341,485.68826,1040.78503,39.42249,569.40698,1042.16284,126.71397,514.39532,1067.66406
192,1.592,-30.76318,486.24686,1039.80066,39.65118,570.63104,1040.99963,126.98867,519.34802,1064.97229
193,1.6,-29.62951,485.68808,1039.42041,40.08179,570.60126,1040.11865,127.9332,518.16351,1064.51941
194,1.608,-28.42537,486.90048,1038.59888,40.15425,572.5882,1038.93726,127.69417,518.79321,1063.09656
195,1.617,-28.4544,487.10849,1037.88135,39.95523,573.68427,1037.42834,128.43349,519.68854,1061.83752
196,1.625,-27.7611,488.49667,1037.02771,40.19287,573.48016,1035.89441,128.45396,522.33868,1059.00403
197,1.633,-27.81697,488.87787,1036.37793,39.8956,574.40082,1034.46851,129.55977,523.27637,1057.4447
198,1.642,-27.616,488.9884,1035.94983,39.66209,574.83496,1033.2771,130.134,524.56714,1056.57288
199,1.65,-27.97965,489.96573,1034.64001,39.61975,576.0719,1031.60706,129.38127,525.24127,1055.25598
