Frame#,Time,L.Forearm.x,L.Forearm.y,L.Forearm.z,L.Ulna.x,L.Ulna.y,L.Ulna.z,L.Radius.x,L.Radius.y,L.Radius.z
1,0,-107.13112,291.46591,715.51416,-57.78476,297.93314,615.5484,0.32988,217.91644,660.1731
2,0.008,-107.18478,291.41626,715.63342,-57.78476,297.93314,615.5484,0.03322,217.91112,660.30292
3,0.017,-107.13112,291.46591,715.51416,-57.78476,297.93314,615.5484,0.03322,217.91112,660.30292
4,0.025,-107.13112,291.46591,715.51416,-57.78476,297.93314,615.5484,0.03322,217.91112,660.30292
5,0.033,-107.72523,291.28458,715.46387,-57.78476,297.93314,615.5484,0.03322,217.91112,660.30292
6,0.042,-107.72523,291.28458,715.46387,-57.78476,297.93314,615.5484,0.03322,217.91112,660.30292
7,0.05,-107.52834,291.40659,715.54608,-57.78476,297.93314,615.5484,0.03322,217.91112,660.30292
8,0.058,-107.72523,291.28458,715.46387,-57.89322,298.84177,615.67609,-0.00639,218.05598,660.18103
9,0.067,-108.10126,291.75287,715.39893,-57.78476,297.93314,615.5484,-0.00639,218.05598,660.18103
10,0.075,-108.10126,291.75287,715.39893,-57.93859,298.91916,615.65033,-0.00639,218.05598,660.18103
11,0.083,-108.10126,291.75287,715.39893,-57.93859,298.91916,615.65033,-0.00639,218.05598,660.18103
12,0.092,-108.10126,291.75287,715.39893,-57.9628,298.3205,615.57007,-0.00639,218.05598,660.18103
13,0.1,-108.21153,292.03003,715.37225,-57.93859,298.91916,615.65033,-0.00639,218.05598,660.18103
14,0.108,-108.41829,292.07986,715.19012,-57.93859,298.91916,615.65033,-0.19161,218.10408,659.89355
15,0.117,-108.41829,292.07986,715.19012,-57.9628,298.3205,615.57007,-0.19161,218.10408,659.89355
16,0.125,-108.41829,292.07986,715.19012,-57.93859,298.91916,615.65033,-0.19161,218.10408,659.89355
17,0.133,-108.41829,292.07986,715.19012,-57.9628,298.3205,615.57007,-0.19161,218.10408,659.89355
18,0.142,-108.30801,291.80273,715.21674,-57.9628,298.3205,615.57007,-0.19161,218.10408,659.89355
19,0.15,-108.30801,291.80273,715.21674,-57.9628,298.3205,615.57007,-0.19161,218.10408,659.89355
20,0.158,-108.21814,291.63803,715.20709,-57.78476,297.93314,615.5484,1.12461,219.78578,660.19629
21,0.167,-108.15482,291.72995,715.52844,-57.78476,297.93314,615.5484,1.12461,219.78578,660.19629
22,0.175,-107.85622,291.00089,715.04865,-57.78476,297.93314,615.5484,-0.00639,218.05598,660.18103
23,0.183,-107.85622,291.00089,715.04865,-57.78476,297.93314,615.5484,0.03322,217.91112,660.30292
24,0.192,-107.91248,290.90155,715.15527,-57.78476,297.93314,615.5484,-0.498,217.72075,660.10376
25,0.2,-107.85622,291.00089,715.04865,-57.78476,297.93314,615.5484,-0.45835,217.57587,660.22565
26,0.208,-107.78895,290.97696,714.89056,-57.78476,297.93314,615.5484,-0.45835,217.57587,660.22565
27,0.217,-107.85622,291.00089,715.04865,-57.78476,297.93314,615.5484,-0.45835,217.57587,660.22565
28,0.225,-107.91248,290.90155,715.15527,-57.78476,297.93314,615.5484,0.76379,219.44522,660.24023
29,0.233,-107.91248,290.90155,715.15527,-57.78476,297.93314,615.5484,-0.498,217.72075,660.10376
30,0.242,-108.05283,291.04834,715.28833,-57.78476,297.93314,615.5484,0.71449,219.57349,660.13696
31,0.25,-107.91248,290.90155,715.15527,-57.78476,297.93314,615.5484,-0.498,217.72075,660.10376
32,0.258,-108.23201,291.39697,715.05975,-57.78476,297.93314,615.5484,-0.498,217.72075,660.10376
33,0.267,-108.32128,291.58411,715.07666,-57.9628,298.3205,615.57007,-0.498,217.72075,660.10376
34,0.275,-108.31412,291.2612,714.92615,-57.9628,298.3205,615.57007,-0.6833,217.7688,659.81622
35,0.283,-108.30083,291.47983,715.06622,-58.24474,298.38992,615.58099,-0.6833,217.7688,659.81622
36,0.292,-108.54368,291.93796,714.98547,-57.9628,298.3205,615.57007,-0.6833,217.7688,659.81622
37,0.3,-108.47639,291.91403,714.82739,-58.24474,298.38992,615.58099,-0.6833,217.7688,659.81622
38,0.308,-108.54368,291.93796,714.98547,-58.4402,298.46063,615.34198,-0.6833,217.7688,659.81622
39,0.317,-108.54368,291.93796,714.98547,-58.4402,298.46063,615.34198,-0.19161,218.10408,659.89355
40,0.325,-108.35709,291.51443,714.74139,-58.4402,298.46063,615.34198,-0.6833,217.7688,659.81622
41,0.333,-108.35709,291.51443,714.74139,-58.4402,298.46063,615.34198,-0.6833,217.7688,659.81622
42,0.342,-108.51832,291.90808,714.93341,-58.4402,298.46063,615.34198,0.95531,219.85387,659.95514
43,0.35,-108.38668,291.72141,714.84003,-58.15827,298.39124,615.33105,0.95531,219.85387,659.95514
44,0.358,-108.10795,291.10361,714.6438,-57.98024,298.00388,615.30939,-0.6833,217.7688,659.81622
45,0.367,-108.10795,291.10361,714.6438,-57.78476,297.93314,615.5484,-0.6833,217.7688,659.81622
46,0.375,-107.99579,291.02686,714.70831,-57.78476,297.93314,615.5484,-0.19161,218.10408,659.89355
47,0.383,-107.99579,291.02686,714.70831,-57.78476,297.93314,615.5484,-0.498,217.72075,660.10376
48,0.392,-107.99579,291.02686,714.70831,-57.78476,297.93314,615.5484,-0.498,217.72075,660.10376
49,0.4,-107.99579,291.02686,714.70831,-57.78476,297.93314,615.5484,-0.498,217.72075,660.10376
50,0.408,-107.9849,290.88284,714.62415,-57.78476,297.93314,615.5484,-0.498,217.72075,660.10376
51,0.417,-108.06306,291.05078,714.86639,-57.78476,297.93314,615.5484,-0.498,217.72075,660.10376
52,0.425,-107.99579,291.02686,714.70831,-57.78476,297.93314,615.5484,-0.498,217.72075,660.10376
53,0.433,-107.99579,291.02686,714.70831,-57.78476,297.93314,615.5484,-0.498,217.72075,660.10376
54,0.442,-107.99579,291.02686,714.70831,-57.78476,297.93314,615.5484,-0.6833,217.7688,659.81622
55,0.45,-107.99579,291.02686,714.70831,-57.78476,297.93314,615.5484,-0.6833,217.7688,659.81622
56,0.458,-108.31412,291.2612,714.92615,-57.78476,297.93314,615.5484,-0.6833,217.7688,659.81622
57,0.467,-108.24683,291.2373,714.76801,-57.9628,298.3205,615.57007,-0.6833,217.7688,659.81622
58,0.475,-108.68806,291.26868,714.88,-58.24474,298.38992,615.58099,-0.6833,217.7688,659.81622
59,0.483,-108.6372,291.33524,714.77454,-58.4402,298.46063,615.34198,-1.06912,217.91727,659.83356
60,0.492,-108.75652,291.73477,714.86053,-58.4402,298.46063,615.34198,-1.27548,217.81441,659.6767
61,0.5,-108.84821,292.00644,714.76172,-59.01525,299.27524,615.29193,-1.27548,217.81441,659.6767
62,0.508,-108.96033,292.08322,714.6972,-59.03967,298.67664,615.21161,-1.27548,217.81441,659.6767
63,0.517,-108.89305,292.0593,714.53906,-59.03967,298.67664,615.21161,-1.2132,217.9238,659.57306
64,0.525,-108.89305,292.0593,714.53906,-59.03967,298.67664,615.21161,-1.27548,217.81441,659.6767
65,0.533,-108.76437,291.61722,714.39154,-59.03967,298.67664,615.21161,-1.27548,217.81441,659.6767
66,0.542,-108.7062,291.37604,714.33301,-59.24311,298.38803,614.96472,-1.2132,217.9238,659.57306
67,0.55,-108.67632,291.52832,714.23712,-59.24311,298.38803,614.96472,-0.88965,217.66595,659.6593
68,0.558,-108.67632,291.52832,714.23712,-59.24311,298.38803,614.96472,-0.88965,217.66595,659.6593
69,0.567,-108.46245,291.12949,714.31091,-58.4402,298.46063,615.34198,-0.88965,217.66595,659.6593
70,0.575,-108.5559,291.5596,714.28711,-58.4402,298.46063,615.34198,-0.88965,217.66595,659.6593
71,0.583,-108.32075,290.90048,714.51886,-58.4402,298.46063,615.34198,-0.6833,217.7688,659.81622
72,0.592,-108.32075,290.90048,714.51886,-57.98024,298.00388,615.30939,-0.6833,217.7688,659.81622
73,0.6,-108.32075,290.90048,714.51886,-57.78476,297.93314,615.5484,-0.6833,217.7688,659.81622
74,0.608,-108.32075,290.90048,714.51886,-57.78476,297.93314,615.5484,-0.6833,217.7688,659.81622
75,0.617,-107.99579,291.02686,714.70831,-57.78476,297.93314,615.5484,-0.6833,217.7688,659.81622
76,0.625,-108.06306,291.05078,714.86639,-57.78476,297.93314,615.5484,-0.6833,217.7688,659.81622
77,0.633,-107.99579,291.02686,714.70831,-57.78476,297.93314,615.5484,-0.6833,217.7688,659.81622
78,0.642,-108.43342,291.66083,715.01215,-57.78476,297.93314,615.5484,-0.6833,217.7688,659.81622
79,0.65,-108.43342,291.66083,715.01215,-57.78476,297.93314,615.5484,-0.6833,217.7688,659.81622
80,0.658,-108.43342,291.66083,715.01215,-57.9628,298.3205,615.57007,-1.06912,217.91727,659.83356
81,0.667,-108.54368,291.93796,714.98547,-58.24474,298.38992,615.58099,-1.06912,217.91727,659.83356
82,0.675,-108.54368,291.93796,714.98547,-58.24474,298.38992,615.58099,-1.06912,217.91727,659.83356
83,0.683,-108.74324,291.95337,715.00067,-58.4402,298.46063,615.34198,-1.06912,217.91727,659.83356
84,0.692,-108.78996,291.9501,715.12012,-59.03967,298.67664,615.21161,-1.06912,217.91727,659.83356
85,0.7,-108.86865,291.81155,714.79602,-59.40622,299.46094,615.42303,-1.06912,217.91727,659.83356
86,0.708,-108.86865,291.81155,714.79602,-59.01525,299.27524,615.29193,-1.27548,217.81441,659.6767
87,0.717,-108.94704,292.30185,714.83734,-59.01525,299.27524,615.29193,-1.27548,217.81441,659.6767
88,0.725,-108.85536,292.03018,714.93616,-59.03967,298.67664,615.21161,-1.27548,217.81441,659.6767
89,0.733,-108.80138,291.78766,714.63788,-59.03967,298.67664,615.21161,-1.27548,217.81441,659.6767
90,0.742,-108.80138,291.78766,714.63788,-59.03967,298.67664,615.21161,-1.27548,217.81441,659.6767
91,0.75,-108.80138,291.78766,714.63788,-59.03967,298.67664,615.21161,-1.27548,217.81441,659.6767
92,0.758,-108.68923,291.71085,714.70245,-58.4402,298.46063,615.34198,-1.27548,217.81441,659.6767
93,0.767,-108.68923,291.71085,714.70245,-58.4402,298.46063,615.34198,-1.27548,217.81441,659.6767
94,0.775,-108.68923,291.71085,714.70245,-58.4402,298.46063,615.34198,-1.06912,217.91727,659.83356
95,0.783,-108.57896,291.43369,714.72913,-57.9628,298.3205,615.57007,-1.06912,217.91727,659.83356
96,0.792,-108.32075,290.90048,714.51886,-57.78476,297.93314,615.5484,-0.6833,217.7688,659.81622
97,0.8,-108.32075,290.90048,714.51886,-57.78476,297.93314,615.5484,-0.6833,217.7688,659.81622
98,0.808,-108.45963,291.03415,714.64313,-57.78476,297.93314,615.5484,-0.6833,217.7688,659.81622
99,0.817,-108.32128,291.58411,715.07666,-57.78476,297.93314,615.5484,-0.498,217.72075,660.10376
100,0.825,-108.43342,291.66083,715.01215,-57.78476,297.93314,615.5484,-0.45835,217.57587,660.22565
101,0.833,-108.31412,291.2612,714.92615,-57.9628,298.3205,615.57007,-0.498,217.72075,660.10376
102,0.842,-108.54368,291.93796,714.98547,-57.9628,298.3205,615.57007,-0.85521,217.85477,660.07764
103,0.85,-108.53041,292.15659,715.12561,-58.24474,298.38992,615.58099,-0.85521,217.85477,660.07764
104,0.858,-108.74324,291.95337,715.00067,-58.24474,298.38992,615.58099,-0.85521,217.85477,660.07764
105,0.867,-108.74324,291.95337,715.00067,-58.22048,298.98859,615.66125,-1.06912,217.91727,659.83356
106,0.875,-108.53041,292.15659,715.12561,-58.4402,298.46063,615.34198,-1.06912,217.91727,659.83356
107,0.883,-108.53041,292.15659,715.12561,-58.4402,298.46063,615.34198,-1.06912,217.91727,659.83356
108,0.892,-108.53041,292.15659,715.12561,-59.00492,299.32504,615.55347,-1.06912,217.91727,659.83356
109,0.9,-108.74324,291.95337,715.00067,-59.03967,298.67664,615.21161,-1.06912,217.91727,659.83356
110,0.908,-108.87608,292.24997,715.01794,-59.03967,298.67664,615.21161,-1.27548,217.81441,659.6767
111,0.917,-108.94704,292.30185,714.83734,-59.03967,298.67664,615.21161,-1.27548,217.81441,659.6767
112,0.925,-108.94704,292.30185,714.83734,-59.03967,298.67664,615.21161,-1.27548,217.81441,659.6767
113,0.933,-108.66689,292.48117,714.80414,-59.03967,298.67664,615.21161,-1.27548,217.81441,659.6767
114,0.942,-108.87975,292.27792,714.6792,-59.24311,298.38803,614.96472,-1.27548,217.81441,659.6767
115,0.95,-108.86865,291.81155,714.79602,-58.4402,298.46063,615.34198,-1.27548,217.81441,659.6767
116,0.958,-108.56992,291.31131,714.61646,-58.4402,298.46063,615.34198,-1.27548,217.81441,659.6767
117,0.967,-108.56992,291.31131,714.61646,-58.4402,298.46063,615.34198,-0.88965,217.66595,659.6593
118,0.975,-108.56992,291.31131,714.61646,-57.9628,298.3205,615.57007,-0.88965,217.66595,659.6593
119,0.983,-108.52691,291.05807,714.80121,-57.9628,298.3205,615.57007,-0.6833,217.7688,659.81622
120,0.992,-108.20856,290.82373,714.58337,-57.78476,297.93314,615.5484,-0.6833,217.7688,659.81622
121,1,-108.30987,290.75647,714.43463,-57.78476,297.93314,615.5484,-0.6833,217.7688,659.81622
122,1.008,-108.41473,290.98132,714.86572,-57.78476,297.93314,615.5484,-0.6833,217.7688,659.81622
123,1.017,-107.99579,291.02686,714.70831,-57.78476,297.93314,615.5484,-0.498,217.72075,660.10376
124,1.025,-107.99579,291.02686,714.70831,-57.78476,297.93314,615.5484,-0.64365,217.62398,659.93805
125,1.033,-108.45963,291.03415,714.64313,-57.78476,297.93314,615.5484,-0.498,217.72075,660.10376
126,1.042,-108.31412,291.2612,714.92615,-57.78476,297.93314,615.5484,-0.6833,217.7688,659.81622
127,1.05,-108.43342,291.66083,715.01215,-57.9628,298.3205,615.57007,-0.498,217.72075,660.10376
128,1.058,-108.74324,291.95337,715.00067,-57.9628,298.3205,615.57007,-0.6833,217.7688,659.81622
129,1.067,-108.41111,291.75696,715.03955,-58.24474,298.38992,615.58099,-0.6833,217.7688,659.81622
130,1.075,-108.5751,292.17487,715.24823,-58.24474,298.38992,615.58099,-1.06912,217.91727,659.83356
131,1.083,-108.5751,292.17487,715.24823,-58.41592,299.0593,615.42224,0.18086,219.82251,659.9126
132,1.092,-108.62209,292.42831,715.02679,-59.03967,298.67664,615.21161,-1.06912,217.91727,659.83356
133,1.1,-108.83493,292.22507,714.90186,-59.03967,298.67664,615.21161,-1.06912,217.91727,659.83356
134,1.108,-108.94704,292.30185,714.83734,-59.01525,299.27524,615.29193,-1.27548,217.81441,659.6767
135,1.117,-108.96033,292.08322,714.6972,-59.01525,299.27524,615.29193,-1.27548,217.81441,659.6767
136,1.125,-108.91581,292.30875,714.78448,-59.01525,299.27524,615.29193,-1.27548,217.81441,659.6767
137,1.133,-108.87975,292.27792,714.6792,-59.03967,298.67664,615.21161,-1.2132,217.9238,659.57306
138,1.142,-108.91581,292.30875,714.78448,-59.01525,299.27524,615.29193,0.05258,219.84946,659.69397
139,1.15,-108.74746,292.28647,714.82214,-59.03967,298.67664,615.21161,-1.27548,217.81441,659.6767
140,1.158,-108.56807,292.18576,714.72858,-59.03967,298.67664,615.21161,-1.27548,217.81441,659.6767
141,1.167,-108.47639,291.91403,714.82739,-58.41592,299.0593,615.42224,-1.06912,217.91727,659.83356
142,1.175,-108.51122,290.93726,714.73853,-58.24474,298.38992,615.58099,0.54513,219.64154,659.89575
143,1.183,-108.36701,291.18768,715.03406,-57.9628,298.3205,615.57007,-0.6833,217.7688,659.81622
144,1.192,-108.24683,291.2373,714.76801,-57.7605,298.53183,615.62872,-0.6833,217.7688,659.81622
145,1.2,-108.1614,291.37119,714.89227,-57.78476,297.93314,615.5484,-0.6833,217.7688,659.81622
146,1.208,-108.04562,290.93066,714.7995,-57.78476,297.93314,615.5484,-0.6833,217.7688,659.81622
147,1.217,-108.25658,291.10318,715.10004,-57.78476,297.93314,615.5484,0.71449,219.57349,660.13696
148,1.225,-108.1824,291.45041,714.95239,-57.78476,297.93314,615.5484,-0.498,217.72075,660.10376
149,1.233,-108.32128,291.58411,715.07666,-57.78476,297.93314,615.5484,-0.498,217.72075,660.10376
150,1.242,-108.32128,291.58411,715.07666,-57.78476,297.93314,615.5484,-0.498,217.72075,660.10376
151,1.25,-108.42014,291.87946,715.15222,-57.9628,298.3205,615.57007,-0.85521,217.85477,660.07764
152,1.258,-108.42014,291.87946,715.15222,-57.9628,298.3205,615.57007,-1.06912,217.91727,659.83356
153,1.267,-108.53041,292.15659,715.12561,-58.22048,298.98859,615.66125,-1.06912,217.91727,659.83356
154,1.275,-108.5751,292.17487,715.24823,-58.22048,298.98859,615.66125,-1.06912,217.91727,659.83356
155,1.283,-108.74324,291.95337,715.00067,-58.4402,298.46063,615.34198,-1.06912,217.91727,659.83356
156,1.292,-108.74324,291.95337,715.00067,-59.43073,298.86237,615.34271,-1.06912,217.91727,659.83356
157,1.3,-108.74324,291.95337,715.00067,-59.40622,299.46094,615.42303,-1.06912,217.91727,659.83356
158,1.308,-108.85536,292.03018,714.93616,-59.43073,298.86237,615.34271,-1.27548,217.81441,659.6767
159,1.317,-108.85536,292.03018,714.93616,-59.40622,299.46094,615.42303,-1.27548,217.81441,659.6767
160,1.325,-108.94704,292.30185,714.83734,-59.6342,298.57382,615.09595,-1.44955,217.86627,659.65332
161,1.333,-108.87975,292.27792,714.6792,-59.40622,299.46094,615.42303,-1.36573,217.98088,659.54236
162,1.342,-108.87975,292.27792,714.6792,-59.43073,298.86237,615.34271,-1.27548,217.81441,659.6767
163,1.35,-108.89305,292.0593,714.53906,-59.01525,299.27524,615.29193,-1.2132,217.9238,659.57306
164,1.358,-108.86865,291.81155,714.79602,-58.4402,298.46063,615.34198,-1.27548,217.81441,659.6767
165,1.367,-108.56992,291.31131,714.61646,-58.4402,298.46063,615.34198,-1.27548,217.81441,659.6767
166,1.375,-108.56992,291.31131,714.61646,-58.4402,298.46063,615.34198,-0.6833,217.7688,659.81622
167,1.383,-108.57896,291.43369,714.72913,-58.24474,298.38992,615.58099,-0.6833,217.7688,659.81622
168,1.392,-108.22727,291.50323,714.7298,-57.78476,297.93314,615.5484,-0.6833,217.7688,659.81622
169,1.4,-108.24683,291.2373,714.76801,-57.78476,297.93314,615.5484,-0.498,217.72075,660.10376
170,1.408,-108.24683,291.2373,714.76801,-57.78476,297.93314,615.5484,-0.498,217.72075,660.10376
171,1.417,-108.06306,291.05078,714.86639,-57.78476,297.93314,615.5484,-0.498,217.72075,660.10376
172,1.425,-108.17522,291.12753,714.80188,-57.78476,297.93314,615.5484,-0.498,217.72075,660.10376
173,1.433,-108.64624,291.45761,714.88721,-57.78476,297.93314,615.5484,-0.85521,217.85477,660.07764
174,1.442,-108.43342,291.66083,715.01215,-57.78476,297.93314,615.5484,-0.85521,217.85477,660.07764
175,1.45,-108.64624,291.45761,714.88721,-57.78476,297.93314,615.5484,-0.85521,217.85477,660.07764
176,1.458,-108.75652,291.73477,714.86053,-58.24474,298.38992,615.58099,-0.45835,217.57587,660.22565
177,1.467,-108.6742,291.50967,715.02734,-58.24474,298.38992,615.58099,-1.06912,217.91727,659.83356
178,1.475,-108.75652,291.73477,714.86053,-58.24474,298.38992,615.58099,-1.06912,217.91727,659.83356
179,1.483,-108.74324,291.95337,715.00067,-58.83392,298.65585,615.71222,-1.06912,217.91727,659.83356
180,1.492,-108.78996,291.9501,715.12012,-59.60498,298.81738,615.43317,-1.27548,217.81441,659.6767
181,1.5,-108.94704,292.30185,714.83734,-59.60498,298.81738,615.43317,-1.44955,217.86627,659.65332
182,1.508,-108.94704,292.30185,714.83734,-59.60498,298.81738,615.43317,-1.27548,217.81441,659.6767
183,1.517,-109.03887,292.57343,714.73853,-59.60498,298.81738,615.43317,-1.44955,217.86627,659.65332
184,1.525,-109.03887,292.57343,714.73853,-59.43073,298.86237,615.34271,-1.44955,217.86627,659.65332
185,1.533,-108.94704,292.30185,714.83734,-59.6342,298.57382,615.09595,-1.44955,217.86627,659.65332
186,1.542,-108.94704,292.30185,714.83734,-59.60968,299.17249,615.17627,-1.44955,217.86627,659.65332
187,1.55,-108.94704,292.30185,714.83734,-59.43073,298.86237,615.34271,-1.44955,217.86627,659.65332
188,1.558,-108.91581,292.30875,714.78448,-59.01525,299.27524,615.29193,-1.27548,217.81441,659.6767
189,1.567,-108.97157,292.5495,714.58038,-59.03967,298.67664,615.21161,-1.27548,217.81441,659.6767
190,1.575,-108.65989,292.45737,714.62976,-59.03967,298.67664,615.21161,-1.06912,217.91727,659.83356
191,1.583,-108.84821,292.00644,714.76172,-58.4402,298.46063,615.34198,-1.06912,217.91727,659.83356
192,1.592,-108.54368,291.93796,714.98547,-58.24474,298.38992,615.58099,-1.06912,217.91727,659.83356
193,1.6,-108.6372,291.33524,714.77454,-58.24474,298.38992,615.58099,-1.06912,217.91727,659.83356
194,1.608,-108.42438,291.53836,714.89948,-57.9628,298.3205,615.57007,-1.06912,217.91727,659.83356
195,1.617,-108.53041,292.15659,715.12561,-57.9628,298.3205,615.57007,-1.06912,217.91727,659.83356
196,1.625,-108.53041,292.15659,715.12561,-57.9628,298.3205,615.57007,-0.85521,217.85477,660.07764
197,1.633,-108.53041,292.15659,715.12561,-57.9628,298.3205,615.57007,-0.81558,217.70993,660.19946
198,1.642,-108.53041,292.15659,715.12561,-58.07137,299.22906,615.69769,-1.02949,217.77251,659.95544
199,1.65,-108.74324,291.95337,715.00067,-58.24474,298.38992,615.58099,-1.06912,217.91727,659.83356
200,1.658,-108.53041,292.15659,715.12561,-58.24474,298.38992,615.58099,-1.06912,217.91727,659.83356
201,1.667,-108.5751,292.17487,715.24823,-59.00816,298.61087,615.80267,-1.06912,217.91727,659.83356
202,1.675,-108.74324,291.95337,715.00067,-59.11651,299.51935,615.93024,-1.06912,217.91727,659.83356
203,1.683,-108.74324,291.95337,715.00067,-59.51785,299.6553,615.7998,-1.06912,217.91727,659.83356
204,1.692,-108.94704,292.30185,714.83734,-59.7132,299.7258,615.56085,-1.44955,217.86627,659.65332
