Frame#,Time,R.Forearm.x,R.Forearm.y,R.Forearm.z,R.Ulna.x,R.Ulna.y,R.Ulna.z,R.Radius.x,R.Radius.y,R.Radius.z
1,0,399.74765,-354.02176,1370.03528,482.66925,-322.85373,1316.88916,482.63223,-236.48114,1363.21753
2,0.008,399.66058,-353.95569,1370.44885,482.55792,-322.66367,1317.58704,482.71466,-236.98164,1363.42834
3,0.017,399.66058,-353.95569,1370.44885,482.55792,-322.66367,1317.58704,483.01266,-237.36743,1363.41211
4,0.025,399.71964,-353.95645,1370.60742,482.6702,-323.09088,1318.22583,483.2468,-237.50609,1363.82666
5,0.033,399.70779,-354.17517,1370.86572,482.6702,-323.09088,1318.22583,482.76855,-237.08597,1364.08899
6,0.042,399.43396,-353.8916,1370.91479,482.6702,-323.09088,1318.22583,483.00073,-237.69675,1364.03162
7,0.05,399.28302,-353.90802,1370.95435,482.6702,-323.09088,1318.22583,482.86069,-237.29285,1364.526
8,0.058,399.10629,-353.96521,1370.94751,482.6702,-323.09088,1318.22583,482.85263,-236.98599,1365.19519
9,0.067,399.20535,-353.91403,1370.75903,482.6702,-323.09088,1318.22583,482.90634,-237.06383,1365.59668
10,0.075,399.1463,-353.91327,1370.60034,482.08698,-322.37842,1318.46814,482.90634,-237.06383,1365.59668
11,0.083,398.35672,-353.97415,1370.3324,482.37341,-322.45386,1318.37036,483.21231,-237.85168,1365.48535
12,0.092,398.41919,-353.79272,1370.14954,482.15662,-321.8288,1317.83215,482.90454,-237.29361,1365.66809
13,0.1,398.42288,-353.87598,1370.03186,482.15662,-321.8288,1317.83215,482.91672,-237.45535,1366.03052
14,0.108,398.2951,-354.2034,1369.80676,482.15662,-321.8288,1317.83215,482.56403,-236.91072,1366.21484
15,0.117,397.61234,-354.06744,1369.01672,482.15662,-321.8288,1317.83215,482.56403,-236.91072,1366.21484
16,0.125,397.35056,-353.57593,1368.75342,481.65393,-321.49121,1316.91174,482.439,-236.76596,1366.09497
17,0.133,397.10352,-353.40994,1367.72107,481.88675,-321.64575,1316.50183,482.26685,-236.99954,1365.92078
18,0.142,396.88098,-353.03003,1367.37061,481.59055,-321.48447,1315.85767,481.95679,-237.1389,1365.19092
19,0.15,397.01617,-353.26352,1367.32361,481.59055,-321.48447,1315.85767,481.95679,-237.1389,1365.19092
20,0.158,396.35172,-353.5123,1366.66138,481.46661,-321.6969,1315.59009,481.95679,-237.1389,1365.19092
21,0.167,396.48666,-353.55142,1366.56958,481.89258,-321.21017,1314.42261,481.95679,-237.1389,1365.19092
22,0.175,396.39545,-353.30109,1366.30481,481.89258,-321.21017,1314.42261,482.19391,-237.30898,1364.59033
23,0.183,396.32831,-353.33154,1366.00549,481.7561,-321.22098,1314.45752,482.10995,-238.01521,1364.37329
24,0.192,396.53021,-353.41153,1365.5498,481.4014,-321.42426,1314.17358,481.80618,-237.81767,1363.91541
25,0.2,396.41641,-354.32257,1365.87793,481.37363,-321.61642,1313.9187,481.32684,-236.81058,1363.91077
26,0.208,396.52316,-354.61591,1365.73779,481.44699,-321.68622,1313.82251,481.32684,-236.81058,1363.91077
27,0.217,396.1998,-354.88345,1365.80762,481.1059,-322.03528,1313.49585,481.32333,-236.52533,1363.78674
28,0.225,396.06378,-354.95865,1366.00745,480.4343,-322.37033,1313.43884,481.15399,-236.47282,1363.86548
29,0.233,395.83795,-355.18555,1365.96594,480.25757,-322.41153,1313.48584,480.54214,-236.33061,1363.61499
30,0.242,395.65277,-355.32864,1366.13428,480.25757,-322.41153,1313.48584,480.28781,-237.08456,1363.57678
31,0.25,395.65277,-355.32864,1366.13428,478.92938,-322.69016,1314.91504,479.4024,-236.91093,1363.67017
32,0.258,395.48956,-355.19223,1366.02588,479.09128,-322.17505,1314.5459,479.4024,-236.91093,1363.67017
33,0.267,395.48956,-355.19223,1366.02588,478.78314,-322.33673,1314.8186,479.4024,-236.91093,1363.67017
34,0.275,394.97784,-355.00333,1366.21521,478.78314,-322.33673,1314.8186,479.4024,-236.91093,1363.67017
35,0.283,394.55911,-355.13089,1366.04163,478.63928,-322.31738,1314.62915,479.4024,-236.91093,1363.67017
36,0.292,393.86765,-355.10193,1365.85535,478.39529,-322.22699,1314.75049,479.09775,-236.88988,1363.43311
37,0.3,393.80118,-355.03659,1365.9679,477.99377,-322.53482,1314.90881,478.92841,-236.83766,1363.51196
38,0.308,393.11411,-355.42294,1366.27393,478.12784,-322.5788,1315.11743,478.58127,-236.64519,1363.39355
39,0.317,392.71118,-354.45239,1365.90833,477.99377,-322.53482,1314.90881,478.37903,-236.66846,1363.41211
40,0.325,392.71118,-354.45239,1365.90833,477.89136,-322.64771,1315.00659,478.54889,-237.97783,1363.50281
41,0.333,392.10333,-354.22321,1366.10352,477.90421,-322.87357,1315.29785,477.64456,-237.46478,1363.54297
42,0.342,391.86484,-354.64447,1366.31409,477.90421,-322.87357,1315.29785,477.48505,-237.91824,1363.87097
43,0.35,391.69357,-354.65546,1366.10754,478.14063,-322.80463,1315.40869,476.56555,-237.49727,1364.34595
44,0.358,391.74518,-354.72055,1366.27136,477.69455,-322.78473,1315.41858,476.86337,-238.39069,1364.53296
45,0.367,391.62805,-354.68881,1366.34143,477.98801,-322.33752,1315.17004,476.70886,-238.26636,1365.11597
46,0.375,391.65485,-355.02591,1366.43701,478.05637,-322.5495,1315.29614,475.80133,-237.48784,1365.81921
47,0.383,391.31982,-354.95959,1366.31445,477.65814,-322.06097,1315.57861,475.92642,-237.63263,1365.93896
48,0.392,391.31982,-354.95959,1366.31445,477.72821,-321.89828,1315.65601,476.40527,-238.19017,1366.32471
49,0.4,391.13153,-355.10815,1366.21692,477.65118,-322.06555,1315.74963,475.96838,-237.21567,1366.56677
50,0.408,390.85745,-354.99176,1366.07385,477.41647,-322.14233,1316.04041,475.96838,-237.21567,1366.56677
51,0.417,390.45325,-354.48907,1366.17554,477.38428,-322.06918,1316.21362,475.96838,-237.21567,1366.56677
52,0.425,390.45325,-354.48907,1366.17554,477.38428,-322.06918,1316.21362,475.89166,-237.33578,1366.70752
53,0.433,390.45325,-354.48907,1366.17554,477.45645,-321.79608,1316.49023,475.78238,-237.52246,1366.92432
54,0.442,390.34601,-354.60968,1366.31311,477.23871,-321.8251,1316.72009,475.5419,-237.25613,1366.84839
55,0.45,390.38092,-354.96725,1366.43591,477.16757,-321.91357,1316.92688,475.66086,-237.44604,1367.01587
56,0.458,390.17447,-355.00775,1366.44922,476.91226,-321.73624,1317.25159,475.24417,-237.27461,1366.8905
57,0.467,390.17447,-355.00775,1366.44922,476.81354,-321.94086,1317.17737,475.08133,-237.17735,1367.11279
58,0.475,389.93796,-354.91342,1366.32434,476.58661,-321.93958,1317.41785,473.84152,-236.88197,1367.2627
59,0.483,389.8201,-355.07343,1366.4469,476.00665,-321.81824,1317.56128,473.65176,-236.97838,1367.50977
60,0.492,389.8201,-355.07343,1366.4469,476.00116,-321.93066,1317.75317,473.46722,-236.98599,1367.53955
61,0.5,389.51477,-355.32114,1366.34436,475.69766,-322.22272,1317.9834,473.41602,-237.38766,1367.74792
62,0.508,388.3222,-355.56323,1366.29773,475.1991,-322.12994,1318.27136,472.81473,-237.92969,1368.06848
63,0.517,388.11227,-355.21518,1366.22314,474.82837,-322.48184,1318.29858,472.66125,-237.99791,1368.03845
64,0.525,387.55383,-355.15424,1366.19714,474.48029,-322.39319,1318.43884,472.20557,-238.13911,1367.81018
65,0.533,387.55383,-355.15424,1366.19714,474.32147,-322.5683,1318.53748,472.05823,-238.26151,1367.84851
66,0.542,387.02692,-355.53259,1366.13904,473.36728,-322.55276,1318.62,471.83258,-238.51588,1367.96265
67,0.55,386.11121,-355.46329,1366.23669,472.51251,-322.54541,1318.37073,472.02713,-239.11362,1367.89185
68,0.558,385.49036,-355.57666,1366.18469,472.47903,-322.70178,1318.44324,471.09982,-239.54791,1367.90808
69,0.567,385.33759,-355.40811,1366.07434,472.32755,-322.70593,1318.49023,469.85898,-238.58696,1367.92395
70,0.575,385.35815,-355.50571,1365.96509,471.83487,-322.40652,1318.39795,468.80591,-238.61072,1368.047
71,0.583,385.16641,-355.95004,1365.80371,471.37936,-322.45508,1318.45581,468.06012,-238.31183,1367.6687
72,0.592,385.00916,-356.00009,1365.80103,470.7197,-322.47925,1318.64233,467.75745,-237.64529,1367.64099
73,0.6,384.90167,-356.07593,1365.75562,470.44299,-322.43964,1318.80444,467.02866,-238.18187,1367.98267
74,0.608,384.70575,-356.00031,1365.89771,470.1868,-322.66782,1318.65723,466.29468,-238.2318,1368.07751
75,0.617,384.14679,-356.13165,1365.93701,469.64386,-323.45294,1319.53821,466.11053,-238.23813,1368.10901
76,0.625,382.87146,-356.02667,1365.68738,469.26434,-323.4238,1319.56531,465.7027,-238.31239,1367.83972
77,0.633,382.47961,-356.06271,1365.6228,468.88611,-323.41977,1319.55603,465.61185,-238.78149,1367.83533
78,0.642,382.08664,-356.0603,1365.354,468.28693,-323.36646,1319.94739,465.13705,-238.27655,1367.81372
79,0.65,382.08664,-356.0603,1365.354,468.28693,-323.36646,1319.94739,464.94238,-238.28665,1367.87329
80,0.658,381.97943,-356.14554,1365.29883,468.03098,-322.98312,1319.69043,463.20224,-237.73953,1367.85657
81,0.667,380.68381,-356.00577,1365.14099,467.38666,-322.43887,1319.34631,462.83221,-237.60434,1367.62695
82,0.675,380.29745,-356.44849,1365.07092,467.04773,-322.59583,1319.10266,462.59662,-238.02995,1367.64233
83,0.683,380.13577,-355.99304,1364.83569,466.59445,-322.6687,1319.33484,462.01096,-238.43903,1367.86584
84,0.692,379.61832,-356.43265,1365.08679,466.35864,-322.7836,1319.20447,461.16159,-238.26038,1367.93933
85,0.7,379.40332,-356.5744,1364.92944,466.35864,-322.7836,1319.20447,460.74789,-237.78073,1367.7583
86,0.708,378.74445,-357.47473,1364.68933,465.60022,-322.75073,1319.22266,460.53787,-238.23819,1367.65979
87,0.717,378.4985,-357.61746,1364.50208,465.19843,-323.25739,1319.23621,460.07394,-238.01744,1367.3302
88,0.725,378.19543,-357.6185,1364.2959,464.42035,-323.70392,1319.4491,459.60004,-238.54912,1367.09692
89,0.733,377.81683,-357.9892,1364.07385,463.09186,-323.27322,1318.77612,458.79105,-238.23798,1366.52734
90,0.742,377.5358,-357.8374,1363.85339,463.18533,-323.28696,1318.90002,457.07141,-237.62421,1366.45874
91,0.75,376.57968,-357.76706,1363.87292,462.52655,-323.52139,1318.60657,457.07141,-237.62421,1366.45874
92,0.758,376.29422,-357.7356,1363.70178,461.8291,-323.85623,1318.30383,456.72125,-238.11227,1366.54663
93,0.767,376.13809,-357.48083,1362.86353,461.79755,-323.97974,1318.1217,456.58578,-238.23138,1366.13867
94,0.775,374.69565,-357.44339,1362.80884,461.30121,-323.86365,1317.84082,456.34763,-238.47606,1365.93005
95,0.783,374.34341,-357.66977,1362.65527,460.92081,-323.83469,1317.86816,455.57367,-238.4911,1365.24988
96,0.792,374.00299,-357.89297,1362.24023,460.23904,-323.62939,1317.98096,454.96777,-238.78339,1365.62427
97,0.8,373.75656,-358.25909,1362.22998,460.13672,-323.71753,1317.84802,454.61243,-239.35083,1365.23157
98,0.808,373.51053,-358.40994,1362.14136,460.04782,-323.40005,1317.43445,454.09454,-238.78392,1365.01147
99,0.817,373.51053,-358.40994,1362.14136,459.50079,-323.81146,1317.38489,453.83237,-239.31128,1365.01123
100,0.825,373.31183,-359.23291,1362.15271,459.50079,-323.81146,1317.38489,452.59958,-239.35904,1364.51526
101,0.833,373.3013,-359.4194,1362.24988,459.89139,-324.76868,1317.65356,451.91843,-239.32587,1364.57813
102,0.842,373.194,-359.50504,1362.19495,459.89139,-324.76868,1317.65356,451.79611,-239.2683,1364.66602
103,0.85,372.65076,-359.8674,1361.83179,459.48502,-324.94281,1317.72083,451.31424,-239.23438,1364.47815
104,0.858,372.13892,-360.13107,1362.09509,458.93845,-325.24518,1317.70886,451.18527,-240.00084,1364.54175
105,0.867,372.03333,-360.89597,1362.12915,458.32675,-325.38876,1317.64478,450.61322,-239.35767,1364.42273
106,0.875,371.73511,-361.66852,1362.38098,456.67764,-326.56494,1318.12463,450.25934,-239.54906,1364.29773
107,0.883,371.50217,-362.14767,1362.78992,456.67764,-326.56494,1318.12463,449.74039,-240.96202,1364.45435
108,0.892,371.38477,-362.25348,1362.68689,456.6973,-326.91907,1318.43469,449.52444,-241.26408,1364.65088
109,0.9,371.53207,-362.48456,1362.8949,456.60776,-327.11755,1318.35046,449.25479,-241.04965,1364.76953
110,0.908,371.50064,-363.56339,1363.60425,456.36264,-327.02789,1318.47241,449.18964,-241.2617,1365.16199
111,0.917,371.62158,-363.88394,1364.37769,456.4631,-327.59482,1319.14087,449.21854,-241.70345,1365.20813
112,0.925,371.62158,-363.88394,1364.37769,456.4631,-327.59482,1319.14087,448.82022,-241.2818,1365.38477
113,0.933,371.58051,-364.38782,1364.83618,456.4631,-327.59482,1319.14087,448.42023,-241.59904,1366.06531
114,0.942,371.36212,-364.75061,1364.8219,456.27808,-327.93381,1319.52649,448.62073,-242.70976,1366.01587
115,0.95,371.36212,-364.75061,1364.8219,456.69904,-328.44775,1320.05005,448.19354,-242.77199,1366.6554
116,0.958,371.22061,-365.24506,1365.11694,456.70447,-328.97177,1319.70557,448.33356,-242.81441,1366.66553
117,0.967,371.24323,-365.83762,1365.35986,456.86377,-328.85919,1319.97583,448.06494,-242.57973,1366.82031
118,0.975,371.24323,-365.83762,1365.35986,456.93527,-329.30005,1320.15759,448.06494,-242.57973,1366.82031
119,0.983,370.93585,-365.60306,1365.76208,457.11832,-329.66068,1320.38123,448.29401,-242.85376,1367.05017
120,0.992,370.88434,-365.39783,1365.90198,458.24011,-330.11755,1320.48682,448.27997,-243.02904,1367.81201
121,1,370.88434,-365.39783,1365.90198,458.31802,-330.27979,1321.44055,448.52768,-243.61525,1368.1344
122,1.008,371.3186,-366.05313,1365.58167,458.24435,-330.50717,1321.63184,448.86215,-244.1133,1368.427
123,1.017,371.37042,-366.11771,1365.74585,458.24435,-330.50717,1321.63184,448.8447,-243.58549,1368.98547
124,1.025,371.37042,-366.11771,1365.74585,458.12131,-330.42996,1321.87415,449.34344,-244.03799,1369.43188
125,1.033,371.66306,-366.95914,1366.02014,458.36148,-330.72821,1322.79224,449.15009,-243.71199,1369.51392
126,1.042,371.73816,-367.19052,1366.41187,458.72806,-330.80902,1322.90564,449.67963,-243.65784,1370.30115
127,1.05,372.16486,-367.20392,1366.92529,459.00159,-330.8967,1323.25757,449.51785,-243.74426,1370.45276
128,1.058,372.44379,-367.34167,1367.06128,459.00159,-330.8967,1323.25757,449.64087,-243.94604,1370.245
129,1.067,372.58032,-367.15939,1367.1178,459.00159,-330.8967,1323.25757,449.63614,-244.1813,1370.20532
130,1.075,372.58032,-367.15939,1367.1178,459.00159,-330.8967,1323.25757,449.63614,-244.1813,1370.20532
131,1.083,372.58032,-367.15939,1367.1178,459.03275,-330.77347,1323.43896,449.67496,-244.09492,1370.28894
132,1.092,372.58032,-367.15939,1367.1178,459.03275,-330.77347,1323.43896,449.87851,-244.73328,1370.43652
133,1.1,372.58032,-367.15939,1367.1178,459.03275,-330.77347,1323.43896,449.5845,-244.20882,1370.41272
134,1.108,372.58032,-367.15939,1367.1178,459.03275,-330.77347,1323.43896,449.67496,-244.09492,1370.28894
135,1.117,372.58032,-367.15939,1367.1178,459.03275,-330.77347,1323.43896,449.48874,-244.30612,1370.55811
136,1.125,372.62106,-367.00464,1367.21899,459.03275,-330.77347,1323.43896,449.48874,-244.30612,1370.55811
137,1.133,372.54623,-366.82675,1367.27966,459.03275,-330.77347,1323.43896,449.48874,-244.30612,1370.55811
138,1.142,372.50549,-366.98154,1367.17847,459.03275,-330.77347,1323.43896,449.48874,-244.30612,1370.55811
139,1.15,372.54486,-366.48972,1367.25244,458.78882,-330.4863,1323.32422,449.41754,-243.94249,1370.59863
140,1.158,372.13638,-365.90451,1367.23901,458.60321,-330.61682,1323.65332,449.41754,-243.94249,1370.59863
141,1.167,371.78833,-365.59326,1367.49988,458.60321,-330.61682,1323.65332,449.25098,-243.87956,1370.5614
142,1.175,371.78091,-365.8663,1367.3114,458.34518,-330.23349,1323.39587,449.36401,-244.45284,1370.66113
143,1.183,371.66983,-365.83322,1367.38257,458.34518,-330.23349,1323.39587,449.11597,-243.92108,1370.54712
144,1.192,371.42587,-366.09198,1367.28113,457.68848,-329.63672,1322.88159,448.92258,-243.79471,1370.72534
145,1.2,371.26096,-365.8457,1367.2395,457.32657,-329.66476,1322.82764,448.6181,-244.22906,1370.40967
146,1.208,370.74429,-366.3436,1367.02051,456.92258,-329.20941,1322.36011,448.78046,-244.99707,1370.30017
147,1.217,370.73468,-365.9704,1366.96777,456.03961,-329.71588,1322.20776,448.5379,-244.46512,1370.17603
148,1.225,370.33688,-366.07813,1366.75769,455.47726,-329.63086,1321.89661,447.97614,-244.09492,1369.99231
149,1.233,369.72495,-365.84277,1366.95288,455.47726,-329.63086,1321.89661,448.05615,-244.97464,1369.92578
150,1.242,369.39279,-366.19821,1366.92188,455.0675,-329.75073,1321.7063,447.8959,-244.6449,1369.61877
151,1.25,369.46854,-366.15793,1366.73816,454.42236,-330.25552,1321.38892,446.93829,-244.41788,1369.79944
152,1.258,368.78833,-365.87354,1366.63196,454.23849,-330.48825,1321.43384,446.88995,-244.70601,1368.60657
153,1.267,368.57416,-365.95816,1366.51538,453.60605,-330.63824,1320.84924,446.28662,-244.83342,1368.73804
154,1.275,367.70657,-365.76682,1366.20557,453.4223,-330.87106,1320.89404,445.70093,-244.43759,1368.52197
155,1.283,367.7428,-365.56454,1366.02869,453.61273,-331.65799,1320.39612,445.58875,-244.44337,1368.20129
156,1.292,367.56735,-365.93524,1365.91772,453.45993,-331.5835,1320.13098,445.47833,-244.77824,1368.19861
157,1.3,367.3999,-367.14349,1366.12012,453.21417,-331.66129,1319.94324,444.94629,-245.96336,1367.823
158,1.308,366.92841,-367.26682,1365.36475,453.21417,-331.66129,1319.94324,444.88589,-245.61798,1367.67004
159,1.317,366.73001,-367.18533,1365.18213,452.97766,-331.7305,1319.8335,444.28958,-245.96823,1367.52661
160,1.325,366.26575,-366.87799,1365.06995,452.5621,-331.85236,1319.64063,444.03006,-246.07381,1367.0343
161,1.333,365.89047,-367.1384,1364.87878,452.42279,-331.75644,1319.3645,444.03598,-246.05141,1366.83203
162,1.342,365.418,-367.35019,1364.38232,451.11771,-330.93121,1318.77417,443.44144,-246.22021,1366.17456
163,1.35,365.08188,-367.19055,1364.17725,450.80554,-331.33673,1318.33643,443.20898,-245.94455,1366.04272
164,1.358,365.10251,-367.28778,1364.06836,450.80554,-331.33673,1318.33643,442.99454,-245.91335,1366.0575
165,1.367,364.9502,-367.12234,1363.95898,450.73215,-331.56406,1318.52795,442.57483,-245.48802,1365.82874
166,1.375,364.76193,-367.27353,1363.86328,449.96432,-331.16174,1318.34302,442.54941,-245.57228,1365.745
167,1.383,364.15167,-367.19247,1363.65186,448.72507,-331.08997,1317.90173,441.88358,-246.41069,1365.70825
168,1.392,364.15167,-367.19247,1363.65186,448.21631,-331.35245,1317.83728,441.35782,-246.43091,1365.86426
169,1.4,363.60486,-367.00809,1363.55029,448.21631,-331.35245,1317.83728,441.03571,-246.59714,1365.59302
170,1.408,363.3717,-367.14832,1363.54041,447.89722,-331.29248,1317.9137,441.03571,-246.59714,1365.59302
171,1.417,362.50986,-367.27744,1364.03125,447.0831,-331.51669,1318.11316,440.44656,-246.59705,1365.68591
172,1.425,362.27026,-367.59119,1364.2041,446.44867,-331.86371,1318.19287,439.50372,-245.41209,1365.17615
173,1.433,361.09027,-367.53085,1364.36975,445.98285,-332.03809,1318.30029,439.19211,-245.18073,1365.38513
174,1.442,361.09027,-367.53085,1364.36975,445.37885,-332.61957,1318.25916,438.97433,-245.40659,1365.32239
175,1.45,360.30774,-367.7352,1365.08472,445.142,-332.689,1318.14966,438.84149,-245.25313,1365.1958
176,1.458,359.56949,-367.59351,1364.82349,444.89645,-332.59976,1318.27148,438.5379,-246.18459,1365.35376
177,1.467,359.27719,-368.04568,1364.74048,444.89645,-332.59976,1318.27148,438.10077,-246.32037,1365.33545
178,1.475,358.58701,-367.34894,1364.70679,444.89645,-332.59976,1318.27148,437.70914,-247.56244,1365.547
179,1.483,357.59909,-367.49228,1364.37793,444.22873,-332.55872,1318.35449,437.55035,-248.25279,1365.71155
180,1.492,357.3671,-367.65128,1364.33447,443.24228,-332.82474,1318.14148,437.53159,-248.46562,1365.82996
181,1.5,357.23227,-367.7077,1364.18494,442.91797,-333.01538,1317.97192,437.35309,-248.54048,1365.79187
182,1.508,356.79636,-368.04099,1363.96167,442.26306,-333.48236,1318.10876,437.16974,-249.00543,1365.66541
183,1.517,356.61185,-367.85638,1363.83093,442.12991,-333.76111,1318.2926,436.77911,-248.54933,1365.13232
184,1.525,355.67999,-367.87735,1363.95276,442.2999,-333.89508,1317.71582,436.84766,-248.48917,1364.9353
185,1.533,355.09662,-368.40491,1363.45007,441.78418,-334.14374,1317.50305,436.11731,-248.06369,1364.23486
186,1.542,354.8526,-368.03616,1363.20605,440.95645,-333.83832,1316.64722,435.8334,-248.21741,1363.70813
187,1.55,354.41763,-368.16705,1363.18713,440.61859,-333.77396,1316.18066,435.03525,-247.65314,1363.59412
188,1.558,353.99817,-367.40839,1362.65063,440.11728,-333.65567,1315.81628,434.58984,-247.51698,1362.95093
189,1.567,354.00818,-367.56082,1362.4541,440.22418,-333.85428,1315.71509,434.18463,-247.34552,1362.40601
190,1.575,353.42578,-367.49832,1361.89587,439.97928,-334.05695,1315.12073,434.25717,-248.17276,1362.08801
