Frame#,Time,R.Forearm.x,R.Forearm.y,R.Forearm.z,R.Ulna.x,R.Ulna.y,R.Ulna.z,R.Radius.x,R.Radius.y,R.Radius.z
1,0,48.82172,-149.84045,967.33112,149.58223,-171.45636,962.78961,182.64613,-95.74245,1021.18408
2,0.008,48.73088,-149.64331,967.09351,149.58223,-171.45636,962.78961,182.47336,-95.67134,1021.17395
3,0.017,48.1313,-149.1559,966.98938,149.58223,-171.45636,962.78961,182.49423,-96.07982,1020.6134
4,0.025,48.1313,-149.1559,966.98938,148.78357,-170.93729,962.70758,182.27773,-95.96915,1021.08124
5,0.033,48.1313,-149.1559,966.98938,148.78357,-170.93729,962.70758,182.34769,-96.07953,1020.31268
6,0.042,48.1313,-149.1559,966.98938,148.48859,-170.9736,962.84106,182.1521,-96.37762,1020.21991
7,0.05,48.1313,-149.1559,966.98938,148.67015,-170.92719,962.59833,182.1521,-96.37762,1020.21991
8,0.058,48.1313,-149.1559,966.98938,148.67015,-170.92719,962.59833,182.08363,-96.44845,1020.32874
9,0.067,48.1313,-149.1559,966.98938,148.38094,-171.21149,962.74823,181.99611,-96.64567,1020.31622
10,0.075,48.0405,-148.9684,966.69135,148.38094,-171.21149,962.74823,181.53947,-96.29343,1020.35803
11,0.083,48.0405,-148.9684,966.69135,148.38094,-171.21149,962.74823,181.82205,-96.55769,1020.28168
12,0.092,48.0405,-148.9684,966.69135,148.38094,-171.21149,962.74823,181.82205,-96.55769,1020.28168
13,0.1,48.0405,-148.9684,966.69135,148.38094,-171.21149,962.74823,181.7182,-96.77834,1020.11121
14,0.108,48.0405,-148.9684,966.69135,148.38094,-171.21149,962.74823,181.87196,-96.75923,1020.1803
15,0.117,48.0405,-148.9684,966.69135,148.38094,-171.21149,962.74823,181.4736,-96.63087,1020.44025
16,0.125,48.0405,-148.9684,966.69135,148.57112,-171.35783,962.77032,181.65869,-96.66431,1020.40833
17,0.133,48.01635,-149.15749,966.50287,149.05086,-171.70398,962.72546,181.4736,-96.63087,1020.44025
18,0.142,47.72169,-149.11621,966.73761,149.60977,-172.60405,962.96082,182.23114,-96.88082,1020.18286
19,0.15,47.80358,-149.0468,966.78027,148.57112,-171.35783,962.77032,182.04698,-96.79143,1020.45709
20,0.158,48.0405,-148.9684,966.69135,149.36975,-171.87674,962.85236,182.1812,-96.67925,1020.2843
21,0.167,47.68649,-149.28416,966.93195,149.36975,-171.87674,962.85236,182.0858,-96.79917,1020.36652
22,0.175,47.76833,-149.2148,966.97467,148.64044,-171.84973,962.95886,182.13994,-96.59684,1020.97266
23,0.183,47.44954,-149.36259,967.02087,149.43915,-172.36855,963.04083,181.99706,-96.58989,1020.55847
24,0.192,47.38272,-149.44963,967.22797,149.43915,-172.36855,963.04083,182.21844,-96.7767,1020.82111
25,0.2,47.39395,-149.51138,967.19781,149.43915,-172.36855,963.04083,182.1734,-96.53559,1020.93549
26,0.208,47.28688,-149.55339,967.42786,149.43915,-172.36855,963.04083,182.04077,-96.55803,1020.48096
27,0.217,47.16087,-149.53383,967.32422,148.64044,-171.84973,962.95886,181.94952,-96.28959,1020.53406
28,0.225,46.82987,-149.69978,967.35913,148.64044,-171.84973,962.95886,181.04474,-96.31155,1020.74213
29,0.233,46.82987,-149.69978,967.35913,148.45024,-171.7034,962.93671,181.04474,-96.31155,1020.74213
30,0.242,46.55429,-149.94409,967.27362,148.34717,-171.69476,963.11401,181.19287,-96.20536,1020.61023
31,0.25,46.60984,-149.79532,967.09674,148.45024,-171.7034,962.93671,181.03638,-96.07491,1020.79047
32,0.258,46.30969,-150.10378,966.86554,148.14929,-171.17632,962.82074,181.03638,-96.07491,1020.79047
33,0.267,46.30969,-150.10378,966.86554,148.14929,-171.17632,962.82074,180.47215,-95.82893,1021.12457
34,0.275,46.56302,-149.98697,966.5672,147.88934,-171.42622,962.79156,180.47215,-95.82893,1021.12457
35,0.283,46.43317,-150.21515,966.31256,147.68604,-171.28653,962.7475,180.47215,-95.82893,1021.12457
36,0.292,46.40903,-150.40445,966.12427,147.7935,-171.4261,962.68921,180.20799,-95.95493,1021.19031
37,0.3,46.43317,-150.21515,966.31256,148.05344,-171.17621,962.71838,180.10069,-95.78941,1021.0824
38,0.308,46.43317,-150.21515,966.31256,147.89658,-171.43469,962.51184,180.10069,-95.78941,1021.0824
39,0.317,46.40903,-150.40445,966.12427,147.89658,-171.43469,962.51184,180.10069,-95.78941,1021.0824
40,0.325,46.40903,-150.40445,966.12427,147.74117,-171.3443,962.45789,180.10069,-95.78941,1021.0824
41,0.333,46.64604,-150.32605,966.03534,147.78911,-171.29512,962.57019,180.10069,-95.78941,1021.0824
42,0.342,46.64604,-150.32605,966.03534,148.15652,-171.1848,962.54108,180.62027,-95.72266,1020.99274
43,0.35,46.64604,-150.32605,966.03534,148.04906,-171.0452,962.59937,180.51007,-95.57656,1020.90192
44,0.358,46.70876,-150.15788,966.1759,148.54158,-170.9006,962.49359,180.92775,-95.82294,1020.79865
45,0.367,47.66601,-149.60234,966.1568,148.27333,-170.45532,962.26422,180.92775,-95.82294,1020.79865
46,0.375,47.88643,-149.38573,966.24817,148.44572,-170.90047,962.39117,181.08423,-95.95345,1020.61841
47,0.383,48.01635,-149.15749,966.50287,148.54158,-170.9006,962.49359,181.35092,-96.17946,1020.54297
48,0.392,48.01635,-149.15749,966.50287,148.54158,-170.9006,962.49359,181.40366,-95.97772,1020.14728
49,0.4,48.01635,-149.15749,966.50287,148.67015,-170.92719,962.59833,181.582,-96.26875,1020.27881
50,0.408,48.0405,-148.9684,966.69135,148.64207,-170.65932,962.0979,181.8679,-96.02653,1020.12115
51,0.417,48.0405,-148.9684,966.69135,149.09178,-170.69942,962.29871,182.08363,-96.44845,1020.32874
52,0.425,48.0405,-148.9684,966.69135,149.89043,-171.21857,962.3808,182.25853,-96.22764,1020.42072
53,0.433,48.16653,-148.98795,966.79504,149.673,-171.18063,962.50806,182.25853,-96.22764,1020.42072
54,0.442,48.16653,-148.98795,966.79504,149.58585,-171.04356,962.58527,182.52051,-96.15065,1020.32275
55,0.45,48.16653,-148.98795,966.79504,148.63516,-169.93346,962.31738,182.60141,-96.08606,1020.52899
56,0.458,48.16653,-148.98795,966.79504,148.548,-169.79626,962.39453,182.71616,-95.85275,1020.41559
57,0.467,48.16653,-148.98795,966.79504,148.548,-169.79626,962.39453,182.43462,-95.52951,1020.41376
58,0.475,48.05562,-148.47784,967.09357,148.548,-169.79626,962.39453,182.23212,-95.44157,1020.72784
59,0.483,48.05562,-148.47784,967.09357,148.16222,-170.10847,962.80969,182.16866,-95.40521,1021.22668
60,0.492,47.99436,-148.3197,967.14929,148.34381,-170.06209,962.56696,181.63374,-95.33145,1020.73676
61,0.5,47.65617,-148.32716,967.17554,148.1842,-169.9715,962.92847,181.30214,-95.51577,1021.14642
62,0.508,47.08826,-148.57143,967.29926,148.02699,-170.13008,963.51465,180.78119,-95.43057,1021.38062
63,0.517,47.08826,-148.57143,967.29926,148.02699,-170.13008,963.51465,180.78119,-95.43057,1021.38062
64,0.525,47.00003,-148.79366,967.18817,147.80951,-170.09195,963.64185,180.48016,-95.52901,1021.23126
65,0.533,46.06864,-148.47324,967.11884,147.81676,-170.00432,963.75879,179.93587,-95.56056,1021.61499
66,0.542,46.06864,-148.47324,967.11884,147.81676,-170.00432,963.75879,180.08676,-95.68525,1021.83533
67,0.55,46.06864,-148.47324,967.11884,147.90651,-169.80415,963.87408,179.97948,-95.51971,1021.72742
68,0.558,45.79305,-148.71765,967.03326,147.5186,-170.28604,964.10181,180.08528,-95.10072,1021.95575
69,0.567,45.51043,-148.19493,966.98938,147.5186,-170.28604,964.10181,180.19255,-95.26627,1022.06354
70,0.575,45.6273,-148.32677,967.00439,147.5186,-170.28604,964.10181,180.19255,-95.26627,1022.06354
71,0.583,45.51043,-148.19493,966.98938,147.5186,-170.28604,964.10181,180.09746,-95.56895,1022.63672
72,0.592,45.63882,-148.66608,967.25592,147.36061,-170.44554,964.68781,179.79193,-95.52422,1022.77368
73,0.6,45.6273,-148.32677,967.00439,146.82602,-170.35754,964.99384,179.79193,-95.52422,1022.77368
74,0.608,45.58332,-148.81485,967.43274,147.37871,-170.30583,964.84668,179.75768,-95.5871,1023.18573
75,0.617,45.58332,-148.81485,967.43274,147.37871,-170.30583,964.84668,179.75768,-95.5871,1023.18573
76,0.625,45.40489,-149.01147,967.59296,147.11571,-170.73547,964.72375,180.01411,-95.63507,1023.02612
77,0.633,45.54117,-149.28061,967.57513,147.35512,-171.46355,964.83203,180.01411,-95.63507,1023.02612
78,0.642,45.67378,-148.9886,967.67804,147.59999,-171.17355,964.79608,180.01411,-95.63507,1023.02612
79,0.65,45.8167,-149.03625,967.66064,147.46297,-171.12372,965.1062,179.87759,-96.01308,1023.1626
80,0.658,46.06651,-148.74118,967.87512,147.46297,-171.12372,965.1062,179.87759,-96.01308,1023.1626
81,0.667,45.89468,-148.95158,967.9978,147.46297,-171.12372,965.1062,180.01411,-95.63507,1023.02612
82,0.675,46.18725,-148.92346,968.15118,147.46297,-171.12372,965.1062,180.01411,-95.63507,1023.02612
83,0.683,46.01543,-149.13383,968.27386,147.64862,-170.97783,965.20941,180.01411,-95.63507,1023.02612
84,0.692,46.06651,-148.74118,967.87512,147.64862,-170.97783,965.20941,179.87759,-96.01308,1023.1626
85,0.7,45.91585,-149.14043,968.44958,147.64862,-170.97783,965.20941,180.60168,-95.29302,1023.17511
86,0.708,45.91585,-149.14043,968.44958,147.64862,-170.97783,965.20941,180.60168,-95.29302,1023.17511
87,0.717,45.91585,-149.14043,968.44958,147.64862,-170.97783,965.20941,180.60168,-95.29302,1023.17511
88,0.725,45.91585,-149.14043,968.44958,147.64862,-170.97783,965.20941,180.67375,-95.16383,1023.05835
89,0.733,45.91585,-149.14043,968.44958,147.64862,-170.97783,965.20941,180.67375,-95.16383,1023.05835
90,0.742,45.91585,-149.14043,968.44958,147.64862,-170.97783,965.20941,180.42986,-95.18655,1022.91498
91,0.75,46.21784,-148.75978,968.50012,147.64862,-170.97783,965.20941,180.42986,-95.18655,1022.91498
92,0.758,46.08768,-148.93005,968.3269,147.64281,-170.83931,965.37634,180.42986,-95.18655,1022.91498
93,0.767,45.95758,-148.70674,968.37109,147.40338,-170.11119,965.26813,180.42986,-95.18655,1022.91498
94,0.775,45.95758,-148.70674,968.37109,147.40338,-170.11119,965.26813,180.42986,-95.18655,1022.91498
95,0.783,45.95758,-148.70674,968.37109,147.40338,-170.11119,965.26813,180.42986,-95.18655,1022.91498
96,0.792,45.83685,-148.52448,968.09503,147.23418,-169.94859,965.28912,180.42986,-95.18655,1022.91498
97,0.8,45.83685,-148.52448,968.09503,147.01576,-169.88748,965.44427,180.09746,-95.56895,1022.63672
98,0.808,45.83685,-148.52448,968.09503,147.20522,-169.64613,965.40814,180.0862,-95.50588,1022.90942
99,0.817,45.79672,-148.33096,967.8689,147.20522,-169.64613,965.40814,180.0862,-95.50588,1022.90942
100,0.825,45.7033,-148.38339,968.07098,147.20522,-169.64613,965.40814,180.0862,-95.50588,1022.90942
101,0.833,45.57584,-148.33556,968.0069,147.20522,-169.64613,965.40814,180.0787,-95.35908,1022.9859
102,0.842,45.79672,-148.33096,967.8689,147.20522,-169.64613,965.40814,180.03505,-95.30163,1022.95917
103,0.85,45.47536,-148.34781,967.90436,147.20522,-169.64613,965.40814,180.0787,-95.35908,1022.9859
104,0.858,45.47536,-148.34781,967.90436,147.20522,-169.64613,965.40814,179.92941,-94.95055,1023.41119
105,0.867,45.79672,-148.33096,967.8689,147.16998,-169.54095,965.50146,179.92941,-94.95055,1023.41119
106,0.875,45.57584,-148.33556,968.0069,147.20522,-169.64613,965.40814,179.68881,-94.88592,1023.54877
107,0.883,45.57584,-148.33556,968.0069,147.1955,-169.49109,965.59943,179.6338,-94.61485,1023.66589
108,0.892,45.47536,-148.34781,967.90436,147.16026,-169.38589,965.69269,179.45377,-94.79289,1023.86163
109,0.9,45.48242,-148.38797,968.20892,147.16026,-169.38589,965.69269,179.6676,-94.92437,1023.7511
110,0.908,45.48157,-148.2724,968.38745,147.16026,-169.38589,965.69269,179.56381,-94.47733,1024.04688
111,0.917,45.66208,-148.10457,968.65045,147.16026,-169.38589,965.69269,179.36076,-94.57172,1024.08179
112,0.925,45.56964,-148.25597,969.25305,147.16026,-169.38589,965.69269,179.5907,-94.27062,1024.10852
113,0.933,45.56964,-148.25597,969.25305,147.32043,-169.33141,966.01361,179.46794,-94.34574,1024.19946
114,0.942,45.56964,-148.25597,969.25305,147.26422,-169.36124,965.91595,179.46794,-94.34574,1024.19946
115,0.95,45.56964,-148.25597,969.25305,147.32043,-169.33141,966.01361,179.46794,-94.34574,1024.19946
116,0.958,45.56964,-148.25597,969.25305,147.32043,-169.33141,966.01361,179.46794,-94.34574,1024.19946
117,0.967,45.56964,-148.25597,969.25305,147.28194,-169.10391,966.258,179.46794,-94.34574,1024.19946
118,0.975,45.59374,-148.06689,969.44159,147.28194,-169.10391,966.258,179.46794,-94.34574,1024.19946
119,0.983,45.59374,-148.06689,969.44159,147.28194,-169.10391,966.258,179.46794,-94.34574,1024.19946
120,0.992,45.59374,-148.06689,969.44159,146.94696,-169.21597,966.80316,179.46794,-94.34574,1024.19946
121,1,45.59374,-148.06689,969.44159,146.94696,-169.21597,966.80316,179.46794,-94.34574,1024.19946
122,1.008,45.59374,-148.06689,969.44159,147.31383,-169.14241,966.75177,179.46794,-94.34574,1024.19946
123,1.017,45.59374,-148.06689,969.44159,147.2292,-169.08693,966.84985,179.46794,-94.34574,1024.19946
124,1.025,45.59374,-148.06689,969.44159,147.2292,-169.08693,966.84985,179.5907,-94.27062,1024.10852
125,1.033,45.59374,-148.06689,969.44159,146.94696,-169.21597,966.80316,179.46794,-94.34574,1024.19946
126,1.042,45.59374,-148.06689,969.44159,146.94696,-169.21597,966.80316,179.53027,-94.24505,1024.09583
127,1.05,45.59374,-148.06689,969.44159,146.94696,-169.21597,966.80316,179.5907,-94.27062,1024.10852
128,1.058,45.39344,-148.33165,969.55493,146.67493,-169.3792,966.20087,179.46794,-94.34574,1024.19946
129,1.067,45.36934,-148.52071,969.36639,146.67493,-169.3792,966.20087,179.46794,-94.34574,1024.19946
130,1.075,45.39344,-148.33165,969.55493,146.67493,-169.3792,966.20087,179.46794,-94.34574,1024.19946
131,1.083,45.36934,-148.52071,969.36639,146.67493,-169.3792,966.20087,179.45377,-94.79289,1023.86163
132,1.092,45.36934,-148.52071,969.36639,146.67493,-169.3792,966.20087,179.46794,-94.34574,1024.19946
133,1.1,45.12029,-148.54016,969.38464,146.67493,-169.3792,966.20087,179.36076,-94.57172,1024.08179
134,1.108,45.18877,-148.68861,969.10339,146.61871,-169.40904,966.10321,179.2144,-94.74441,1023.87799
135,1.117,45.36934,-148.52071,969.36639,146.67493,-169.3792,966.20087,179.12482,-94.65222,1024.14514
136,1.125,45.12029,-148.54016,969.38464,146.67493,-169.3792,966.20087,179.18335,-94.83352,1023.76978
137,1.133,45.12029,-148.54016,969.38464,146.39259,-169.5083,966.15417,179.12482,-94.65222,1024.14514
138,1.142,44.93972,-148.70807,969.12164,146.67493,-169.3792,966.20087,179.12482,-94.65222,1024.14514
139,1.15,45.12029,-148.54016,969.38464,146.67493,-169.3792,966.20087,179.12482,-94.65222,1024.14514
140,1.158,45.12029,-148.54016,969.38464,146.67493,-169.3792,966.20087,179.12482,-94.65222,1024.14514
141,1.167,45.12029,-148.54016,969.38464,146.67493,-169.3792,966.20087,179.12482,-94.65222,1024.14514
142,1.175,45.00923,-148.27747,969.74036,146.67493,-169.3792,966.20087,178.9603,-94.5822,1024.28711
143,1.183,45.00923,-148.27747,969.74036,146.70692,-169.41771,966.6947,178.96014,-94.28942,1024.5636
144,1.192,44.81442,-147.97849,969.77203,146.70692,-169.41771,966.6947,178.64999,-93.75268,1024.37854
145,1.2,44.81442,-147.97849,969.77203,146.94696,-169.21597,966.80316,178.48743,-93.50333,1024.32483
146,1.208,44.91364,-148.11214,969.7691,146.94696,-169.21597,966.80316,178.65503,-94.24086,1024.56262
147,1.217,44.67082,-148.10176,969.75208,146.94696,-169.21597,966.80316,178.64999,-93.75268,1024.37854
148,1.225,44.54441,-147.81979,969.83563,146.94696,-169.21597,966.80316,178.96014,-94.28942,1024.5636
149,1.233,44.57161,-147.96811,969.755,146.94696,-169.21597,966.80316,178.48743,-93.50333,1024.32483
150,1.242,44.57161,-147.96811,969.755,146.94696,-169.21597,966.80316,178.64999,-93.75268,1024.37854
151,1.25,44.81442,-147.97849,969.77203,146.94696,-169.21597,966.80316,178.64999,-93.75268,1024.37854
152,1.258,44.78721,-147.83015,969.85266,146.94696,-169.21597,966.80316,178.83672,-94.10188,1024.52356
153,1.267,44.91364,-148.11214,969.7691,146.94696,-169.21597,966.80316,178.64999,-93.75268,1024.37854
154,1.275,45.25388,-147.0968,969.76697,146.94696,-169.21597,966.80316,178.64999,-93.75268,1024.37854
155,1.283,45.11396,-147.84734,969.65582,147.2292,-169.08693,966.84985,178.96014,-94.28942,1024.5636
156,1.292,44.91364,-148.11214,969.7691,147.2292,-169.08693,966.84985,178.96014,-94.28942,1024.5636
157,1.3,45.11396,-147.84734,969.65582,147.2292,-169.08693,966.84985,179.46794,-94.34574,1024.19946
158,1.308,45.72484,-147.5249,969.63635,147.2292,-169.08693,966.84985,179.46794,-94.34574,1024.19946
159,1.317,45.49813,-147.90157,969.47034,147.58551,-169.00652,966.81079,179.5907,-94.27062,1024.10852
160,1.325,45.59374,-148.06689,969.44159,147.28194,-169.10391,966.258,179.74384,-94.29929,1023.85114
161,1.333,45.59374,-148.06689,969.44159,147.7711,-169.00598,966.18964,179.8349,-94.50594,1023.83154
162,1.342,45.59374,-148.06689,969.44159,147.56049,-169.12964,966.12207,180.2222,-94.22413,1023.69537
163,1.35,45.59374,-148.06689,969.44159,147.56049,-169.12964,966.12207,180.19115,-94.31332,1023.58716
164,1.358,45.59374,-148.06689,969.44159,147.32043,-169.33141,966.01361,180.1507,-94.53771,1023.4353
165,1.367,45.56964,-148.25597,969.25305,147.32043,-169.33141,966.01361,180.27283,-94.6552,1023.52393
166,1.375,45.59374,-148.06689,969.44159,147.21649,-169.35606,965.79034,180.23676,-94.7197,1023.42639
167,1.383,45.56964,-148.25597,969.25305,147.21649,-169.35606,965.79034,180.1507,-94.53771,1023.4353
168,1.392,45.39344,-148.33165,969.55493,147.21649,-169.35606,965.79034,179.75136,-94.39944,1023.03271
169,1.4,45.56964,-148.25597,969.25305,147.16026,-169.38589,965.69269,179.75136,-94.39944,1023.03271
170,1.408,45.59374,-148.06689,969.44159,147.16026,-169.38589,965.69269,179.4624,-94.28453,1023.19434
171,1.417,45.12029,-148.54016,969.38464,147.16026,-169.38589,965.69269,179.34833,-94.13323,1023.09326
172,1.425,45.12029,-148.54016,969.38464,146.51472,-169.43369,965.87994,179.34833,-94.13323,1023.09326
173,1.433,45.04882,-148.18582,969.60193,146.57094,-169.40387,965.97754,179.11554,-94.29124,1023.33905
174,1.442,44.81442,-147.97849,969.77203,146.67493,-169.3792,966.20087,178.92924,-94.14816,1023.63953
175,1.45,44.67082,-148.10176,969.75208,146.33636,-169.53813,966.05652,178.71689,-94.04601,1023.70544
176,1.458,44.67082,-148.10176,969.75208,146.67493,-169.3792,966.20087,177.9534,-93.60176,1024.2301
177,1.467,44.57161,-147.96811,969.755,146.70692,-169.41771,966.6947,178.12856,-93.38085,1024.32214
178,1.475,44.45366,-148.09326,969.9024,146.70692,-169.41771,966.6947,178.12856,-93.38085,1024.32214
179,1.483,44.42647,-147.94495,969.98297,146.94696,-169.21597,966.80316,178.12856,-93.38085,1024.32214
180,1.492,44.57161,-147.96811,969.755,146.94696,-169.21597,966.80316,178.12856,-93.38085,1024.32214
181,1.5,44.42647,-147.94495,969.98297,146.94696,-169.21597,966.80316,178.12856,-93.38085,1024.32214
182,1.508,44.45366,-148.09326,969.9024,146.94696,-169.21597,966.80316,178.12856,-93.38085,1024.32214
183,1.517,44.45366,-148.09326,969.9024,146.83533,-169.08063,966.85229,178.21649,-93.4994,1024.05469
184,1.525,44.42647,-147.94495,969.98297,146.80037,-169.44424,967.0307,178.30495,-93.32683,1024.3075
185,1.533,44.45366,-148.09326,969.9024,146.80037,-169.44424,967.0307,178.7449,-93.8745,1024.09375
186,1.542,44.55285,-148.22691,969.89948,146.80037,-169.44424,967.0307,178.75027,-94.06949,1024.25586
187,1.55,44.73417,-148.29385,970.11731,146.80037,-169.44424,967.0307,178.99477,-94.61633,1024.46106
188,1.558,44.83339,-148.42749,970.11438,146.80037,-169.44424,967.0307,178.95839,-94.80922,1024.81104
189,1.567,44.92897,-148.59279,970.08563,146.80037,-169.44424,967.0307,178.85826,-94.99446,1024.59753
190,1.575,44.92897,-148.59279,970.08563,146.80037,-169.44424,967.0307,179.02829,-94.95398,1024.80371
191,1.583,44.75822,-148.70647,970.21851,146.4482,-170.20926,967.32343,179.02829,-94.95398,1024.80371
192,1.592,44.92897,-148.59279,970.08563,146.65144,-170.02567,967.19946,179.06255,-95.32901,1024.42188
193,1.6,45.16986,-148.56377,970.05566,146.18687,-170.08861,967.03424,179.49149,-95.35088,1024.40796
194,1.608,45.16986,-148.56377,970.05566,146.10786,-170.03403,966.86359,179.79607,-95.42195,1024.31738
195,1.617,45.06248,-148.73386,970.10968,145.98289,-170.58751,966.78046,179.79607,-95.42195,1024.31738
196,1.625,45.24019,-148.74361,970.24176,146.15234,-170.25642,966.53333,179.80272,-95.79974,1024.46008
197,1.633,45.17006,-148.80568,970.19769,145.90385,-170.5329,966.6098,179.76019,-95.96783,1023.94757
198,1.642,45.30339,-148.70485,970.07965,146.0007,-170.48186,966.2951,179.87077,-96.05907,1024.01184
