Frame#,Time,L.Forearm.x,L.Forearm.y,L.Forearm.z,L.Ulna.x,L.Ulna.y,L.Ulna.z,L.Radius.x,L.Radius.y,L.Radius.z
1,0,77.09845,277.83203,719.09833,91.67654,280.142,623.31519,163.07762,214.58122,638.07019
2,0.008,76.74297,277.362,719.77686,91.41668,278.93933,623.73755,163.5293,214.93668,638.6347
3,0.017,76.59894,276.42157,720.716,91.68392,279.34518,624.71521,163.67792,215.06451,639.22076
4,0.025,76.42837,274.90338,721.3479,91.68392,279.34518,624.71521,163.35698,214.55125,639.26453
5,0.033,76.39272,274.82922,721.42773,91.85988,279.77591,625.07623,163.5191,214.77039,639.4455
6,0.042,76.74124,274.77982,721.5343,91.81967,280.1236,625.44861,163.49318,214.8875,639.60498
7,0.05,76.7489,274.87256,721.66663,91.62902,280.2475,625.70819,163.69881,215.3037,639.56787
8,0.058,77.10051,275.45267,721.95679,91.56261,280.34961,625.62708,164.23521,216.48717,639.33606
9,0.067,77.22407,275.70236,721.54028,91.66224,281.16287,625.34149,164.0244,217.0583,639.43524
10,0.075,77.3798,276.66919,721.40881,91.66224,281.16287,625.34149,164.41267,217.39804,638.88953
11,0.083,77.8493,277.31802,720.99738,91.66682,281.76059,624.1944,164.33873,217.52928,638.56506
12,0.092,77.91693,277.74988,720.4823,91.51918,281.82471,624.00751,164.43417,217.63483,637.84924
13,0.1,77.78949,278.42786,719.92902,91.46744,282.09622,623.88269,164.6088,217.75011,637.51221
14,0.108,77.34368,278.63724,719.57886,91.0916,281.23642,622.20319,164.09286,217.99231,637.12244
15,0.117,77.13915,278.82001,719.2392,90.81948,281.30054,622.22552,163.97929,218.11801,636.2583
16,0.125,77.05738,278.80298,718.84729,90.36479,281.63318,622.06439,163.59966,218.84125,635.58514
17,0.133,77.17253,278.78067,718.677,90.14253,281.52139,621.90143,163.60097,218.60535,635.81317
18,0.142,77.17253,278.78067,718.677,90.14253,281.52139,621.90143,162.82207,217.89708,635.46265
19,0.15,77.05738,278.80298,718.84729,90.13457,281.37393,622.03333,162.81941,217.33942,636.62585
20,0.158,76.95944,278.46793,719.14105,89.59223,281.3721,622.45911,162.41409,216.50938,636.89404
21,0.167,76.73035,278.10168,719.5752,90.11946,280.16092,622.92096,162.02231,215.93794,637.26099
22,0.175,75.7149,277.32437,719.77863,90.82863,278.96323,623.74133,161.6418,215.43069,638.10803
23,0.183,75.40688,275.33337,721.02075,91.04703,279.52878,624.74176,161.62466,214.23506,638.67114
24,0.192,75.11813,274.91138,721.66559,91.25552,279.22797,625.32977,161.55737,213.7793,639.09796
25,0.2,74.71598,274.22968,721.83478,91.42902,278.88077,626.03326,162.06714,213.32164,640.5116
26,0.208,75.27344,273.7114,722.46185,91.62708,279.14145,626.31696,161.9278,213.06094,640.59503
27,0.217,74.99889,273.28082,722.65796,91.68652,278.99347,626.45068,162.28401,212.95496,640.60217
28,0.225,75.1461,273.12335,722.8634,91.68652,278.99347,626.45068,162.12228,213.0336,640.76367
29,0.233,75.40569,272.49814,723.06195,91.62867,279.9433,626.6178,162.25136,213.23628,640.73572
30,0.242,75.29359,273.33511,722.8446,91.56309,280.16501,626.42719,161.93613,213.38617,640.71045
31,0.25,75.54043,273.83554,722.79395,91.12506,280.6622,626.1889,161.82521,214.00313,640.10913
32,0.258,75.54043,273.83554,722.79395,90.65271,280.78848,626.16077,162.43327,216.0374,639.84204
33,0.267,74.73414,275.42267,722.17078,90.26501,281.54297,625.94849,162.39212,216.84177,639.30688
34,0.275,74.96107,276.31241,722.03479,90.21246,281.89862,625.21393,161.90674,216.51451,638.81171
35,0.283,75.03863,276.32147,721.60803,89.71187,282.36487,624.59698,161.37057,217.34303,637.64374
36,0.292,75.41702,278.95468,720.16553,89.15687,282.6138,623.79492,161.16287,217.54115,637.09937
37,0.3,75.48466,279.13214,719.79382,87.60345,283.43594,623.35736,161.29005,218.0329,636.64667
38,0.308,75.16665,280.48074,719.37567,87.67002,283.30823,622.46735,161.12117,218.18341,636.17145
39,0.317,75.12582,280.47211,719.17963,87.69067,282.39148,621.94965,160.62202,218.114,636.07568
40,0.325,75.02254,280.69821,718.77887,87.69067,282.39148,621.94965,160.53398,217.8981,635.96277
41,0.333,74.97129,280.8486,718.28943,87.29099,281.72092,621.62268,160.26469,217.38272,636.09686
42,0.342,74.54836,280.84381,718.91785,87.11097,281.33972,621.79034,160.37547,216.62408,636.86212
43,0.35,74.41459,280.44165,719.1123,87.36178,281.18329,622.16309,159.52502,216.12462,637.40149
44,0.358,74.21846,279.26318,719.78076,86.62233,279.73282,622.95972,159.31738,215.64969,637.99475
45,0.367,74.30774,278.69247,720.02509,88.16154,278.77927,624.09979,158.82349,214.94255,638.67969
46,0.375,73.67069,275.82736,721.3421,88.45506,279.6246,625.52582,159.36708,213.68179,640.01453
47,0.383,74.11019,275.52118,722.14655,89.59529,279.53043,626.61346,160.02322,212.41838,641.07318
48,0.392,73.49198,274.28574,723.24304,89.48906,279.37964,626.79572,159.94574,212.01089,641.31299
49,0.4,73.16389,272.9476,723.69653,90.70595,278.28568,627.24463,159.94574,212.01089,641.31299
50,0.408,73.47459,271.65195,723.81958,90.9107,278.29004,627.6311,160.26128,211.86095,641.33832
51,0.417,73.47459,271.65195,723.81958,90.76665,279.18127,627.75336,160.38306,211.74843,641.40991
52,0.425,73.80255,271.34781,724.0069,90.93675,280.12479,627.93317,160.58559,211.65092,641.30176
53,0.433,73.80255,271.34781,724.0069,90.94034,280.25534,627.80713,160.46381,211.76344,641.23016
54,0.442,74.11862,271.18396,724.03162,90.94034,280.25534,627.80713,160.59404,211.75462,641.20544
55,0.45,74.12636,271.63663,724.00916,90.94034,280.25534,627.80713,160.7041,212.5213,640.89929
56,0.458,74.69051,273.49646,723.41797,90.52707,280.87372,627.19342,161.58,213.49197,640.70331
57,0.467,75.50344,274.07382,722.92609,90.18102,281.65588,626.74713,161.06967,214.57683,639.43164
58,0.475,74.6799,275.75104,722.25012,90.03056,281.41144,625.85938,160.87663,215.16052,638.63232
59,0.483,74.96107,276.31241,722.03479,90.26832,281.6524,625.50464,161.27312,215.90187,638.52203
60,0.492,75.48534,277.31873,721.57642,89.41391,281.95599,624.90796,160.85619,216.65767,637.37079
61,0.5,75.89483,278.8559,720.92682,89.26225,282.09988,624.15552,161.06406,216.47154,637.19434
62,0.508,75.76387,279.22443,720.32385,89.16291,282.66846,624.07159,160.54608,216.12665,636.8396
63,0.517,75.60498,279.30161,720.05566,89.30028,281.7229,623.67188,160.74886,216.02869,636.73132
64,0.525,75.89926,279.12039,720.36975,89.25541,281.43768,624.13263,160.62805,215.56516,636.73779
65,0.533,75.80569,278.69791,720.51294,89.32841,281.04214,624.37061,160.62805,215.56516,636.73779
66,0.542,76.04071,277.19284,721.27618,90.36523,279.61157,624.63202,161.03125,214.65907,638.13452
67,0.55,76.1323,276.8721,721.81824,90.97107,278.95474,626.07623,161.30121,213.52773,638.27087
68,0.558,76.09087,273.9552,722.37494,91.0833,278.05179,626.26782,161.27823,212.36568,639.63745
69,0.567,75.96416,273.10089,723.04614,90.95869,277.37231,627.0509,161.25035,210.80229,640.42841
70,0.575,75.88055,271.91721,724.19598,91.06665,277.84537,627.81415,161.37953,210.40189,640.98254
71,0.583,76.09886,269.89166,725.2735,92.25858,277.09686,628.65448,161.3983,209.63744,641.25574
72,0.592,76.33824,268.18564,725.41724,92.53911,276.98386,629.26514,161.2159,208.15707,641.14575
73,0.6,76.16897,267.08929,725.78668,93.32038,276.57672,629.75299,160.41425,207.39555,641.27795
74,0.608,76.07097,266.90845,725.95258,93.50104,276.89761,630.20856,160.52669,206.4632,641.36615
75,0.617,76.03143,265.84875,725.96429,93.50104,276.89761,630.20856,160.52669,206.4632,641.36615
76,0.625,76.02461,265.2562,726.18683,93.34352,276.96741,630.52014,160.76637,206.36662,641.20721
77,0.633,76.02594,265.33069,725.87299,93.32038,276.57672,629.75299,160.65186,207.08604,640.91656
78,0.642,76.0799,266.0065,725.58838,92.83702,276.77429,629.53644,161.74037,208.30347,641.10132
79,0.65,76.06034,266.4115,724.94135,91.85384,276.51477,628.35126,162.06163,208.74239,640.79205
80,0.658,76.24514,266.95291,724.7735,91.58987,276.94897,627.34485,162.10323,209.23875,639.66913
81,0.667,76.11978,267.72726,724.50537,91.52843,276.94943,627.0072,162.93724,210.21461,639.33295
82,0.675,76.45017,269.3757,722.92871,91.09811,277.45071,626.31488,162.48547,210.49857,638.14209
83,0.683,77.03571,270.89459,722.12628,90.47863,276.8497,625.51025,162.16182,211.44244,636.98975
84,0.692,77.00711,271.95728,722.1507,89.97951,276.81387,624.57416,162.78252,212.27792,636.4035
85,0.7,76.86841,273.50888,721.3941,90.06137,276.94186,623.57745,162.71992,212.64648,636.02673
86,0.708,77.15951,274.86728,721.02771,90.19541,276.93484,623.35852,162.78673,213.29437,635.5368
87,0.717,77.52184,275.39642,720.7005,90.87311,277.43878,623.23267,163.68205,214.16707,635.32568
88,0.725,77.56336,275.45874,720.62372,90.87311,277.43878,623.23267,163.94444,214.58066,635.19421
89,0.733,77.74079,275.36667,720.64117,91.50306,278.11646,623.69226,164.02739,214.37372,635.69635
90,0.742,77.80132,275.34381,720.84546,91.50306,278.11646,623.69226,164.41367,213.54787,637.07556
91,0.75,78.0052,275.08466,721.21283,92.6357,277.99106,624.97217,163.98637,213.6658,637.39606
92,0.758,78.76575,274.21573,721.73041,92.39786,277.74966,625.32727,164.47878,213.93401,638.03937
93,0.767,78.44817,273.36838,722.21167,92.35529,277.83411,626.3443,164.01031,211.45331,639.80298
94,0.775,78.04189,272.25995,723.00732,92.93898,277.9252,626.84918,164.05383,211.45291,640.47406
95,0.783,77.62165,271.33737,723.11963,92.96087,277.80527,627.77765,164.03242,210.84419,640.68536
96,0.792,77.58823,269.69971,724.6875,93.53719,277.41431,628.68719,163.52553,210.6125,640.97998
97,0.8,77.5829,268.78629,725.38556,93.76703,277.38522,629.22992,163.38779,210.07744,641.16565
98,0.808,77.68861,268.28577,725.38733,93.85996,277.32343,629.87012,163.27757,210.03502,641.23163
99,0.817,77.7963,268.32016,725.93671,93.60982,277.75784,630.05896,163.27757,210.03502,641.23163
100,0.825,77.26124,268.03769,725.80042,93.38926,278.45044,630.0943,163.09398,210.44569,640.96008
101,0.833,77.25132,267.84143,726.04779,92.55367,278.78955,630.0506,162.75137,210.67918,641.03308
102,0.842,77.38941,268.15475,726.10248,92.55367,278.78955,630.0506,162.97144,211.1701,640.87299
103,0.85,77.37057,268.90811,725.53339,91.89426,279.14255,628.45233,162.28767,212.30714,639.56152
104,0.858,77.42191,269.5376,725.61359,91.42606,280.08423,627.85046,162.36008,213.13673,638.95239
105,0.867,76.56181,270.72049,725.05121,90.9946,280.62686,627.75433,161.83539,214.14851,638.5636
106,0.875,77.10757,272.41815,723.73065,90.53564,281.70602,626.89471,161.85263,215.34406,638.00043
107,0.883,76.77714,273.78073,723.29584,90.46389,281.66785,626.32599,162.41296,216.65103,637.00238
108,0.892,77.23814,274.85049,722.14374,89.88218,281.98965,625.06219,162.75462,217.74223,636.47662
109,0.9,77.44272,276.44559,721.42365,89.34422,282.98825,624.52698,162.77225,218.00258,635.97308
110,0.908,77.67683,277.13058,720.80756,89.03246,282.56262,623.86517,163.05426,218.34409,635.66974
111,0.917,77.082,278.81375,719.90216,89.01624,283.15326,623.27948,163.25865,219.12381,635.41388
112,0.925,77.082,278.81375,719.90216,89.51289,282.302,623.12366,163.38652,219.27139,635.34393
113,0.933,77.02401,279.39423,719.74243,89.57043,281.82803,622.42035,163.72748,218.98883,635.51526
114,0.942,77.23675,279.82895,719.89423,89.78927,282.00778,622.88007,163.65671,218.52373,636.09778
115,0.95,77.23675,279.82895,719.89423,90.99621,281.13773,623.01215,163.8143,217.92192,637.13855
116,0.958,77.11591,278.9971,719.83087,91.36826,281.20218,623.54767,164.37828,217.60193,637.54425
117,0.967,77.082,278.81375,719.90216,91.28583,281.34628,624.73102,164.34645,216.63966,638.31183
118,0.975,77.60569,277.55103,720.66791,91.40314,280.68057,625.29944,164.30795,216.09433,638.7951
119,0.983,77.58492,276.8876,721.1759,91.37926,280.23428,625.10077,163.81693,215.21367,639.09973
120,0.992,77.05132,275.67117,721.7674,92.23035,280.41217,626.16125,163.17485,214.39117,639.15857
121,1,76.7093,275.06671,721.95929,92.23035,280.41217,626.16125,163.17065,214.24702,639.28223
122,1.008,76.3178,274.26794,722.19153,92.38309,280.30505,626.22589,162.76816,213.70267,639.10938
123,1.017,76.46524,273.68588,722.33752,92.23255,281.00433,626.23822,162.76816,213.70267,639.10938
124,1.025,76.39378,273.73291,722.4928,91.81226,281.16006,626.24084,162.99982,214.25377,638.7605
125,1.033,76.46524,273.68588,722.33752,91.54382,281.34842,626.12744,163.54651,214.9304,638.86029
126,1.042,76.39378,273.73291,722.4928,91.46078,281.99323,626.07617,163.51497,216.23067,638.68298
127,1.05,77.01019,274.67169,722.04791,91.46078,281.99323,626.07617,163.7225,216.94002,638.24188
128,1.058,77.04308,275.5365,722.12177,91.15196,282.60184,625.13043,163.864,217.60194,637.5589
129,1.067,77.27626,276.37753,721.3952,90.91933,282.91946,624.53278,163.8143,217.92192,637.13855
130,1.075,77.69412,277.73257,720.67847,89.89455,283.45987,623.69806,163.50658,218.40244,636.53448
131,1.083,77.11632,278.78055,719.70502,89.64513,283.20807,623.13751,163.54697,218.86278,635.77203
132,1.092,77.21808,279.82199,719.60779,89.19778,283.31583,622.21539,163.42412,219.67226,634.90662
133,1.1,77.58207,280.35379,718.76764,89.2289,283.4455,621.60583,163.11275,220.91591,634.15753
134,1.108,77.80763,281.03781,718.4884,89.18477,283.69046,621.16748,163.57881,221.39362,633.50958
135,1.117,78.17007,281.8501,717.44989,89.74855,283.80823,620.82806,164.29541,221.30266,633.42627
136,1.125,78.17007,281.8501,717.44989,90.54641,282.1424,620.64471,165.03838,220.7952,633.97906
137,1.133,78.51131,281.7402,717.30206,90.79448,282.09766,620.61249,165.04851,219.17867,634.54846
138,1.142,78.4481,281.68076,717.38458,91.57523,281.15201,621.25055,165.13486,218.54861,634.90063
139,1.15,78.77906,280.68909,717.66699,91.7975,281.26373,621.41357,164.4924,217.33403,636.03284
140,1.158,77.97531,278.8905,718.15955,92.79323,280.62042,622.38562,164.64857,216.33755,637.09595
141,1.167,78.22594,278.62161,718.53345,93.27682,279.12283,622.83392,164.96271,214.96902,637.74939
142,1.175,79.32481,276.78445,719.29462,94.06356,278.82391,623.17242,164.61453,213.70973,637.70288
143,1.183,79.33645,276.01138,720.14661,95.07199,278.39148,623.55621,163.98604,212.15918,637.78247
144,1.192,79.18636,274.94083,720.69934,95.01892,278.22015,624.01489,164.57364,210.58914,638.71503
145,1.2,79.44287,273.19238,721.46161,95.20801,278.05289,624.7832,164.59096,210.49437,638.46771
146,1.208,79.68322,272.57935,721.66815,95.20801,278.05289,624.7832,164.42589,210.40392,637.5058
147,1.217,80.16525,270.67648,721.3667,95.90829,278.77246,625.18707,164.6821,210.68713,637.49023
148,1.225,80.15018,270.66885,721.14825,95.90829,278.77246,625.18707,164.72427,210.79504,637.39246
149,1.233,80.36202,270.58981,721.03906,95.72757,278.45151,624.73083,164.94644,211.06844,636.8421
150,1.242,80.91656,270.35623,720.77014,95.91165,278.60703,624.13971,165.33873,211.65022,636.54181
151,1.25,80.9822,270.77847,720.58887,95.46648,278.45764,623.61566,165.72296,212.46414,636.20001
152,1.258,80.80901,273.01596,719.80341,95.62341,278.85632,623.45758,166.26871,213.83322,635.18945
153,1.267,80.47149,273.37479,719.17529,94.84117,280.08548,622.46033,166.42668,214.64009,634.68646
154,1.275,80.27242,275.19025,718.3728,93.66942,280.44232,621.29376,166.75945,215.36368,634.18048
155,1.283,80.67879,276.45483,716.93317,93.20216,281.61282,620.96466,166.64241,216.78807,633.34668
156,1.292,80.26311,277.20889,716.40863,92.96342,281.30771,620.42297,165.65652,217.03896,632.41388
157,1.3,80.92881,279.10114,716.10889,91.97196,281.67587,618.88379,165.45477,218.30121,631.63428
158,1.308,80.71959,279.75766,715.50629,92.15087,281.98831,617.98846,165.88701,219.2784,631.44617
159,1.317,80.68258,280.99207,714.74097,91.96155,281.84781,618.32898,165.90144,219.63718,632.03339
160,1.325,80.43711,281.34915,714.76801,91.96155,281.84781,618.32898,166.13837,219.79526,632.33514
161,1.333,79.80296,282.15515,715.2287,91.74899,281.42856,618.83301,166.31746,218.4881,633.39783
162,1.342,79.78327,282.43207,715.15723,91.56152,281.12234,619.74701,166.19209,218.25574,634.11664
163,1.35,79.74591,282.3851,715.97498,92.87075,281.02478,620.56055,166.11818,217.9218,634.45831
164,1.358,79.92242,281.62064,716.2962,93.09305,281.13647,620.72363,165.9213,216.59882,636.07965
165,1.367,79.47943,281.16785,716.63849,93.20669,279.63297,621.1546,165.36458,215.54602,636.33911
166,1.375,80.17857,278.97803,717.85901,93.989,278.68167,622.28577,165.21725,214.50757,636.98553
167,1.383,79.18133,277.16739,718.24792,94.19508,279.05893,623.03632,165.02417,214.036,637.07568
168,1.392,79.24756,276.54153,719.60529,94.85831,278.90213,623.46295,165.20726,213.4879,637.06097
169,1.4,79.33286,275.07208,720.84387,95.60206,279.5752,624.13373,164.4265,212.58733,636.97467
170,1.408,79.45323,274.3909,721.3222,96.07497,280.23697,625.03235,164.61604,212.4985,637.22906
171,1.417,79.44287,273.19238,721.46161,95.95111,281.61252,625.78864,164.83972,213.01207,637.33136
172,1.425,79.35257,272.99759,722.05042,95.66699,282.02118,626.16162,164.73497,213.38913,637.09283
173,1.433,79.74354,272.55063,722.27002,95.66665,282.30649,625.59296,165.24135,214.85435,637.38049
174,1.442,79.35257,272.99759,722.05042,95.59093,283.26761,625.2666,165.08902,215.60118,637.11511
175,1.45,79.43418,273.13278,721.53625,94.86239,283.14215,624.61353,165.65022,216.65483,636.57715
176,1.458,79.5183,274.76608,721.05347,94.28541,284.07074,623.91162,165.71713,217.24255,635.95331
177,1.467,79.10608,275.59821,720.18195,92.81926,283.59503,622.18042,165.80212,218.02312,635.38721
178,1.475,79.12968,276.51138,718.92523,92.6809,283.69373,621.83478,165.91235,218.23914,634.65314
179,1.483,79.43271,277.61469,717.45618,91.98569,283.55832,621.60596,165.47771,219.26543,633.36646
180,1.492,79.58312,278.19946,716.77155,91.57879,283.86172,621.03271,165.46446,220.03888,633.02057
181,1.5,79.63094,280.42245,716.00989,91.54034,283.05383,619.21558,165.70215,221.09856,632.94116
182,1.508,79.4404,281.44449,715.75842,91.54715,282.95587,618.68213,165.14099,221.50716,632.63116
183,1.517,79.17374,282.45239,715.31073,90.89118,283.13062,618.24487,165.55786,221.87518,633.00665
184,1.525,78.85136,282.82785,714.68384,90.89118,283.13062,618.24487,165.92085,222.01402,633.26959
185,1.533,78.35683,283.08417,714.86023,91.54715,282.95587,618.68213,165.75388,221.7831,633.19031
186,1.542,78.053,283.26358,714.8382,91.53191,282.01111,618.83008,165.4296,220.51813,634.25458
187,1.55,77.62901,283.42117,714.91827,91.54556,281.60651,619.2561,165.49327,219.24084,634.8905
188,1.558,77.57404,283.47882,715.57904,91.29351,281.33728,619.63611,165.16808,218.66991,635.33929
189,1.567,77.46458,283.30951,715.94446,91.85847,281.62479,620.56256,164.37976,217.82693,636.0329
190,1.575,77.39734,282.50195,715.96484,91.67991,281.92093,621.04584,164.16441,217.12859,636.74805
191,1.583,76.89757,280.29645,716.50848,92.05776,281.909,621.26581,164.0667,217.1376,636.98865
192,1.592,76.64201,280.39575,716.78644,92.05776,281.909,621.26581,164.0667,217.1376,636.98865
193,1.6,76.64285,280.16229,717.01428,92.05776,281.909,621.26581,164.0667,217.1376,636.98865
194,1.608,76.40923,279.5271,717.41095,92.05776,281.909,621.26581,164.0667,217.1376,636.98865
195,1.617,76.38287,279.02051,717.49512,91.90487,282.01624,621.20142,164.0667,217.1376,636.98865
196,1.625,76.48357,279.36005,717.24945,91.6362,282.20505,621.08826,163.96164,217.8577,636.76166
197,1.633,76.64201,280.39575,716.78644,91.06583,283.02203,620.79919,164.15755,218.7032,636.23718
198,1.642,76.71635,280.2287,716.62494,90.60938,283.19998,620.84515,163.76529,220.0742,635.2052
199,1.65,77.22405,281.89502,716.23242,90.22797,283.28992,619.77496,163.82072,220.60506,635.05164
200,1.658,76.84198,283.05338,715.36957,89.87525,283.97668,619.0921,164.0793,221.28291,634.53094
201,1.667,76.49564,283.95587,714.95239,89.58548,284.23755,618.41345,164.27411,222.08871,633.5459
202,1.675,76.03133,285.26132,714.24469,89.47387,284.63156,617.73944,164.5181,223.62302,633.21002
203,1.683,75.99789,285.56799,713.27576,88.75733,284.62381,616.55316,164.47827,223.78796,632.92554
204,1.692,76.25186,286.46054,712.7085,87.93771,284.82004,616.24561,164.38222,224.19504,632.38562
205,1.7,76.85303,287.21841,712.6333,88.37003,284.96854,615.79907,164.60449,224.38252,631.61713
206,1.708,77.18669,287.3313,712.66968,88.37003,284.96854,615.79907,164.57791,224.11519,631.2052
