Frame#,Time,R.Forearm.x,R.Forearm.y,R.Forearm.z,R.Ulna.x,R.Ulna.y,R.Ulna.z,R.Radius.x,R.Radius.y,R.Radius.z
1,0,528.76776,-149.33017,1323.30957,623.8009,-154.229,1298.75537,608.07037,-58.05971,1331.45764
2,0.008,527.94086,-150.1068,1323.50391,623.8009,-154.229,1298.75537,609.70618,-60.25434,1331.86633
3,0.017,528.76776,-149.33017,1323.30957,623.8009,-154.229,1298.75537,611.0379,-60.84334,1332.02234
4,0.025,528.76776,-149.33017,1323.30957,623.81293,-154.37901,1298.67993,610.57025,-61.46407,1332.31128
5,0.033,528.76776,-149.33017,1323.30957,623.8009,-154.229,1298.75537,611.0379,-60.84334,1332.02234
6,0.042,528.76776,-149.33017,1323.30957,623.81293,-154.37901,1298.67993,610.57025,-61.46407,1332.31128
7,0.05,528.76776,-149.33017,1323.30957,624.00116,-154.48799,1298.74097,611.0379,-60.84334,1332.02234
8,0.058,528.76776,-149.33017,1323.30957,624.00116,-154.48799,1298.74097,610.57025,-61.46407,1332.31128
9,0.067,530.54736,-149.39055,1323.69519,624.18829,-154.92084,1298.90417,611.0379,-60.84334,1332.02234
10,0.075,530.54736,-149.39055,1323.69519,624.18829,-154.92084,1298.90417,610.57025,-61.46407,1332.31128
11,0.083,530.54736,-149.39055,1323.69519,624.18829,-154.92084,1298.90417,611.0379,-60.84334,1332.02234
12,0.092,530.54736,-149.39055,1323.69519,624.18829,-154.92084,1298.90417,610.64246,-61.28611,1332.62219
13,0.1,530.54736,-149.39055,1323.69519,624.18829,-154.92084,1298.90417,611.11383,-60.59786,1332.40295
14,0.108,530.54736,-149.39055,1323.69519,624.18829,-154.92084,1298.90417,610.64246,-61.28611,1332.62219
15,0.117,530.54736,-149.39055,1323.69519,624.50269,-154.85713,1298.92249,611.0379,-60.84334,1332.02234
16,0.125,530.54736,-149.39055,1323.69519,624.50269,-154.85713,1298.92249,610.64246,-61.28611,1332.62219
17,0.133,530.54736,-149.39055,1323.69519,624.50269,-154.85713,1298.92249,611.0379,-60.84334,1332.02234
18,0.142,530.54736,-149.39055,1323.69519,624.69409,-154.70055,1299.0426,611.11719,-61.53537,1332.37476
19,0.15,530.54736,-149.39055,1323.69519,624.69409,-154.70055,1299.0426,611.93127,-60.47214,1332.50854
20,0.158,530.54736,-149.39055,1323.69519,624.69409,-154.70055,1299.0426,611.34424,-61.33097,1332.77966
21,0.167,530.54736,-149.39055,1323.69519,624.69409,-154.70055,1299.0426,611.93127,-60.47214,1332.50854
22,0.175,530.54736,-149.39055,1323.69519,624.78796,-154.81972,1298.89795,611.84656,-60.55954,1332.58936
23,0.183,530.54736,-149.39055,1323.69519,624.69409,-154.70055,1299.0426,611.84656,-60.55954,1332.58936
24,0.192,530.54736,-149.39055,1323.69519,624.78796,-154.81972,1298.89795,611.84656,-60.55954,1332.58936
25,0.2,530.54736,-149.39055,1323.69519,625.1391,-154.72568,1298.94348,611.84656,-60.55954,1332.58936
26,0.208,530.54736,-149.39055,1323.69519,624.8938,-154.82091,1299.17883,611.84656,-60.55954,1332.58936
27,0.217,530.54736,-149.39055,1323.69519,624.67334,-155.00372,1299.01587,611.84656,-60.55954,1332.58936
28,0.225,530.54736,-149.39055,1323.69519,625.02441,-154.90968,1299.0614,611.84656,-60.55954,1332.58936
29,0.233,530.42755,-149.14738,1324.14014,625.68079,-155.53178,1299.31213,611.84656,-60.55954,1332.58936
30,0.242,530.42755,-149.14738,1324.14014,625.68079,-155.53178,1299.31213,611.84656,-60.55954,1332.58936
31,0.25,530.42755,-149.14738,1324.14014,625.68079,-155.53178,1299.31213,611.84656,-60.55954,1332.58936
32,0.258,530.42755,-149.14738,1324.14014,626.10004,-155.44696,1299.33667,611.84656,-60.55954,1332.58936
33,0.267,530.42755,-149.14738,1324.14014,626.10004,-155.44696,1299.33667,611.84656,-60.55954,1332.58936
34,0.275,530.42755,-149.14738,1324.14014,626.10004,-155.44696,1299.33667,611.84656,-60.55954,1332.58936
35,0.283,530.42755,-149.14738,1324.14014,626.10004,-155.44696,1299.33667,611.84656,-60.55954,1332.58936
36,0.292,530.42755,-149.14738,1324.14014,625.89948,-155.3725,1299.45007,611.84656,-60.55954,1332.58936
37,0.3,530.42755,-149.14738,1324.14014,626.10004,-155.44696,1299.33667,611.84656,-60.55954,1332.58936
38,0.308,530.42755,-149.14738,1324.14014,626.96198,-155.94684,1299.68896,611.84656,-60.55954,1332.58936
39,0.317,530.42755,-149.14738,1324.14014,626.68591,-156.08482,1299.5835,611.84656,-60.55954,1332.58936
40,0.325,530.42755,-149.14738,1324.14014,625.89948,-155.3725,1299.45007,611.84656,-60.55954,1332.58936
41,0.333,530.42755,-149.14738,1324.14014,626.88641,-156.1591,1299.47009,611.84656,-60.55954,1332.58936
42,0.342,530.42755,-149.14738,1324.14014,626.38867,-155.27361,1299.47864,611.84656,-60.55954,1332.58936
43,0.35,530.42755,-149.14738,1324.14014,626.96198,-155.94684,1299.68896,611.84656,-60.55954,1332.58936
44,0.358,530.42755,-149.14738,1324.14014,626.50342,-155.08969,1299.36084,611.84656,-60.55954,1332.58936
45,0.367,530.42755,-149.14738,1324.14014,627.28986,-155.80197,1299.49426,611.84656,-60.55954,1332.58936
46,0.375,530.42755,-149.14738,1324.14014,626.8028,-154.78162,1299.28076,611.84656,-60.55954,1332.58936
47,0.383,530.42755,-149.14738,1324.14014,627.58929,-155.49406,1299.41431,611.84656,-60.55954,1332.58936
48,0.392,530.42755,-149.14738,1324.14014,627.58929,-155.49406,1299.41431,611.84656,-60.55954,1332.58936
49,0.4,530.42755,-149.14738,1324.14014,627.58929,-155.49406,1299.41431,611.84656,-60.55954,1332.58936
50,0.408,531.22339,-148.56459,1323.38757,627.57739,-155.34427,1299.48962,611.84656,-60.55954,1332.58936
51,0.417,531.22339,-148.56459,1323.38757,626.79089,-154.63173,1299.35608,611.84656,-60.55954,1332.58936
52,0.425,530.98419,-149.05966,1323.12671,626.03564,-153.59845,1299.24988,611.84656,-60.55954,1332.58936
53,0.433,531.22339,-148.56459,1323.38757,626.00372,-153.92061,1299.22278,611.84656,-60.55954,1332.58936
54,0.442,530.98419,-149.05966,1323.12671,625.86469,-152.7079,1298.77136,611.84656,-60.55954,1332.58936
55,0.45,530.98419,-149.05966,1323.12671,625.86469,-152.7079,1298.77136,611.84656,-60.55954,1332.58936
56,0.458,530.98419,-149.05966,1323.12671,625.86469,-152.7079,1298.77136,611.84656,-60.55954,1332.58936
57,0.467,530.98419,-149.05966,1323.12671,625.86469,-152.7079,1298.77136,611.84656,-60.55954,1332.58936
58,0.475,530.98419,-149.05966,1323.12671,625.86469,-152.7079,1298.77136,611.84656,-60.55954,1332.58936
59,0.483,530.98419,-149.05966,1323.12671,626.19299,-152.87491,1299.29187,611.84656,-60.55954,1332.58936
60,0.492,531.22339,-148.56459,1323.38757,626.19299,-152.87491,1299.29187,611.84656,-60.55954,1332.58936
61,0.5,530.98419,-149.05966,1323.12671,625.19891,-151.43468,1298.61926,611.84656,-60.55954,1332.58936
62,0.508,531.22339,-148.56459,1323.38757,626.03778,-152.44037,1299.20105,611.84656,-60.55954,1332.58936
63,0.517,531.22339,-148.56459,1323.38757,625.37402,-151.1601,1298.46069,611.84656,-60.55954,1332.58936
64,0.525,531.22339,-148.56459,1323.38757,625.35974,-150.72125,1298.34375,611.84656,-60.55954,1332.58936
65,0.533,530.98419,-149.05966,1323.12671,626.28076,-151.86572,1299.05322,611.84656,-60.55954,1332.58936
66,0.542,531.22339,-148.56459,1323.38757,626.34326,-151.68629,1298.96362,611.84656,-60.55954,1332.58936
67,0.55,531.22339,-148.56459,1323.38757,626.28076,-151.86572,1299.05322,611.84656,-60.55954,1332.58936
68,0.558,530.98419,-149.05966,1323.12671,626.34326,-151.68629,1298.96362,611.84656,-60.55954,1332.58936
69,0.567,531.22339,-148.56459,1323.38757,626.34326,-151.68629,1298.96362,611.84656,-60.55954,1332.58936
70,0.575,531.22339,-148.56459,1323.38757,626.34326,-151.68629,1298.96362,611.93585,-60.38516,1333.30872
71,0.583,531.22339,-148.56459,1323.38757,625.992,-152.03922,1298.91113,611.84656,-60.55954,1332.58936
72,0.592,530.98419,-149.05966,1323.12671,626.34326,-151.68629,1298.96362,611.84656,-60.55954,1332.58936
73,0.6,530.98419,-149.05966,1323.12671,626.05444,-151.8598,1298.82153,611.84656,-60.55954,1332.58936
74,0.608,530.98419,-149.05966,1323.12671,626.47736,-151.60977,1298.323,611.84656,-60.55954,1332.58936
75,0.617,531.22339,-148.56459,1323.38757,626.05444,-151.8598,1298.82153,611.84656,-60.55954,1332.58936
76,0.625,530.98419,-149.05966,1323.12671,626.53979,-151.4303,1298.2334,611.93585,-60.38516,1333.30872
77,0.633,530.98419,-149.05966,1323.12671,626.05444,-151.8598,1298.82153,611.84656,-60.55954,1332.58936
78,0.642,530.98419,-149.05966,1323.12671,626.36591,-151.66829,1298.32593,611.84656,-60.55954,1332.58936
79,0.65,531.22339,-148.56459,1323.38757,626.36591,-151.66829,1298.32593,611.93585,-60.38516,1333.30872
80,0.658,531.22339,-148.56459,1323.38757,626.36591,-151.66829,1298.32593,611.93585,-60.38516,1333.30872
81,0.667,531.22339,-148.56459,1323.38757,626.07709,-151.84175,1298.18384,611.93585,-60.38516,1333.30872
82,0.675,531.22339,-148.56459,1323.38757,625.88062,-152.09761,1298.91394,611.93585,-60.38516,1333.30872
83,0.683,531.22339,-148.56459,1323.38757,625.87628,-151.76706,1298.29724,611.84656,-60.55954,1332.58936
84,0.692,530.98419,-149.05966,1323.12671,625.87628,-151.76706,1298.29724,611.93585,-60.38516,1333.30872
85,0.7,531.22339,-148.56459,1323.38757,625.67987,-152.02283,1299.02734,611.93585,-60.38516,1333.30872
86,0.708,531.22339,-148.56459,1323.38757,625.27844,-151.87366,1299.25439,611.93585,-60.38516,1333.30872
87,0.717,531.22339,-148.56459,1323.38757,625.216,-152.05309,1299.34387,611.93585,-60.38516,1333.30872
88,0.725,531.22339,-148.56459,1323.38757,625.216,-152.05309,1299.34387,611.93585,-60.38516,1333.30872
89,0.733,530.37854,-148.75237,1322.69324,625.216,-152.05309,1299.34387,611.93585,-60.38516,1333.30872
90,0.742,530.37854,-148.75237,1322.69324,625.216,-152.05309,1299.34387,611.93585,-60.38516,1333.30872
91,0.75,531.22339,-148.56459,1323.38757,625.216,-152.05309,1299.34387,611.93585,-60.38516,1333.30872
92,0.758,530.37854,-148.75237,1322.69324,625.14697,-152.38995,1299.39929,611.93585,-60.38516,1333.30872
93,0.767,530.37854,-148.75237,1322.69324,625.14697,-152.38995,1299.39929,611.93585,-60.38516,1333.30872
94,0.775,530.37854,-148.75237,1322.69324,624.89606,-152.67535,1299.41064,611.93585,-60.38516,1333.30872
95,0.783,530.37854,-148.75237,1322.69324,624.89606,-152.67535,1299.41064,611.93585,-60.38516,1333.30872
96,0.792,530.37854,-148.75237,1322.69324,624.89606,-152.67535,1299.41064,611.93585,-60.38516,1333.30872
97,0.8,530.37854,-148.75237,1322.69324,624.89606,-152.67535,1299.41064,611.93585,-60.38516,1333.30872
98,0.808,530.37854,-148.75237,1322.69324,624.89606,-152.67535,1299.41064,611.93585,-60.38516,1333.30872
99,0.817,530.37854,-148.75237,1322.69324,624.89606,-152.67535,1299.41064,611.93585,-60.38516,1333.30872
100,0.825,530.37854,-148.75237,1322.69324,624.89606,-152.67535,1299.41064,611.93585,-60.38516,1333.30872
101,0.833,530.37854,-148.75237,1322.69324,624.89606,-152.67535,1299.41064,611.93585,-60.38516,1333.30872
102,0.842,530.37854,-148.75237,1322.69324,624.89606,-152.67535,1299.41064,611.93585,-60.38516,1333.30872
103,0.85,530.37854,-148.75237,1322.69324,624.89606,-152.67535,1299.41064,611.93585,-60.38516,1333.30872
104,0.858,530.37854,-148.75237,1322.69324,624.59668,-152.98344,1299.49072,611.01959,-60.05171,1333.01392
105,0.867,530.37854,-148.75237,1322.69324,624.59668,-152.98344,1299.49072,610.64246,-61.28611,1332.62219
106,0.875,530.37854,-148.75237,1322.69324,624.59668,-152.98344,1299.49072,610.95892,-60.02058,1333.17773
107,0.883,530.37854,-148.75237,1322.69324,624.59668,-152.98344,1299.49072,610.60864,-60.96424,1333.22156
108,0.892,530.37854,-148.75237,1322.69324,624.37073,-153.23625,1299.2522,610.95892,-60.02058,1333.17773
109,0.9,530.37854,-148.75237,1322.69324,624.37073,-153.23625,1299.2522,610.60864,-60.96424,1333.22156
110,0.908,530.37854,-148.75237,1322.69324,624.01947,-153.33041,1299.20679,610.95892,-60.02058,1333.17773
111,0.917,530.37854,-148.75237,1322.69324,624.37073,-153.23625,1299.2522,610.64246,-61.28611,1332.62219
112,0.925,530.31293,-148.86421,1322.64978,624.01947,-153.33041,1299.20679,611.11383,-60.59786,1332.40295
113,0.933,530.31293,-148.86421,1322.64978,624.01947,-153.33041,1299.20679,610.60864,-60.96424,1333.22156
114,0.942,530.31293,-148.86421,1322.64978,624.01947,-153.33041,1299.20679,611.11383,-60.59786,1332.40295
115,0.95,530.31293,-148.86421,1322.64978,624.01947,-153.33041,1299.20679,610.60864,-60.96424,1333.22156
116,0.958,530.31293,-148.86421,1322.64978,624.01947,-153.33041,1299.20679,611.11383,-60.59786,1332.40295
117,0.967,530.31293,-148.86421,1322.64978,624.17926,-153.39285,1299.13208,610.60864,-60.96424,1333.22156
118,0.975,530.31293,-148.86421,1322.64978,623.828,-153.48697,1299.08667,610.95892,-60.02058,1333.17773
119,0.983,530.31293,-148.86421,1322.64978,623.828,-153.48697,1299.08667,610.60864,-60.96424,1333.22156
120,0.992,530.31293,-148.86421,1322.64978,623.828,-153.48697,1299.08667,610.95892,-60.02058,1333.17773
121,1,530.31293,-148.86421,1322.64978,623.828,-153.48697,1299.08667,610.32227,-60.84798,1333.9718
122,1.008,530.31293,-148.86421,1322.64978,623.828,-153.48697,1299.08667,610.95892,-60.02058,1333.17773
123,1.017,530.31293,-148.86421,1322.64978,623.828,-153.48697,1299.08667,610.32227,-60.84798,1333.9718
124,1.025,530.31293,-148.86421,1322.64978,623.828,-153.48697,1299.08667,610.95892,-60.02058,1333.17773
125,1.033,530.31293,-148.86421,1322.64978,623.828,-153.48697,1299.08667,610.32227,-60.84798,1333.9718
126,1.042,530.31293,-148.86421,1322.64978,623.828,-153.48697,1299.08667,610.95892,-60.02058,1333.17773
127,1.05,530.31293,-148.86421,1322.64978,623.828,-153.48697,1299.08667,610.17688,-61.02485,1334.55286
128,1.058,530.31293,-148.86421,1322.64978,623.828,-153.48697,1299.08667,610.68896,-60.28619,1333.97327
129,1.067,530.31293,-148.86421,1322.64978,623.828,-153.48697,1299.08667,610.32227,-60.84798,1333.9718
130,1.075,530.37854,-148.75237,1322.69324,623.828,-153.48697,1299.08667,610.68896,-60.28619,1333.97327
131,1.083,530.31293,-148.86421,1322.64978,623.828,-153.48697,1299.08667,610.17688,-61.02485,1334.55286
132,1.092,530.31293,-148.86421,1322.64978,623.828,-153.48697,1299.08667,610.68896,-60.28619,1333.97327
133,1.1,530.31293,-148.86421,1322.64978,623.828,-153.48697,1299.08667,610.17688,-61.02485,1334.55286
134,1.108,530.31293,-148.86421,1322.64978,623.828,-153.48697,1299.08667,610.68896,-60.28619,1333.97327
135,1.117,530.31293,-148.86421,1322.64978,623.828,-153.48697,1299.08667,609.54895,-60.62541,1334.61975
136,1.125,530.31293,-148.86421,1322.64978,623.828,-153.48697,1299.08667,610.26263,-59.675,1333.35791
137,1.133,530.31293,-148.86421,1322.64978,623.828,-153.48697,1299.08667,610.32227,-60.84798,1333.9718
138,1.142,529.64172,-148.66841,1322.1731,623.828,-153.48697,1299.08667,610.95892,-60.02058,1333.17773
139,1.15,529.64172,-148.66841,1322.1731,623.70367,-153.27225,1298.93286,610.60864,-60.96424,1333.22156
140,1.158,529.64172,-148.66841,1322.1731,623.70367,-153.27225,1298.93286,611.11383,-60.59786,1332.40295
141,1.167,529.64172,-148.66841,1322.1731,623.70367,-153.27225,1298.93286,610.60864,-60.96424,1333.22156
142,1.175,529.64172,-148.66841,1322.1731,623.70367,-153.27225,1298.93286,610.95892,-60.02058,1333.17773
143,1.183,529.64172,-148.66841,1322.1731,623.70367,-153.27225,1298.93286,610.64246,-61.28611,1332.62219
144,1.192,529.64172,-148.66841,1322.1731,624.03046,-153.10561,1298.08569,610.95892,-60.02058,1333.17773
145,1.2,529.64172,-148.66841,1322.1731,624.03046,-153.10561,1298.08569,608.91418,-58.86836,1331.73376
146,1.208,528.53571,-147.12718,1321.57605,623.84204,-152.99649,1298.02478,610.323,-59.27398,1331.93127
147,1.217,528.53571,-147.12718,1321.57605,623.84204,-152.99649,1298.02478,608.91418,-58.86836,1331.73376
148,1.225,528.53571,-147.12718,1321.57605,623.84204,-152.99649,1298.02478,610.24707,-59.51958,1331.55054
149,1.233,528.53571,-147.12718,1321.57605,623.9729,-153.08504,1297.9071,608.76984,-59.37989,1332.01587
150,1.242,528.53571,-147.12718,1321.57605,623.84204,-152.99649,1298.02478,609.45563,-58.19809,1331.07996
151,1.25,528.53571,-147.12718,1321.57605,623.84204,-152.99649,1298.02478,608.84192,-59.04644,1331.42249
152,1.258,528.53571,-147.12718,1321.57605,623.9729,-153.08504,1297.9071,609.45563,-58.19809,1331.07996
153,1.267,528.53571,-147.12718,1321.57605,623.9729,-153.08504,1297.9071,608.95715,-58.34063,1330.99744
154,1.275,528.53571,-147.12718,1321.57605,623.84204,-152.99649,1298.02478,608.84192,-59.04644,1331.42249
155,1.283,528.53571,-147.12718,1321.57605,623.9729,-153.08504,1297.9071,608.69757,-59.55797,1331.70459
156,1.292,528.53571,-147.12718,1321.57605,623.9845,-152.72772,1297.6731,609.4165,-58.09566,1331.54309
157,1.3,528.53571,-147.12718,1321.57605,623.9845,-152.72772,1297.6731,608.69757,-59.55797,1331.70459
158,1.308,528.53571,-147.12718,1321.57605,623.789,-152.47711,1297.71387,608.7182,-59.07703,1331.22412
159,1.317,528.53571,-147.12718,1321.57605,623.789,-152.47711,1297.71387,608.81287,-58.85222,1331.27966
160,1.325,528.53571,-147.12718,1321.57605,623.9823,-152.38622,1297.50659,609.19989,-58.78547,1331.51404
161,1.333,528.53571,-147.12718,1321.57605,623.91986,-152.56569,1297.59619,608.81287,-58.85222,1331.27966
162,1.342,528.53571,-147.12718,1321.57605,623.789,-152.47711,1297.71387,608.31055,-59.62457,1331.47021
163,1.35,528.53571,-147.12718,1321.57605,623.789,-152.47711,1297.71387,608.7182,-59.07703,1331.22412
164,1.358,528.53571,-147.12718,1321.57605,623.789,-152.47711,1297.71387,608.31055,-59.62457,1331.47021
165,1.367,528.53571,-147.12718,1321.57605,623.91602,-152.45969,1297.70105,608.7182,-59.07703,1331.22412
166,1.375,528.53571,-147.12718,1321.57605,623.85364,-152.63916,1297.79065,608.30396,-59.41831,1331.80054
167,1.383,528.53571,-147.12718,1321.57605,623.85364,-152.63916,1297.79065,608.7182,-59.07703,1331.22412
168,1.392,528.53571,-147.12718,1321.57605,623.789,-152.47711,1297.71387,608.31055,-59.62457,1331.47021
169,1.4,528.53571,-147.12718,1321.57605,623.78461,-152.97607,1297.84619,607.78009,-58.7527,1331.84473
170,1.408,527.42773,-147.26286,1321.66687,623.78461,-152.97607,1297.84619,607.36591,-59.28966,1331.70068
171,1.417,527.42773,-147.26286,1321.66687,623.78461,-152.97607,1297.84619,609.16486,-58.8913,1331.46741
172,1.425,527.42773,-147.26286,1321.66687,623.58868,-153.23152,1298.57581,607.12317,-59.00002,1332.08887
173,1.433,527.42773,-147.26286,1321.66687,623.58868,-153.23152,1298.57581,607.3111,-58.59084,1332.15527
174,1.442,527.42773,-147.26286,1321.66687,623.64612,-153.25182,1298.75427,607.12317,-59.00002,1332.08887
175,1.45,527.42773,-147.26286,1321.66687,623.71515,-152.91499,1298.69885,607.3111,-58.59084,1332.15527
176,1.458,527.42773,-147.26286,1321.66687,623.64612,-153.25182,1298.75427,607.12317,-59.00002,1332.08887
177,1.467,527.42773,-147.26286,1321.66687,623.58868,-153.23152,1298.57581,607.3111,-58.59084,1332.15527
178,1.475,527.42773,-147.26286,1321.66687,623.64612,-153.25182,1298.75427,607.12317,-59.00002,1332.08887
179,1.483,527.42773,-147.26286,1321.66687,623.64612,-153.25182,1298.75427,607.3111,-58.59084,1332.15527
180,1.492,527.42773,-147.26286,1321.66687,623.64612,-153.25182,1298.75427,607.12317,-59.00002,1332.08887
181,1.5,527.42773,-147.26286,1321.66687,623.64612,-153.25182,1298.75427,607.3111,-58.59084,1332.15527
182,1.508,527.42773,-147.26286,1321.66687,623.64612,-153.25182,1298.75427,607.12317,-59.00002,1332.08887
183,1.517,527.42773,-147.26286,1321.66687,623.64612,-153.25182,1298.75427,607.3111,-58.59084,1332.15527
184,1.525,527.42773,-147.26286,1321.66687,623.64612,-153.25182,1298.75427,607.12317,-59.00002,1332.08887
185,1.533,527.42773,-147.26286,1321.66687,623.64612,-153.25182,1298.75427,607.3111,-58.59084,1332.15527
186,1.542,527.42773,-147.26286,1321.66687,623.64612,-153.25182,1298.75427,607.12317,-59.00002,1332.08887
187,1.55,527.42773,-147.26286,1321.66687,623.64612,-153.25182,1298.75427,607.3111,-58.59084,1332.15527
188,1.558,527.42773,-147.26286,1321.66687,623.52405,-153.06949,1298.4989,607.12317,-59.00002,1332.08887
189,1.567,527.42773,-147.26286,1321.66687,623.52405,-153.06949,1298.4989,607.3111,-58.59084,1332.15527
190,1.575,527.42773,-147.26286,1321.66687,623.52405,-153.06949,1298.4989,607.12317,-59.00002,1332.08887
191,1.583,527.42773,-147.26286,1321.66687,623.52405,-153.06949,1298.4989,607.3111,-58.59084,1332.15527
192,1.592,526.31964,-147.39761,1321.75818,623.59302,-152.73267,1298.44348,607.12317,-59.00002,1332.08887
