Frame#,Time,L.Forearm.x,L.Forearm.y,L.Forearm.z,L.Ulna.x,L.Ulna.y,L.Ulna.z,L.Radius.x,L.Radius.y,L.Radius.z
1,0,-90.18726,379.02432,705.08551,2.64602,374.86853,634.11816,32.88805,282.36194,658.8598
2,0.008,-90.27961,378.98599,705.15308,2.93088,374.82227,634.33044,32.5647,281.93356,658.53687
3,0.017,-89.67095,378.82986,705.15637,3.08098,374.74942,634.35876,32.5647,281.93356,658.53687
4,0.025,-89.86138,378.6301,705.55426,2.98327,374.71555,634.42059,32.88805,282.36194,658.8598
5,0.033,-89.60181,378.58826,705.44531,3.16802,374.47635,634.32672,32.88805,282.36194,658.8598
6,0.042,-89.60181,378.58826,705.44531,3.16802,374.47635,634.32672,32.88805,282.36194,658.8598
7,0.05,-89.35263,378.51596,705.78107,3.16802,374.47635,634.32672,32.69991,281.51227,659.05914
8,0.058,-89.61221,378.55783,705.89008,3.47161,374.32745,634.48694,32.69991,281.51227,659.05914
9,0.067,-89.35263,378.51596,705.78107,3.57742,374.36972,634.04553,33.18518,282.42148,659.37286
10,0.075,-89.35263,378.51596,705.78107,3.82453,373.78812,634.66931,33.18518,282.42148,659.37286
11,0.083,-89.30492,377.92398,706.39417,3.70223,373.65094,634.74554,33.18518,282.42148,659.37286
12,0.092,-88.87334,378.25336,706.76526,3.70223,373.65094,634.74554,33.18518,282.42148,659.37286
13,0.1,-89.13289,378.29523,706.87427,3.88928,373.5831,634.75818,33.18518,282.42148,659.37286
14,0.108,-89.13289,378.29523,706.87427,4.09313,373.539,634.89746,33.18518,282.42148,659.37286
15,0.117,-89.13289,378.29523,706.87427,3.86637,373.8266,635.12048,33.18518,282.42148,659.37286
16,0.125,-89.2828,378.31949,706.90686,4.0534,373.75873,635.13312,33.18518,282.42148,659.37286
17,0.133,-89.2828,378.31949,706.90686,3.96418,373.61594,634.53021,33.18518,282.42148,659.37286
18,0.142,-89.2828,378.31949,706.90686,4.07244,373.58472,634.65564,33.18518,282.42148,659.37286
19,0.15,-89.07767,377.81232,706.99506,3.96418,373.61594,634.53021,33.18518,282.42148,659.37286
20,0.158,-89.09664,377.92419,706.90247,4.25342,373.80887,634.65399,33.18518,282.42148,659.37286
21,0.167,-89.07767,377.81232,706.99506,4.22147,373.79913,635.2146,33.18518,282.42148,659.37286
22,0.175,-89.46809,377.63153,706.93597,3.96418,373.61594,634.53021,33.18518,282.42148,659.37286
23,0.183,-89.32268,377.5264,706.97687,3.75281,373.66269,634.39386,33.18518,282.42148,659.37286
24,0.192,-88.82408,377.18781,706.52765,3.75281,373.66269,634.39386,33.18518,282.42148,659.37286
25,0.2,-88.82192,377.92789,707.20459,3.75281,373.66269,634.39386,32.68063,281.14478,657.86346
26,0.208,-88.82192,377.92789,707.20459,3.63249,373.67444,634.22302,32.68063,281.14478,657.86346
27,0.217,-88.82192,377.92789,707.20459,3.63249,373.67444,634.22302,32.68063,281.14478,657.86346
28,0.225,-88.62682,377.81168,707.25085,3.63249,373.67444,634.22302,32.68063,281.14478,657.86346
29,0.233,-88.91583,377.68637,707.27588,3.63249,373.67444,634.22302,32.68063,281.14478,657.86346
30,0.242,-88.99171,377.21039,707.30493,3.44544,373.74225,634.21045,32.68063,281.14478,657.86346
31,0.25,-89.18684,377.3266,707.25861,3.44544,373.74225,634.21045,32.68063,281.14478,657.86346
32,0.258,-89.18684,377.3266,707.25861,3.44544,373.74225,634.21045,32.68063,281.14478,657.86346
33,0.267,-88.99171,377.21039,707.30493,3.20798,373.80994,634.15039,32.72677,281.22629,657.88757
34,0.275,-89.18684,377.3266,707.25861,3.06806,373.7977,634.20325,32.68063,281.14478,657.86346
35,0.283,-89.18684,377.3266,707.25861,3.06806,373.7977,634.20325,32.68063,281.14478,657.86346
36,0.292,-89.18684,377.3266,707.25861,3.30551,373.73004,634.26331,32.63747,281.23956,658.11365
37,0.3,-89.41582,377.20926,707.1203,3.06806,373.7977,634.20325,32.63747,281.23956,658.11365
38,0.308,-89.41582,377.20926,707.1203,3.06806,373.7977,634.20325,32.63747,281.23956,658.11365
39,0.317,-89.47421,377.353,707.33429,2.9669,373.66266,634.01563,32.63747,281.23956,658.11365
40,0.325,-89.47421,377.353,707.33429,2.9669,373.66266,634.01563,32.63747,281.23956,658.11365
41,0.333,-89.47421,377.353,707.33429,2.9669,373.66266,634.01563,32.46342,281.1994,658.14014
42,0.342,-89.47421,377.353,707.33429,2.9669,373.66266,634.01563,32.46342,281.1994,658.14014
43,0.35,-89.69054,377.46231,707.47729,2.9669,373.66266,634.01563,32.46342,281.1994,658.14014
44,0.358,-89.47421,377.353,707.33429,2.9669,373.66266,634.01563,32.46342,281.1994,658.14014
45,0.367,-89.47421,377.353,707.33429,2.9669,373.66266,634.01563,32.00087,280.70126,658.10565
46,0.375,-89.69054,377.46231,707.47729,2.9669,373.66266,634.01563,32.46342,281.1994,658.14014
47,0.383,-89.69054,377.46231,707.47729,2.9669,373.66266,634.01563,32.00087,280.70126,658.10565
48,0.392,-89.69054,377.46231,707.47729,2.9669,373.66266,634.01563,32.10133,280.70563,659.04236
49,0.4,-89.69054,377.46231,707.47729,2.9669,373.66266,634.01563,32.10133,280.70563,659.04236
50,0.408,-89.69054,377.46231,707.47729,2.9669,373.66266,634.01563,32.56378,281.20364,659.0766
51,0.417,-89.91915,377.52588,707.49225,3.07451,373.68491,634.20667,32.56378,281.20364,659.0766
52,0.425,-89.91915,377.52588,707.49225,3.07451,373.68491,634.20667,32.56378,281.20364,659.0766
53,0.433,-89.63214,377.31863,707.26331,3.07451,373.68491,634.20667,32.56378,281.20364,659.0766
54,0.442,-89.91915,377.52588,707.49225,3.07451,373.68491,634.20667,32.56378,281.20364,659.0766
55,0.45,-89.69054,377.46231,707.47729,3.01103,373.73999,634.42151,32.56378,281.20364,659.0766
56,0.458,-90.13364,377.96207,707.54175,3.07451,373.68491,634.20667,32.56378,281.20364,659.0766
57,0.467,-89.69054,377.46231,707.47729,3.01103,373.73999,634.42151,32.10133,280.70563,659.04236
58,0.475,-89.69054,377.46231,707.47729,2.88664,373.68268,634.22705,32.56378,281.20364,659.0766
59,0.483,-89.69054,377.46231,707.47729,2.82317,373.73776,634.44183,32.10133,280.70563,659.04236
60,0.492,-89.91915,377.52588,707.49225,2.63308,373.56317,635.55493,32.10133,280.70563,659.04236
61,0.5,-89.91915,377.52588,707.49225,2.67335,373.39761,634.47876,32.10133,280.70563,659.04236
62,0.508,-89.91915,377.52588,707.49225,2.23861,373.46216,634.62689,32.10133,280.70563,659.04236
63,0.517,-90.21082,377.18347,707.5495,2.23861,373.46216,634.62689,32.10133,280.70563,659.04236
64,0.525,-89.94789,377.16498,707.7832,2.32564,373.39938,635.70123,32.10133,280.70563,659.04236
65,0.533,-89.98215,377.11993,707.53455,2.55219,373.30872,635.59576,32.2022,280.71329,659.97894
66,0.542,-89.59787,377.36371,707.51202,2.55219,373.30872,635.59576,32.10133,280.70563,659.04236
67,0.55,-90.21082,377.18347,707.5495,2.67335,373.39761,634.47876,32.10133,280.70563,659.04236
68,0.558,-89.80198,377.07114,707.50146,2.55219,373.30872,635.59576,32.2022,280.71329,659.97894
69,0.567,-89.83627,377.02603,707.25275,2.55219,373.30872,635.59576,32.2022,280.71329,659.97894
70,0.575,-89.63214,377.31863,707.26331,2.55219,373.30872,635.59576,32.10133,280.70563,659.04236
71,0.583,-89.80198,377.07114,707.50146,2.67335,373.39761,634.47876,32.19072,280.69275,658.81635
72,0.592,-89.80198,377.07114,707.50146,3.28122,373.36496,634.79291,32.7378,281.24384,659.05011
73,0.6,-89.83627,377.02603,707.25275,3.28122,373.36496,634.79291,32.754,281.19876,659.78693
74,0.608,-89.83627,377.02603,707.25275,3.28122,373.36496,634.79291,32.82718,281.23096,658.8241
75,0.617,-89.83627,377.02603,707.25275,3.00778,373.37363,634.62323,32.82718,281.23096,658.8241
76,0.625,-89.83627,377.02603,707.25275,3.34537,373.71597,634.56598,32.7378,281.24384,659.05011
77,0.633,-89.83627,377.02603,707.25275,3.28122,373.36496,634.79291,32.82718,281.23096,658.8241
78,0.642,-89.83627,377.02603,707.25275,3.28122,373.36496,634.79291,32.82718,281.23096,658.8241
79,0.65,-89.63214,377.31863,707.26331,2.67335,373.39761,634.47876,32.7378,281.24384,659.05011
80,0.658,-89.83627,377.02603,707.25275,3.04427,373.31537,634.3725,32.7378,281.24384,659.05011
81,0.667,-89.83627,377.02603,707.25275,2.73684,373.34253,634.26392,32.7378,281.24384,659.05011
82,0.675,-89.83627,377.02603,707.25275,3.07451,373.68491,634.20667,32.7378,281.24384,659.05011
83,0.683,-89.83627,377.02603,707.25275,3.07451,373.68491,634.20667,32.7378,281.24384,659.05011
84,0.692,-89.83627,377.02603,707.25275,3.07451,373.68491,634.20667,32.56378,281.20364,659.0766
85,0.7,-89.63214,377.31863,707.26331,3.07451,373.68491,634.20667,32.56378,281.20364,659.0766
86,0.708,-89.86078,377.3822,707.27826,2.44129,373.31799,634.09314,32.56378,281.20364,659.0766
87,0.717,-90.06493,377.0896,707.2677,2.77902,373.66043,634.03595,32.56378,281.20364,659.0766
88,0.725,-90.06493,377.0896,707.2677,2.77902,373.66043,634.03595,32.56378,281.20364,659.0766
89,0.733,-90.36707,376.85242,707.14032,2.5261,373.46198,634.82489,32.56378,281.20364,659.0766
90,0.742,-90.36707,376.85242,707.14032,2.5261,373.46198,634.82489,32.10133,280.70563,659.04236
91,0.75,-90.58153,377.28867,707.18982,2.77052,373.6886,634.76398,32.56378,281.20364,659.0766
92,0.758,-90.58153,377.28867,707.18982,2.5261,373.46198,634.82489,32.10133,280.70563,659.04236
93,0.767,-90.58153,377.28867,707.18982,2.5261,373.46198,634.82489,32.10133,280.70563,659.04236
94,0.775,-90.58153,377.28867,707.18982,2.6535,373.61703,634.77478,32.10133,280.70563,659.04236
95,0.783,-90.58153,377.28867,707.18982,2.6535,373.61703,634.77478,32.10133,280.70563,659.04236
96,0.792,-90.58153,377.28867,707.18982,2.6535,373.61703,634.77478,32.10133,280.70563,659.04236
97,0.8,-90.58153,377.28867,707.18982,2.3592,373.52893,634.8075,31.83948,280.7998,658.05933
98,0.808,-90.58153,377.28867,707.18982,2.6535,373.61703,634.77478,32.00087,280.70126,658.10565
99,0.817,-90.87289,377.3559,707.03357,2.48659,373.68396,634.75739,31.83948,280.7998,658.05933
100,0.825,-90.87289,377.3559,707.03357,2.48659,373.68396,634.75739,32.00087,280.70126,658.10565
101,0.833,-91.16647,376.96957,706.63885,2.48659,373.68396,634.75739,31.83948,280.7998,658.05933
102,0.842,-91.16647,376.96957,706.63885,2.48659,373.68396,634.75739,32.00087,280.70126,658.10565
103,0.85,-91.16647,376.96957,706.63885,2.48659,373.68396,634.75739,31.83948,280.7998,658.05933
104,0.858,-90.87289,377.3559,707.03357,2.73104,373.91058,634.69647,31.83948,280.7998,658.05933
105,0.867,-91.16647,376.96957,706.63885,2.48659,373.68396,634.75739,32.00087,280.70126,658.10565
106,0.875,-91.16647,376.96957,706.63885,2.73104,373.91058,634.69647,31.83948,280.7998,658.05933
107,0.883,-91.16647,376.96957,706.63885,2.73104,373.91058,634.69647,31.83948,280.7998,658.05933
108,0.892,-91.20356,377.09421,706.53253,2.73104,373.91058,634.69647,31.83948,280.7998,658.05933
109,0.9,-90.87501,376.90244,706.79517,2.73104,373.91058,634.69647,31.83948,280.7998,658.05933
110,0.908,-91.16647,376.96957,706.63885,2.73104,373.91058,634.69647,31.83948,280.7998,658.05933
111,0.917,-91.16647,376.96957,706.63885,2.73104,373.91058,634.69647,32.00087,280.70126,658.10565
112,0.925,-90.87501,376.90244,706.79517,2.89792,373.84363,634.71387,32.10133,280.70563,659.04236
113,0.933,-90.87501,376.90244,706.79517,2.77052,373.6886,634.76398,32.10133,280.70563,659.04236
114,0.942,-90.87501,376.90244,706.79517,2.77052,373.6886,634.76398,31.83948,280.7998,658.05933
115,0.95,-90.87501,376.90244,706.79517,2.77052,373.6886,634.76398,32.10133,280.70563,659.04236
116,0.958,-90.87501,376.90244,706.79517,2.77052,373.6886,634.76398,32.56378,281.20364,659.0766
117,0.967,-90.87501,376.90244,706.79517,2.93404,373.66071,634.74384,32.56378,281.20364,659.0766
118,0.975,-90.87501,376.90244,706.79517,2.77052,373.6886,634.76398,32.56378,281.20364,659.0766
119,0.983,-90.87501,376.90244,706.79517,2.77052,373.6886,634.76398,32.56378,281.20364,659.0766
120,0.992,-90.87501,376.90244,706.79517,3.06144,373.81573,634.69373,32.56378,281.20364,659.0766
121,1,-90.67078,377.19501,706.80579,3.06144,373.81573,634.69373,32.7378,281.24384,659.05011
122,1.008,-90.67078,377.19501,706.80579,2.93404,373.66071,634.74384,32.7378,281.24384,659.05011
123,1.017,-90.67078,377.19501,706.80579,3.07393,373.67297,634.69104,32.7378,281.24384,659.05011
124,1.025,-90.67078,377.19501,706.80579,3.07393,373.67297,634.69104,32.7378,281.24384,659.05011
125,1.033,-90.67078,377.19501,706.80579,3.07393,373.67297,634.69104,32.82718,281.23096,658.8241
126,1.042,-90.45631,376.75873,706.75629,3.11776,373.73932,634.9057,32.82718,281.23096,658.8241
127,1.05,-90.67078,377.19501,706.80579,3.09104,373.86359,634.89459,32.82718,281.23096,658.8241
128,1.058,-90.45631,376.75873,706.75629,3.11776,373.73932,634.9057,33.18518,282.42148,659.37286
129,1.067,-90.70788,377.31964,706.69946,3.07393,373.67297,634.69104,33.18518,282.42148,659.37286
130,1.075,-90.42221,376.85318,706.65521,3.07393,373.67297,634.69104,32.82718,281.23096,658.8241
131,1.083,-90.45343,376.97546,706.54944,3.07393,373.67297,634.69104,33.18518,282.42148,659.37286
132,1.092,-90.43491,376.73969,706.43604,3.07393,373.67297,634.69104,32.82718,281.23096,658.8241
133,1.1,-90.36372,376.70944,706.44128,3.07393,373.67297,634.69104,32.82718,281.23096,658.8241
134,1.108,-90.43491,376.73969,706.43604,3.07393,373.67297,634.69104,33.18518,282.42148,659.37286
135,1.117,-90.16642,376.7515,706.33649,3.07393,373.67297,634.69104,33.18518,282.42148,659.37286
136,1.125,-90.68768,376.30161,706.35059,3.07393,373.67297,634.69104,32.82718,281.23096,658.8241
137,1.133,-90.36372,376.70944,706.44128,3.07393,373.67297,634.69104,33.07883,281.17163,658.62878
138,1.142,-90.40007,376.16199,706.21277,3.07393,373.67297,634.69104,33.18518,282.42148,659.37286
139,1.15,-90.68768,376.30161,706.35059,3.07393,373.67297,634.69104,33.07883,281.17163,658.62878
140,1.158,-90.6477,376.39368,706.25,3.07393,373.67297,634.69104,33.07883,281.17163,658.62878
141,1.167,-90.39494,376.83173,706.33545,3.20134,373.82797,634.64087,33.18518,282.42148,659.37286
142,1.175,-90.6477,376.39368,706.25,3.23092,373.87582,634.8418,32.82718,281.23096,658.8241
143,1.183,-90.6477,376.39368,706.25,3.23092,373.87582,634.8418,32.82718,281.23096,658.8241
144,1.192,-90.60941,377.26794,706.38501,3.23092,373.87582,634.8418,33.18518,282.42148,659.37286
145,1.2,-90.86217,376.8299,706.2995,3.06144,373.81573,634.69373,32.82718,281.23096,658.8241
146,1.208,-90.70788,377.31964,706.69946,3.20134,373.82797,634.64087,32.82718,281.23096,658.8241
147,1.217,-90.66792,377.41168,706.59894,3.20134,373.82797,634.64087,32.82718,281.23096,658.8241
148,1.225,-90.66792,377.41168,706.59894,3.14907,374.08575,634.77911,32.82718,281.23096,658.8241
149,1.233,-90.60941,377.26794,706.38501,3.11949,374.0379,634.57819,32.82718,281.23096,658.8241
150,1.242,-90.66792,377.41168,706.59894,3.11949,374.0379,634.57819,32.82718,281.23096,658.8241
151,1.25,-90.87215,377.11911,706.58832,3.11949,374.0379,634.57819,32.82718,281.23096,658.8241
152,1.258,-90.70788,377.31964,706.69946,3.11949,374.0379,634.57819,33.18518,282.42148,659.37286
153,1.267,-90.38895,378.08801,707.31879,3.11949,374.0379,634.57819,32.82718,281.23096,658.8241
154,1.275,-90.14744,378.12531,707.49078,2.97959,374.02567,634.63104,32.82718,281.23096,658.8241
155,1.283,-90.91211,377.02707,706.68884,2.97959,374.02567,634.63104,32.72677,281.22629,657.88757
156,1.292,-90.88663,376.83829,706.49744,3.06144,373.81573,634.69373,32.82718,281.23096,658.8241
157,1.3,-91.27204,377.02048,706.48358,3.06144,373.81573,634.69373,32.63747,281.23956,658.11365
158,1.308,-91.23313,376.89087,706.5849,3.06144,373.81573,634.69373,32.55273,281.18616,657.91406
159,1.317,-91.04698,376.49542,706.58051,2.89792,373.84363,634.71387,32.72677,281.22629,657.88757
160,1.325,-91.23313,376.89087,706.5849,3.06144,373.81573,634.69373,32.46342,281.1994,658.14014
161,1.333,-91.23313,376.89087,706.5849,2.89432,373.88541,634.67358,32.46342,281.1994,658.14014
162,1.342,-91.23313,376.89087,706.5849,3.06144,373.81573,634.69373,32.46342,281.1994,658.14014
163,1.35,-91.23313,376.89087,706.5849,2.89792,373.84363,634.71387,32.63747,281.23956,658.11365
164,1.358,-91.01682,376.77884,706.47845,3.06144,373.81573,634.69373,32.46342,281.1994,658.14014
165,1.367,-91.23313,376.89087,706.5849,2.89792,373.84363,634.71387,32.46342,281.1994,658.14014
166,1.375,-91.04698,376.49542,706.58051,2.89792,373.84363,634.71387,32.72677,281.22629,657.88757
167,1.383,-91.23313,376.89087,706.5849,2.89792,373.84363,634.71387,32.46342,281.1994,658.14014
168,1.392,-91.04698,376.49542,706.58051,2.89792,373.84363,634.71387,32.63747,281.23956,658.11365
169,1.4,-91.00096,376.79126,706.7276,2.89792,373.84363,634.71387,32.72677,281.22629,657.88757
170,1.408,-90.81479,376.39578,706.72321,2.89792,373.84363,634.71387,32.24384,279.94336,657.48608
171,1.417,-90.59743,376.66684,707.03302,2.89792,373.84363,634.71387,32.72677,281.22629,657.88757
172,1.425,-90.81479,376.39578,706.72321,2.89792,373.84363,634.71387,32.7378,281.24384,659.05011
173,1.433,-90.81479,376.39578,706.72321,2.89792,373.84363,634.71387,32.32176,279.95667,657.66241
174,1.442,-90.59743,376.66684,707.03302,2.92753,373.89148,634.91473,32.7378,281.24384,659.05011
175,1.45,-90.59743,376.66684,707.03302,2.92753,373.89148,634.91473,32.63747,281.23956,658.11365
176,1.458,-90.59743,376.66684,707.03302,2.89792,373.84363,634.71387,32.7378,281.24384,659.05011
177,1.467,-90.70425,376.71701,707.2641,2.89792,373.84363,634.71387,32.82718,281.23096,658.8241
178,1.475,-90.74774,376.63812,707.35016,2.89792,373.84363,634.71387,32.7378,281.24384,659.05011
179,1.483,-90.70425,376.71701,707.2641,2.92753,373.89148,634.91473,32.54598,280.50909,658.6936
180,1.492,-90.8596,376.64731,707.38275,3.17877,373.85889,635.04443,32.54598,280.50909,658.6936
181,1.5,-90.8596,376.64731,707.38275,3.02427,374.04019,635.43018,32.1457,279.50571,658.2934
182,1.508,-90.8596,376.64731,707.38275,2.79779,374.13086,635.53564,32.87154,280.56216,658.52533
183,1.517,-90.74774,376.63812,707.35016,2.96127,374.103,635.5155,32.59647,279.10947,657.75702
184,1.525,-90.74774,376.63812,707.35016,2.65481,373.97327,635.87213,33.11019,282.63449,659.71967
185,1.533,-90.71522,376.63959,707.55939,2.65481,373.97327,635.87213,33.18518,282.42148,659.37286
186,1.542,-90.84585,376.4715,707.52002,2.65481,373.97327,635.87213,33.18518,282.42148,659.37286
187,1.55,-90.81332,376.4729,707.72919,2.65481,373.97327,635.87213,33.11019,282.63449,659.71967
188,1.558,-90.70146,376.46375,707.69666,2.41038,373.74667,635.93311,33.18518,282.42148,659.37286
189,1.567,-90.81332,376.4729,707.72919,2.54172,373.90207,635.80975,33.18518,282.42148,659.37286
190,1.575,-90.81332,376.4729,707.72919,2.35882,373.79343,635.91333,33.18518,282.42148,659.37286
191,1.583,-90.81332,376.4729,707.72919,2.54172,373.90207,635.80975,33.18518,282.42148,659.37286
192,1.592,-90.81332,376.4729,707.72919,2.41038,373.74667,635.93311,33.11019,282.63449,659.71967
193,1.6,-90.81332,376.4729,707.72919,2.41038,373.74667,635.93311,33.18518,282.42148,659.37286
194,1.608,-90.81332,376.4729,707.72919,2.00065,373.2861,634.74518,33.11019,282.63449,659.71967
195,1.617,-90.82706,376.64874,707.59192,2.00065,373.2861,634.74518,33.18518,282.42148,659.37286
196,1.625,-90.84585,376.4715,707.52002,2.41038,373.74667,635.93311,32.86795,282.18936,659.36426
197,1.633,-90.84585,376.4715,707.52002,2.22749,373.63803,636.03668,32.86795,282.18936,659.36426
198,1.642,-90.8596,376.64731,707.38275,2.00065,373.2861,634.74518,32.86795,282.18936,659.36426
199,1.65,-91.13746,376.60815,707.48267,2.00065,373.2861,634.74518,32.86795,282.18936,659.36426
200,1.658,-91.15119,376.78394,707.3454,2.00065,373.2861,634.74518,32.86795,282.18936,659.36426
201,1.667,-91.04436,376.7338,707.11432,2.00065,373.2861,634.74518,32.86795,282.18936,659.36426
202,1.675,-91.38287,376.89468,707.34039,2.00065,373.2861,634.74518,32.86795,282.18936,659.36426
203,1.683,-91.15119,376.78394,707.3454,2.00065,373.2861,634.74518,32.86795,282.18936,659.36426
204,1.692,-91.38287,376.89468,707.34039,2.24344,373.62589,635.47882,32.36312,280.91232,657.85474
205,1.7,-91.38287,376.89468,707.34039,2.24344,373.62589,635.47882,32.86795,282.18936,659.36426
206,1.708,-91.15119,376.78394,707.3454,1.93252,373.51862,635.53644,32.36312,280.91232,657.85474
207,1.717,-91.15119,376.78394,707.3454,2.42634,373.7345,635.37518,32.86795,282.18936,659.36426
208,1.725,-91.15119,376.78394,707.3454,2.26538,373.64355,635.30511,32.36312,280.91232,657.85474
209,1.733,-91.15119,376.78394,707.3454,2.24344,373.62589,635.47882,32.36312,280.91232,657.85474
