Frame#,Time,R.Forearm.x,R.Forearm.y,R.Forearm.z,R.Ulna.x,R.Ulna.y,R.Ulna.z,R.Radius.x,R.Radius.y,R.Radius.z
1,0,25.59369,-172.22614,910.2536,112.66319,-145.72272,897.98083,95.47058,-56.67427,953.30652
2,0.008,25.295,-172.65373,909.11139,111.35651,-146.0943,897.2934,93.66748,-55.3441,950.72552
3,0.017,23.0962,-172.13861,907.31348,107.17532,-143.71573,893.50079,89.66283,-56.39508,950.2486
4,0.025,20.56044,-171.65541,905.25006,106.79025,-143.97241,892.3584,87.30449,-56.99655,948.88025
5,0.033,19.25516,-175.97375,904.16577,103.8165,-143.47842,889.37531,85.48024,-58.69302,947.96185
6,0.042,18.43565,-175.4491,902.04419,102.09097,-142.47752,887.21021,84.06464,-60.07605,948.19171
7,0.05,16.05505,-175.31366,900.49286,100.91821,-142.28308,886.14624,80.65023,-60.87629,946.7608
8,0.058,13.25004,-174.82977,899.06775,98.22027,-141.98849,884.08929,78.6457,-61.71832,946.25793
9,0.067,13.34414,-176.20038,898.66235,96.66704,-141.22408,882.62573,76.27967,-64.13526,946.73273
10,0.075,11.5178,-176.00459,897.62329,94.39764,-139.01355,879.96204,73.53114,-61.97986,945.64557
11,0.083,8.79741,-178.28833,894.20081,92.19125,-139.20766,878.59692,71.67301,-61.13353,944.83362
12,0.092,7.00407,-176.25069,893.09686,90.34264,-139.39111,878.01428,68.84505,-63.39807,944.11951
13,0.1,4.94493,-176.64012,891.32446,87.5386,-140.01579,877.138,66.9978,-62.70615,942.92999
14,0.108,4.27006,-176.80296,891.11188,87.04202,-140.43646,877.0506,63.05915,-64.53623,943.76642
15,0.117,2.22161,-176.35379,889.59753,83.64497,-138.38454,873.87994,62.33151,-64.14787,943.52692
16,0.125,1.36059,-175.82303,889.6123,81.86343,-136.5865,872.6405,60.13688,-64.90312,943.29449
17,0.133,-2.10989,-174.84009,888.15527,80.32619,-136.57484,872.32202,57.32708,-62.95232,942.63055
18,0.142,-1.69635,-175.00996,886.92175,79.49474,-135.72437,871.48431,56.12576,-64.09544,942.80341
19,0.15,-3.18239,-176.61305,885.77045,77.86529,-134.005,871.11627,53.31593,-65.82392,942.29095
20,0.158,-4.80221,-176.17113,883.42694,74.78851,-133.57541,869.25256,52.77664,-65.55765,941.60114
21,0.167,-6.74962,-176.93884,883.85632,73.05238,-132.63446,867.5448,48.61137,-63.83461,940.74414
22,0.175,-7.05111,-177.17697,883.64227,71.25926,-132.45157,867.15131,47.5497,-65.59499,940.90906
23,0.183,-7.85972,-178.39351,883.66595,70.45193,-131.67018,866.0188,45.41977,-65.73705,940.4314
24,0.192,-9.44001,-176.02074,880.06378,68.26921,-129.48621,866.24756,43.45316,-64.68354,939.12439
25,0.2,-12.8075,-174.34099,879.79504,67.21612,-130.60692,865.42181,41.37787,-64.43338,939.20221
26,0.208,-13.41061,-173.65904,879.42456,66.20691,-130.72951,864.97424,39.75248,-65.5092,939.64661
27,0.217,-13.86952,-174.75522,878.56323,62.41844,-130.49486,862.9765,38.25664,-66.65802,939.79449
28,0.225,-15.36001,-175.02203,878.79944,62.00789,-129.60942,862.0545,35.79702,-66.05643,938.47546
29,0.233,-15.36001,-175.02203,878.79944,61.51115,-129.31215,862.24469,33.7747,-64.57263,939.1701
30,0.242,-17.45417,-174.37923,876.77484,58.81177,-127.12063,860.9519,33.09817,-65.28642,938.81555
31,0.25,-20.38799,-172.15564,876.02954,56.99847,-125.9523,860.58344,31.67145,-65.3668,938.27405
32,0.258,-20.80287,-171.80864,876.33496,55.30211,-124.91465,858.9859,31.19596,-67.32302,936.69171
33,0.267,-19.06541,-174.41068,874.18427,54.66614,-124.44213,857.28357,29.87653,-67.84018,935.94348
34,0.275,-19.9459,-175.02405,873.05261,53.16621,-124.73419,857.38007,26.8698,-67.63071,935.74377
35,0.283,-19.60973,-175.37245,872.31866,53.16621,-124.73419,857.38007,24.96845,-67.66628,935.22803
36,0.292,-22.52726,-175.19759,872.32428,50.04662,-123.02032,856.86871,23.70549,-67.31644,934.93274
37,0.3,-24.41435,-173.63625,870.37274,49.79146,-122.22527,856.47394,22.56518,-67.08723,935.16351
38,0.308,-24.41435,-173.63625,870.37274,47.00481,-121.20352,856.20972,19.5924,-66.59049,935.52985
39,0.317,-24.41435,-173.63625,870.37274,46.45252,-120.9868,855.98383,18.26604,-66.87059,935.86932
40,0.325,-22.71474,-178.53581,873.06342,45.33011,-120.4715,856.09692,18.2731,-67.69424,935.98065
41,0.333,-23.74067,-177.58934,873.06421,45.33011,-120.4715,856.09692,16.56161,-67.70868,935.64471
42,0.342,-23.74067,-177.58934,873.06421,43.49857,-117.71705,855.34979,16.17046,-67.04112,937.13324
43,0.35,-25.80726,-176.51123,871.79999,42.50083,-117.42409,854.95276,15.64952,-67.09975,935.97211
44,0.358,-27.87649,-175.43214,870.53436,41.76056,-117.90023,854.78119,14.23346,-66.62821,936.18549
45,0.367,-28.90669,-174.4821,870.53375,39.57866,-116.15929,854.1861,12.01641,-65.65696,936.28497
46,0.375,-28.27133,-175.57924,872.55634,38.45587,-115.78253,854.0412,10.97833,-65.7785,936.34839
47,0.383,-28.27133,-175.57924,872.55634,38.45587,-115.78253,854.0412,10.02202,-66.18458,935.66913
48,0.392,-28.27133,-175.57924,872.55634,38.12554,-115.38834,854.12787,9.87939,-66.56123,935.94714
49,0.4,-28.27133,-175.57924,872.55634,37.05243,-114.05684,854.43829,9.25033,-66.30658,935.84509
50,0.408,-28.27133,-175.57924,872.55634,35.45717,-113.43776,854.23169,7.30882,-66.78052,936.21649
51,0.417,-29.30244,-174.62762,872.55505,35.31563,-113.03231,854.53687,5.87778,-65.90176,936.78918
52,0.425,-29.30244,-174.62762,872.55505,33.83819,-112.17055,854.47015,5.65379,-65.31769,936.69501
53,0.433,-29.30244,-174.62762,872.55505,33.28417,-111.16901,854.45117,4.24657,-64.9024,936.78546
54,0.442,-31.37461,-173.54799,871.29004,33.28417,-111.16901,854.45117,3.97003,-65.28136,936.95129
55,0.45,-31.37461,-173.54799,871.29004,32.96013,-111.02569,854.96973,3.70733,-65.15319,937.13525
56,0.458,-33.44477,-171.91589,870.86542,33.15416,-111.40479,855.78436,3.37113,-65.06907,937.28662
57,0.467,-33.44477,-171.91589,870.86542,33.15416,-111.40479,855.78436,2.4405,-65.37556,938.07745
58,0.475,-33.44477,-171.91589,870.86542,32.18648,-111.42976,856.41357,2.4405,-65.37556,938.07745
59,0.483,-33.44477,-171.91589,870.86542,31.36858,-111.91968,857.10089,2.4405,-65.37556,938.07745
60,0.492,-32.92015,-171.70663,871.92029,31.36858,-111.91968,857.10089,1.83336,-64.79281,938.38416
61,0.5,-32.27966,-172.80896,873.9455,31.03386,-110.86173,857.15277,1.55886,-65.11321,939.4682
62,0.508,-32.79313,-171.91904,874.57599,30.29055,-112.02369,857.33319,1.32154,-64.8165,939.7757
63,0.517,-32.79313,-171.91904,874.57599,29.84905,-110.42952,858.12909,-0.44942,-64.64438,939.67938
64,0.525,-32.79313,-171.91904,874.57599,29.84905,-110.42952,858.12909,-0.5911,-65.02174,939.95752
65,0.533,-32.79313,-171.91904,874.57599,29.98064,-109.8063,858.19952,-2.01814,-63.81179,940.18787
66,0.542,-32.79313,-171.91904,874.57599,30.08532,-109.33471,858.47656,-1.77394,-63.61798,940.34668
67,0.55,-32.79313,-171.91904,874.57599,30.11086,-108.90065,858.69971,-2.12048,-62.81547,940.00226
68,0.558,-32.79313,-171.91904,874.57599,30.01056,-108.49602,858.99103,-2.12048,-62.81547,940.00226
69,0.567,-32.79313,-171.91904,874.57599,30.01056,-108.49602,858.99103,-0.96467,-63.69493,940.23059
70,0.575,-32.79313,-171.91904,874.57599,30.01056,-108.49602,858.99103,-0.96467,-63.69493,940.23059
71,0.583,-32.79313,-171.91904,874.57599,30.01056,-108.49602,858.99103,-0.96467,-63.69493,940.23059
72,0.592,-32.79313,-171.91904,874.57599,30.01056,-108.49602,858.99103,-1.77625,-62.65733,940.10529
73,0.6,-32.79313,-171.91904,874.57599,30.01056,-108.49602,858.99103,-0.62041,-63.53679,940.33362
74,0.608,-32.79313,-171.91904,874.57599,30.01056,-108.49602,858.99103,-0.62041,-63.53679,940.33362
75,0.617,-32.79313,-171.91904,874.57599,30.01056,-108.49602,858.99103,-0.62041,-63.53679,940.33362
76,0.625,-32.79313,-171.91904,874.57599,30.01056,-108.49602,858.99103,-0.62444,-63.32525,940.5578
77,0.633,-32.79313,-171.91904,874.57599,30.01056,-108.49602,858.99103,-0.62444,-63.32525,940.5578
78,0.642,-32.79313,-171.91904,874.57599,30.01056,-108.49602,858.99103,-0.62444,-63.32525,940.5578
79,0.65,-32.79313,-171.91904,874.57599,30.01056,-108.49602,858.99103,-0.62444,-63.32525,940.5578
80,0.658,-32.79313,-171.91904,874.57599,30.41996,-108.47226,858.89191,-0.62444,-63.32525,940.5578
81,0.667,-32.79313,-171.91904,874.57599,30.41996,-108.47226,858.89191,-0.6284,-63.11391,940.7821
82,0.675,-30.71955,-173.00078,875.8396,30.41996,-108.47226,858.89191,-0.29251,-62.72325,940.3277
83,0.683,-30.71955,-173.00078,875.8396,30.41996,-108.47226,858.89191,-0.1981,-62.40217,940.03754
84,0.692,-30.71955,-173.00078,875.8396,30.41996,-108.47226,858.89191,-0.20205,-62.19071,940.2619
85,0.7,-30.71955,-173.00078,875.8396,30.41996,-108.47226,858.89191,-0.20205,-62.19071,940.2619
86,0.708,-30.71955,-173.00078,875.8396,31.36709,-108.96507,859.03107,-0.20205,-62.19071,940.2619
87,0.717,-30.36254,-169.16557,874.41205,30.41996,-108.47226,858.89191,0.07799,-62.02303,939.87183
88,0.725,-30.36254,-169.16557,874.41205,31.36709,-108.96507,859.03107,0.07799,-62.02303,939.87183
89,0.733,-30.36254,-169.16557,874.41205,31.09176,-108.41967,858.4776,-0.26774,-61.22064,939.52759
90,0.742,-30.36254,-169.16557,874.41205,31.82889,-108.6529,858.04059,-0.2717,-61.00908,939.75201
91,0.75,-30.36254,-169.16557,874.41205,31.28533,-109.00207,858.27496,-0.26774,-61.22064,939.52759
92,0.758,-30.36254,-169.16557,874.41205,30.68119,-108.6618,858.43433,-0.2717,-61.00908,939.75201
93,0.767,-30.36254,-169.16557,874.41205,31.28533,-109.00207,858.27496,0.07404,-61.81153,940.09619
94,0.775,-30.36254,-169.16557,874.41205,30.41996,-108.47226,858.89191,0.07404,-61.81153,940.09619
95,0.783,-30.36254,-169.16557,874.41205,30.68119,-108.6618,858.43433,0.07404,-61.81153,940.09619
96,0.792,-30.36254,-169.16557,874.41205,31.28533,-109.00207,858.27496,-0.20205,-62.19071,940.2619
97,0.8,-30.36254,-169.16557,874.41205,31.28533,-109.00207,858.27496,0.07404,-61.81153,940.09619
98,0.808,-30.36254,-169.16557,874.41205,31.69578,-108.75996,858.31824,0.07404,-61.81153,940.09619
99,0.817,-30.36254,-169.16557,874.41205,31.69578,-108.75996,858.31824,0.07404,-61.81153,940.09619
100,0.825,-30.36254,-169.16557,874.41205,31.69578,-108.75996,858.31824,0.07404,-61.81153,940.09619
101,0.833,-30.36254,-169.16557,874.41205,31.69578,-108.75996,858.31824,0.07404,-61.81153,940.09619
102,0.842,-30.36254,-169.16557,874.41205,32.35434,-109.07525,858.6629,0.07404,-61.81153,940.09619
103,0.85,-30.36254,-169.16557,874.41205,32.93031,-108.92875,859.34143,1.2295,-62.69319,940.32471
104,0.858,-30.36254,-169.16557,874.41205,32.93031,-108.92875,859.34143,1.2295,-62.69319,940.32471
105,0.867,-30.36254,-169.16557,874.41205,32.93031,-108.92875,859.34143,1.2295,-62.69319,940.32471
106,0.875,-30.36254,-169.16557,874.41205,32.93031,-108.92875,859.34143,1.2295,-62.69319,940.32471
107,0.883,-30.36254,-169.16557,874.41205,33.06314,-109.40481,859.56451,1.48655,-62.50428,940.47687
108,0.892,-30.36254,-169.16557,874.41205,33.36299,-109.49084,859.58124,0.33104,-61.62255,940.24841
109,0.9,-30.70356,-168.60785,873.95123,33.8451,-110.60472,860.00842,0.33104,-61.62255,940.24841
110,0.908,-30.70356,-168.60785,873.95123,34.27157,-110.7655,860.55133,0.9485,-61.19315,940.53552
111,0.917,-30.70356,-168.60785,873.95123,34.27157,-110.7655,860.55133,1.29452,-61.99542,940.87958
112,0.925,-30.70356,-168.60785,873.95123,34.27157,-110.7655,860.55133,1.5028,-61.77055,940.69214
113,0.933,-30.70356,-168.60785,873.95123,34.49336,-111.26366,861.56427,3.44444,-61.83011,941.00256
114,0.942,-30.26168,-168.30055,874.51837,35.26764,-111.53338,861.90784,3.88975,-61.77789,940.97485
115,0.95,-29.81856,-167.99522,875.08643,35.46431,-111.57647,862.46063,4.46099,-61.24417,941.32806
116,0.958,-29.81856,-167.99522,875.08643,35.71906,-111.36363,862.57587,4.70436,-61.67719,941.82806
117,0.967,-29.81856,-167.99522,875.08643,37.34644,-112.45173,863.55621,5.17925,-61.55575,942.28802
118,0.975,-29.81856,-167.99522,875.08643,38.58331,-111.87433,863.95648,5.43597,-61.36688,942.44025
119,0.983,-29.99212,-164.50706,874.25385,38.58331,-111.87433,863.95648,5.43597,-61.36688,942.44025
120,0.992,-29.99212,-164.50706,874.25385,38.58331,-111.87433,863.95648,5.75041,-61.03891,942.58209
121,1,-29.99212,-164.50706,874.25385,39.13712,-112.87749,863.97589,6.89777,-60.77864,943.3371
122,1.008,-29.35704,-165.6069,876.27338,39.60712,-111.91731,864.53497,6.89777,-60.77864,943.3371
123,1.017,-27.28493,-166.69223,877.53644,40.71901,-112.41032,865.18463,8.4454,-61.28106,943.7179
124,1.025,-24.80655,-169.90874,879.65369,40.8395,-112.5372,866.0769,8.80585,-60.93114,943.95697
125,1.033,-25.14157,-169.56099,880.38928,41.78516,-112.97714,867.84839,9.64457,-61.46102,944.54913
126,1.042,-25.14157,-169.56099,880.38928,45.54449,-115.30127,869.43402,10.86103,-62.05569,944.86401
127,1.05,-25.14157,-169.56099,880.38928,45.86923,-116.22173,870.01184,11.29116,-61.81338,945.76495
128,1.058,-24.26011,-168.94966,881.52277,45.86923,-116.22173,870.01184,12.35748,-63.00411,947.79681
129,1.067,-22.51078,-169.13458,883.33392,47.08676,-116.91544,870.24139,13.08876,-62.79446,948.63727
130,1.075,-22.51078,-169.13458,883.33392,47.32857,-116.6514,870.37231,14.32183,-63.2298,949.3111
131,1.083,-22.51078,-169.13458,883.33392,49.35974,-116.0504,872.31213,14.35972,-62.62611,949.5462
132,1.092,-22.51078,-169.13458,883.33392,49.82825,-116.25745,873.85956,14.68727,-62.29709,950.11011
133,1.1,-20.44853,-170.21581,884.5899,50.29142,-117.65528,875.07336,15.99541,-63.86938,951.80658
134,1.108,-19.21356,-168.7778,884.48462,51.1204,-118.71516,875.9776,17.96052,-62.76779,952.53809
135,1.117,-19.9319,-167.26453,885.34338,52.40553,-119.46016,876.44604,19.88507,-63.33998,952.63831
136,1.125,-19.64935,-166.98752,886.42975,54.42441,-120.5324,877.41443,19.63791,-58.84239,951.56744
137,1.133,-19.64935,-166.98752,886.42975,56.05542,-121.25477,879.82245,20.40781,-58.70795,951.89899
138,1.142,-16.72336,-171.70082,890.36774,57.14199,-121.93136,881.12653,20.40781,-58.70795,951.89899
139,1.15,-17.21299,-169.48006,890.55524,58.63881,-121.19755,882.5144,22.50028,-57.08339,951.8009
140,1.158,-16.5964,-169.55148,890.90564,60.50935,-123.32046,884.1123,23.862,-55.67246,952.97852
141,1.167,-14.40965,-168.21225,891.75018,60.50935,-123.32046,884.1123,25.27165,-57.06592,954.09979
142,1.175,-13.79166,-168.28661,892.10193,64.48432,-122.03776,884.84381,28.00283,-58.07194,954.6347
143,1.183,-13.79166,-168.28661,892.10193,65.70517,-122.98997,885.34601,29.74496,-56.65139,954.45709
144,1.192,-12.26985,-166.36037,892.06458,66.15543,-122.85339,885.6048,31.21721,-54.83393,954.27002
145,1.2,-8.17064,-168.5206,894.56012,68.23936,-123.63432,886.83032,33.80697,-55.8476,955.43848
146,1.208,-7.63298,-167.01173,894.97351,68.5601,-122.77773,887.76233,35.21955,-56.68219,957.13055
147,1.217,-7.49989,-167.29945,897.39948,71.06543,-125.30496,891.05487,37.24688,-56.11734,958.7334
148,1.225,-7.49989,-167.29945,897.39948,73.17723,-125.1471,890.93329,38.65133,-53.59253,958.37891
149,1.233,-5.28603,-167.74071,899.90649,74.26817,-124.93662,891.84833,39.22084,-53.14067,958.04639
150,1.242,-3.5816,-167.41324,900.19104,77.10938,-126.74142,895.82831,40.44428,-51.91334,957.84045
151,1.25,-1.78368,-167.97722,902.36768,77.22263,-127.40091,896.56085,42.38305,-50.06491,957.16412
152,1.258,-2.23143,-167.59563,902.58704,79.16261,-127.16138,897.46631,44.22358,-49.43492,957.51068
153,1.267,0.75064,-166.80797,903.81683,80.98996,-128.66843,900.14209,46.34436,-49.00535,958.39856
154,1.275,1.90296,-165.49643,904.70776,81.91924,-127.06389,902.69885,47.56004,-49.33598,959.4751
155,1.283,3.18132,-165.50786,907.51617,83.25318,-129.26872,904.57727,49.03373,-48.85081,960.44165
156,1.292,4.03898,-166.04187,907.49915,87.53447,-129.18233,905.47003,53.16712,-45.25942,959.47198
157,1.3,7.87127,-168.31615,910.85162,88.81298,-128.62668,907.11713,56.08955,-44.82566,961.21912
158,1.308,8.37204,-164.51302,911.97186,89.9614,-129.09149,908.43488,58.19706,-43.79383,961.67242
159,1.317,8.70735,-164.77905,912.06525,93.42276,-130.87926,911.66089,59.98835,-42.7835,962.13483
160,1.325,12.1456,-163.00154,911.91229,93.99178,-130.39531,912.53528,62.38471,-41.33078,961.71252
161,1.333,13.18192,-162.34789,914.43231,95.42277,-129.36281,913.69,65.07739,-39.3155,961.23761
162,1.342,13.62228,-162.62793,916.07764,98.26245,-130.55721,916.04205,68.58189,-37.49261,960.78473
163,1.35,16.76738,-162.52548,917.13422,99.88223,-130.84535,919.18457,71.52665,-35.28303,961.03522
164,1.358,17.20846,-157.16107,918.11847,103.34283,-128.81674,919.91907,73.54087,-33.78839,961.06415
165,1.367,18.22067,-157.56848,918.94354,103.39272,-128.56212,922.60913,76.44216,-34.60504,962.08173
166,1.375,21.59612,-159.16092,920.98865,104.57963,-128.48799,923.62,79.4151,-32.38497,961.87036
167,1.383,22.37747,-158.28857,922.19171,108.59943,-131.28934,927.86804,82.57529,-32.93808,963.98785
168,1.392,25.59893,-155.16083,924.78186,109.03705,-130.18201,929.30261,84.67306,-30.1666,965.24603
169,1.4,27.01082,-154.93645,927.42389,112.83467,-129.26408,931.24359,87.64332,-31.52213,967.11957
170,1.408,29.07542,-156.4207,928.77686,114.85555,-128.00755,932.96399,90.58481,-29.67352,967.75452
171,1.417,30.59933,-154.69069,929.96344,116.32574,-127.76151,934.17633,93.85787,-27.7826,968.52844
172,1.425,32.74965,-155.26659,932.19525,119.40349,-129.43008,937.86633,97.00533,-28.20804,970.00574
173,1.433,35.67866,-151.6152,935.20587,120.47424,-129.2648,939.33234,99.69245,-25.61426,971.06927
174,1.442,37.06092,-152.46194,936.61041,123.08259,-125.50172,940.71991,103.83901,-24.21278,971.58691
175,1.45,38.10269,-152.65813,937.46649,125.16074,-126.99466,944.1062,106.23997,-21.58624,971.22064
176,1.458,42.01347,-149.42979,938.58002,127.85953,-126.66954,945.77039,109.33214,-21.70023,972.43085
177,1.467,43.25691,-147.26236,940.65851,129.83554,-126.71069,948.20941,113.68359,-21.21495,972.6781
178,1.475,44.68901,-147.1963,942.414,131.1111,-126.5328,949.84973,116.17403,-21.00931,973.76825
179,1.483,47.44884,-146.53546,943.97449,136.35202,-126.27863,953.51343,120.16915,-20.08622,974.87366
180,1.492,49.9892,-146.61565,946.38348,137.44931,-125.90316,954.01788,123.73295,-17.76302,974.49597
181,1.5,51.41425,-145.67517,947.47064,139.27805,-124.644,955.43146,126.46474,-17.08399,976.0376
182,1.508,54.238,-143.42776,949.86084,141.62254,-123.9864,957.19714,128.90993,-15.5362,978.3606
183,1.517,55.72219,-142.57703,952.16821,144.8999,-123.0237,958.16406,132.75844,-14.79461,978.62445
184,1.525,59.26745,-142.38133,954.0589,145.90739,-122.22094,958.96075,135.7365,-15.86925,979.63055
185,1.533,60.56707,-141.04056,955.98077,148.87263,-122.64456,962.71222,138.12509,-13.02018,982.26617
186,1.542,63.09735,-140.54175,957.13495,151.68481,-120.91631,964.25134,141.28415,-12.63435,982.11121
187,1.55,65.06683,-139.14012,959.07135,153.75391,-121.68095,964.75977,142.75639,-12.94627,982.56482
188,1.558,66.40868,-138.04234,961.87756,154.37724,-120.78905,967.44403,147.01944,-10.29844,982.49597
189,1.567,68.77531,-136.41771,961.95349,154.71346,-118.86428,968.73859,149.67598,-11.13648,982.69659
190,1.575,69.42531,-135.12444,964.57672,157.29245,-117.10709,971.21881,152.01091,-9.11841,984.08258
191,1.583,70.60715,-135.09856,966.10388,159.32974,-118.48766,974.43262,153.68896,-8.57119,986.06506
192,1.592,71.46761,-133.62747,966.72339,162.15897,-119.729,976.10291,156.19795,-8.51727,986.86517
193,1.6,72.91769,-133.68091,968.65918,163.22801,-117.75217,978.4104,159.83722,-7.3809,987.19714
194,1.608,74.35157,-132.46851,969.50861,165.22977,-117.74384,979.48468,162.41753,-6.37418,987.92572
195,1.617,75.10096,-130.27872,971.5014,166.33052,-116.31924,980.75153,162.48582,-6.31574,989.09143
196,1.625,77.96278,-129.70036,973.86578,170.32906,-117.78172,983.90417,166.28256,-6.30191,991.60907
197,1.633,78.5266,-128.56235,974.48004,171.61089,-116.67648,984.43396,168.31458,-5.75898,992.73773
198,1.642,79.73645,-128.13055,976.0614,171.73111,-114.8467,986.07043,168.24269,-5.15727,993.58496
199,1.65,81.82501,-127.25529,977.76215,173.30344,-114.34494,986.52338,172.88509,-3.52549,994.16595
200,1.658,83.34229,-126.37693,979.80853,175.25414,-113.98767,988.28455,173.61465,-1.68861,994.67395
201,1.667,84.2642,-126.8927,981.11871,173.10057,-110.40617,988.90161,175.69626,-1.60899,995.41504
202,1.675,85.70644,-125.28671,981.91937,175.0313,-109.2504,989.64984,177.22165,-0.28663,996.22632
203,1.683,86.9159,-121.72951,983.30927,177.60458,-111.39101,993.79584,180.20903,0.5577,995.77563
