Frame#,Time,R.Forearm.x,R.Forearm.y,R.Forearm.z,R.Ulna.x,R.Ulna.y,R.Ulna.z,R.Radius.x,R.Radius.y,R.Radius.z
1,0,-1601.84619,-278.00583,1027.33752,-1622.87244,-325.05887,925.63348,-1562.14758,-261.40646,901.70007
2,0.008,-1594.92651,-281.4241,1028.0885,-1615.15747,-324.62738,925.4826,-1552.28638,-262.24255,902.61761
3,0.017,-1588.34961,-281.56934,1028.31885,-1610.45007,-325.90674,926.05316,-1548.51904,-263.90601,905.0202
4,0.025,-1582.50513,-281.0542,1029.31555,-1602.43237,-325.57324,925.5968,-1541.52124,-261.4545,906.92712
5,0.033,-1575.72095,-280.23697,1029.22339,-1595.31848,-326.15445,925.96124,-1532.47974,-263.23901,906.37482
6,0.042,-1568.88342,-284.22195,1029.4375,-1589.67505,-326.49884,926.94989,-1522.40076,-262.29684,906.68213
7,0.05,-1564.61536,-280.13907,1028.83521,-1585.86121,-327.4686,927.35022,-1521.89819,-261.67978,906.76935
8,0.058,-1558.46289,-282.25534,1030.13281,-1574.8595,-325.21545,926.7337,-1514.1488,-262.44394,907.18024
9,0.067,-1552.5105,-280.34915,1029.83191,-1570.11426,-326.56638,926.58545,-1510.15063,-261.58908,906.50586
10,0.075,-1546.26831,-283.68503,1030.00818,-1565.19604,-326.19299,927.26294,-1501.06616,-260.39368,906.47894
11,0.083,-1541.65747,-279.81403,1028.80542,-1560.15991,-326.14111,927.46869,-1494.33765,-261.88022,907.59344
12,0.092,-1536.87122,-279.88049,1029.80774,-1552.93225,-326.57587,926.60522,-1491.91809,-260.73505,908.09869
13,0.1,-1531.71643,-278.34439,1029.57788,-1548.9325,-325.46982,926.44769,-1483.40698,-262.47928,908.4054
14,0.108,-1523.77332,-282.58234,1030.60474,-1541.61792,-325.15927,927.0979,-1480.21875,-260.35236,907.74084
15,0.117,-1519.61902,-280.97992,1029.83923,-1536.02136,-324.23294,926.33099,-1472.98315,-261.23218,907.70728
16,0.125,-1514.42737,-279.23492,1028.37952,-1530.16309,-324.96109,925.84851,-1469.9397,-259.06754,907.87537
17,0.133,-1508.58521,-279.79901,1029.45667,-1526.96301,-323.44763,925.47449,-1462.03223,-259.28683,907.09888
18,0.142,-1503.9585,-280.87485,1029.20947,-1520.31189,-322.72269,924.56873,-1459.66626,-258.13483,906.29065
19,0.15,-1499.81201,-275.52594,1026.9281,-1516.98975,-323.28641,925.04645,-1451.83594,-258.68872,905.97302
20,0.158,-1493.89868,-277.10519,1027.37817,-1512.24756,-321.59708,924.62384,-1449.33801,-256.78845,905.25629
21,0.167,-1489.56982,-277.97629,1027.34888,-1505.4552,-321.23563,923.60486,-1446.61487,-254.74396,905.01428
22,0.175,-1484.82983,-274.76233,1025.39258,-1503.62097,-320.75397,923.23926,-1439.58337,-255.466,905.49841
23,0.183,-1479.67151,-274.3436,1028.12842,-1497.34973,-319.53491,922.71802,-1436.80298,-254.26154,904.59076
24,0.192,-1476.74927,-277.58517,1025.66016,-1493.11194,-318.94611,921.88818,-1429.10596,-255.4897,901.53333
25,0.2,-1474.78186,-276.1492,1025.1803,-1488.8999,-318.66171,921.72406,-1427.21716,-253.92206,901.37671
26,0.208,-1471.15051,-281.09528,1025.42163,-1486.82153,-317.99756,920.328,-1424.44873,-251.04323,899.9809
27,0.217,-1464.87427,-273.78323,1023.87476,-1480.53784,-315.94717,919.8501,-1418.53381,-253.57275,900.22131
28,0.225,-1458.52051,-267.23199,1021.70648,-1477.55969,-315.84998,920.15833,-1416.31531,-251.09598,898.54797
29,0.233,-1454.69263,-271.83517,1022.22089,-1473.2439,-315.37015,918.85144,-1413.3186,-248.67271,897.67413
30,0.242,-1451.80798,-268.66724,1022.10901,-1468.51392,-312.95993,918.01764,-1410.9823,-247.56805,896.88812
31,0.25,-1445.31287,-271.51257,1019.94043,-1467.03137,-312.91513,917.37531,-1403.74451,-248.12662,893.27838
32,0.258,-1441.51794,-270.99286,1019.37213,-1464.83008,-312.02713,916.54608,-1400.61401,-245.56477,892.65729
33,0.267,-1439.02856,-269.35461,1020.30481,-1459.54797,-310.94983,915.32062,-1400.2478,-245.37985,892.76978
34,0.275,-1436.6283,-265.57745,1016.64844,-1455.34839,-309.96469,913.2702,-1394.64514,-243.99132,892.42993
35,0.283,-1432.95801,-268.30087,1019.63092,-1453.09729,-309.17386,914.19855,-1390.89612,-243.74455,891.7854
36,0.292,-1427.7439,-262.97238,1016.0741,-1449.73413,-308.68777,912.78558,-1388.53223,-241.36366,889.58618
37,0.3,-1422.64478,-258.48767,1013.45343,-1445.27539,-306.38126,911.62927,-1387.94641,-241.42372,887.91156
38,0.308,-1419.96252,-257.6181,1011.84094,-1442.54492,-305.44699,910.48566,-1385.02014,-238.33525,885.19989
39,0.317,-1415.39502,-260.53061,1013.79968,-1440.87781,-305.36646,910.26764,-1378.71118,-240.36444,885.0105
40,0.325,-1415.64319,-262.68845,1013.3952,-1437.59851,-303.16934,909.77271,-1377.04883,-238.97984,884.84167
41,0.333,-1408.42859,-254.05872,1011.9986,-1434.24658,-301.3067,908.77832,-1374.37598,-237.50275,883.80933
42,0.342,-1408.05945,-259.94077,1012.8689,-1432.23621,-301.09448,908.72534,-1374.10535,-237.03882,884.19623
43,0.35,-1403.19189,-258.12769,1013.31415,-1430.52698,-300.57962,908.87073,-1372.03857,-234.48863,883.75604
44,0.358,-1402.34351,-257.13443,1013.62848,-1427.92932,-298.76575,908.71362,-1368.1925,-234.51088,882.40643
45,0.367,-1400.14673,-255.93309,1013.24335,-1424.51721,-297.29254,909.53906,-1364.4093,-234.77855,882.10376
46,0.375,-1388.81946,-249.73599,1011.89685,-1423.78223,-296.60175,909.73981,-1362.32813,-232.98489,882.16241
47,0.383,-1390.13647,-252.57483,1012.81738,-1420.65137,-295.16327,912.02686,-1360.23291,-229.97711,882.14056
48,0.392,-1388.77393,-251.83969,1012.66003,-1417.03845,-292.90192,912.32904,-1359.13989,-229.42889,882.48804
49,0.4,-1386.46545,-249.67738,1013.24554,-1415.6886,-292.13138,912.85834,-1357.66711,-228.48463,882.68408
50,0.408,-1382.62793,-245.60979,1013.25049,-1414.5011,-291.12598,914.52228,-1354.40918,-228.12717,882.1991
51,0.417,-1377.56421,-247.77464,1014.06244,-1413.2301,-290.63293,915.03601,-1349.42822,-227.57541,882.37891
52,0.425,-1374.67444,-244.71234,1018.46832,-1410.39709,-290.15802,916.9917,-1348.72229,-227.59984,884.30975
53,0.433,-1371.96338,-242.28296,1018.16559,-1406.77417,-286.64035,919.15619,-1347.91882,-226.56161,886.30225
54,0.442,-1367.70288,-242.32593,1019.14691,-1404.51599,-286.1937,920.19757,-1346.37854,-226.33034,887.4035
55,0.45,-1362.24658,-239.90456,1018.65991,-1402.98499,-286.37772,921.77057,-1343.34241,-226.37056,888.93835
56,0.458,-1362.95508,-241.97827,1023.0697,-1401.14465,-285.00705,923.26782,-1338.7406,-224.28394,889.91388
57,0.467,-1359.70337,-239.05785,1023.58783,-1396.69824,-282.11423,925.20538,-1337.6571,-223.74379,890.26495
58,0.475,-1353.8905,-239.79016,1024.00684,-1394.02734,-282.03564,926.73346,-1336.00879,-221.52803,891.87036
59,0.483,-1350.90649,-238.22774,1024.18909,-1392.80347,-281.86017,927.72113,-1334.62769,-221.43813,894.78046
60,0.492,-1349.70093,-236.89627,1024.02087,-1390.94824,-280.80911,929.02881,-1328.96509,-221.86581,895.57416
61,0.5,-1344.39526,-237.78445,1025.00256,-1386.89478,-277.901,929.05548,-1326.35791,-221.63271,895.60803
62,0.508,-1342.08386,-236.27707,1028.25928,-1385.19031,-278.18274,930.68079,-1324.40588,-219.76042,895.27478
63,0.517,-1338.56274,-234.47218,1028.18042,-1382.28894,-277.42856,932.36859,-1320.08521,-220.0619,895.823
64,0.525,-1337.26233,-233.63998,1028.91345,-1379.0116,-276.92499,932.29187,-1316.37964,-218.92578,898.65094
65,0.533,-1333.68555,-234.72559,1028.89893,-1376.2887,-275.53745,932.57361,-1312.46472,-219.03606,898.3526
66,0.542,-1332.01453,-233.66403,1030.12646,-1371.90906,-273.71027,932.87219,-1310.03223,-218.80885,899.53314
67,0.55,-1327.0072,-230.35646,1030.10315,-1369.28699,-274.69843,933.48254,-1308.13635,-219.1136,900.28052
68,0.558,-1323.43237,-231.44844,1030.09106,-1366.63062,-274.87656,933.69995,-1303.17798,-219.11407,900.6142
69,0.567,-1321.104,-231.2513,1029.95313,-1365.25159,-274.32315,934.56189,-1299.50854,-217.71686,900.4989
70,0.575,-1314.1012,-232.17322,1030.62817,-1360.078,-272.18149,934.26556,-1296.99707,-217.19962,900.85992
71,0.583,-1305.92224,-232.73065,1032.34363,-1357.3429,-272.18655,937.44568,-1293.95044,-217.52908,900.80896
72,0.592,-1307.24182,-232.1785,1033.86487,-1353.44519,-271.52063,937.00989,-1289.70386,-218.16502,901.40918
73,0.6,-1304.92517,-232.36168,1033.87549,-1349.87146,-271.72928,937.12427,-1283.61145,-215.16469,901.60101
74,0.608,-1299.62512,-230.88039,1033.3656,-1343.39893,-269.27393,937.41528,-1280.86414,-215.51411,902.9256
75,0.617,-1293.82227,-230.58888,1033.31018,-1341.55823,-269.59369,938.09943,-1276.90686,-216.3098,903.7168
76,0.625,-1290.89746,-230.16875,1032.67188,-1338.27332,-270.271,938.14374,-1274.4801,-216.57544,903.38
77,0.633,-1287.11292,-229.9776,1034.15503,-1331.98218,-268.46014,938.25287,-1268.41077,-215.16353,904.05078
78,0.642,-1281.94714,-228.12206,1034.92957,-1329.50623,-268.60541,938.47479,-1261.48499,-216.37265,903.15765
79,0.65,-1277.8833,-228.8959,1036.16479,-1324.41199,-267.9982,938.45837,-1260.01782,-216.69115,903.24023
80,0.658,-1272.92493,-226.32558,1034.73816,-1320.83203,-267.97095,939.44708,-1255.50562,-216.50818,901.77344
81,0.667,-1267.36951,-228.11108,1036.30798,-1315.25952,-266.95508,939.4859,-1250.98645,-214.32437,902.17474
82,0.675,-1263.44385,-228.2529,1034.84265,-1310.91968,-267.97086,939.78461,-1245.59937,-214.58907,901.16412
83,0.683,-1259.02112,-227.6427,1034.6322,-1306.98462,-266.74692,939.25201,-1240.82568,-217.08742,901.41272
84,0.692,-1254.45325,-229.03264,1035.43713,-1299.96472,-266.44754,938.71521,-1235.50049,-215.6404,901.91229
85,0.7,-1248.46716,-226.97192,1034.80469,-1295.50867,-266.4538,938.45599,-1230.04102,-213.45535,901.3819
86,0.708,-1243.13513,-228.48067,1033.90295,-1290.75427,-266.80319,938.21588,-1225.62476,-216.50418,901.16382
87,0.717,-1236.68835,-225.96219,1033.21045,-1284.45862,-265.52942,937.34357,-1219.67969,-215.59245,901.4425
88,0.725,-1232.96216,-224.95337,1032.07178,-1279.1709,-266.15878,938.09094,-1214.42627,-214.72246,899.88196
89,0.733,-1227.69702,-227.50099,1032.45459,-1274.8313,-266.21231,936.88055,-1210.12549,-214.76375,898.97375
90,0.742,-1220.30029,-226.6286,1031.71594,-1266.9939,-265.26263,936.27826,-1202.75354,-214.00768,898.59705
91,0.75,-1213.50232,-227.00461,1032.8573,-1262.58008,-265.56595,936.17242,-1196.52527,-213.0743,897.90698
92,0.758,-1209.34424,-227.70404,1032.255,-1256.59851,-266.24518,935.25153,-1192.81165,-213.31155,897.85272
93,0.767,-1201.82275,-227.7168,1031.16748,-1249.65491,-265.16678,934.16931,-1183.44739,-215.69867,896.99548
94,0.775,-1195.81421,-226.14699,1029.44214,-1243.87683,-265.40012,934.48773,-1178.30115,-215.1282,896.10718
95,0.783,-1191.91516,-227.54759,1029.98193,-1238.0238,-266.33267,933.18677,-1171.62341,-213.01366,895.53625
96,0.792,-1182.21362,-225.94525,1028.36365,-1230.46936,-265.06351,933.16559,-1167.15222,-213.67134,895.59906
97,0.8,-1177.7865,-227.70927,1029.823,-1225.15869,-266.1369,932.36713,-1160.38562,-212.77086,895.34216
98,0.808,-1172.56616,-228.2919,1029.72144,-1216.71387,-264.7601,930.37329,-1152.67468,-214.4483,895.04108
99,0.817,-1164.02417,-224.77415,1024.72815,-1211.12805,-266.02423,930.7923,-1145.41797,-215.64297,894.2373
100,0.825,-1157.97253,-227.84872,1025.43042,-1206.62939,-267.12558,930.67908,-1136.98047,-213.79053,893.1535
101,0.833,-1151.60486,-224.4035,1024.05249,-1197.05237,-265.33469,929.8139,-1133.56677,-213.77301,893.36816
102,0.842,-1144.24866,-227.3185,1022.80432,-1190.06201,-266.75198,927.73181,-1123.95898,-211.95938,892.79944
103,0.85,-1138.89209,-228.22786,1023.04041,-1182.36035,-266.2356,927.00403,-1116.08777,-215.60393,892.95129
104,0.858,-1132.28528,-226.8694,1021.94012,-1175.66602,-266.35507,927.1543,-1109.08337,-213.30847,892.25275
105,0.867,-1123.89355,-227.95271,1021.54211,-1169.02612,-267.32901,925.81293,-1102.14697,-213.48849,889.22369
106,0.875,-1116.21594,-226.90385,1020.60455,-1160.4834,-266.83984,923.02948,-1095.80005,-214.43687,889.90668
107,0.883,-1110.42236,-228.75606,1019.59857,-1152.88782,-268.19846,923.03381,-1088.13,-212.97311,888.79767
108,0.892,-1102.29016,-228.297,1019.42926,-1146.57104,-267.39795,922.1452,-1081.13135,-214.94147,889.62775
109,0.9,-1097.47717,-228.42868,1018.36224,-1137.70251,-267.96558,922.15863,-1072.04688,-214.52484,887.41736
110,0.908,-1088.07275,-231.31883,1018.36682,-1130.13342,-268.34177,919.02429,-1064.36853,-214.59428,887.04175
111,0.917,-1080.83594,-229.92082,1016.95868,-1121.12439,-269.14154,918.12769,-1057.09497,-213.74756,886.5719
112,0.925,-1073.89783,-231.77881,1015.49908,-1114.06799,-268.9437,917.87903,-1047.35266,-214.99431,886.02338
113,0.933,-1065.31091,-231.65025,1014.89001,-1105.07458,-269.86554,915.61188,-1040.44653,-214.30872,884.25043
114,0.942,-1057.37964,-232.85455,1013.74701,-1096.17566,-269.5014,914.9422,-1031.02844,-216.15407,883.79541
115,0.95,-1050.54797,-230.57942,1013.20972,-1089.73328,-271.46643,914.16443,-1024.02856,-216.75233,882.67963
116,0.958,-1041.76331,-233.3616,1011.37921,-1080.46973,-271.86105,911.98547,-1014.16113,-217.59988,880.65417
117,0.967,-1034.26624,-234.82037,1011.42621,-1072.83142,-271.85303,911.71832,-1006.58136,-215.70686,880.26898
118,0.975,-1026.32983,-233.95711,1010.53015,-1063.46741,-272.48288,910.69653,-996.68396,-219.61766,879.91949
119,0.983,-1017.57452,-235.59715,1008.51709,-1054.77319,-272.51758,910.22388,-989.57648,-217.46548,879.82367
120,0.992,-1008.14941,-235.43088,1009.18542,-1047.05872,-274.91711,909.42767,-979.75787,-217.96727,879.2735
121,1,-1000.88757,-235.96144,1009.80719,-1037.60669,-274.08673,909.14465,-972.31445,-217.14691,879.47571
122,1.008,-993.74921,-236.50789,1010.15594,-1029.24866,-275.68878,909.6908,-962.93805,-219.89709,879.31348
123,1.017,-984.74213,-237.84178,1010.27808,-1020.67438,-274.52771,910.2467,-954.13934,-218.3582,881.33667
124,1.025,-976.00739,-237.7874,1010.96979,-1011.9408,-276.14639,910.03687,-946.35059,-220.49341,881.0874
125,1.033,-967.80469,-239.53253,1010.71381,-1002.45331,-276.16354,910.36334,-937.47278,-220.22633,882.13965
126,1.042,-959.50958,-239.90025,1011.29236,-993.90283,-277.91965,910.47217,-928.89081,-219.80209,882.87799
127,1.05,-951.64386,-241.27444,1011.46027,-985.138,-277.56668,910.82599,-919.78125,-223.35634,882.90582
128,1.058,-942.49597,-242.3938,1012.33777,-976.63928,-278.96097,911.00458,-910.80719,-223.41991,883.56305
129,1.067,-934.76068,-243.77023,1012.49591,-967.81671,-280.21057,912.25067,-901.8999,-222.85709,883.86298
130,1.075,-927.34491,-241.76459,1013.28809,-959.89441,-280.45245,911.95129,-893.17902,-222.41039,885.34625
131,1.083,-917.05786,-245.4921,1014.99139,-949.94678,-281.40549,912.05304,-884.16211,-225.18214,886.28119
132,1.092,-909.89642,-246.36374,1016.1861,-941.58966,-281.89285,912.58765,-875.99707,-223.38338,887.47369
133,1.1,-901.65009,-245.75279,1016.14349,-931.7381,-282.47614,913.35608,-866.22223,-225.99516,888.21924
134,1.108,-893.66693,-248.13454,1015.62634,-923.69348,-284.3147,913.23303,-857.36316,-224.89629,887.68005
135,1.117,-885.41467,-247.10672,1015.63995,-913.94067,-284.44095,913.98834,-849.02948,-226.51662,887.55939
136,1.125,-877.87024,-246.52599,1015.93793,-905.62024,-286.05099,913.11133,-841.10449,-225.35956,888.98743
137,1.133,-869.40735,-250.92798,1015.97723,-895.97253,-286.71039,913.46625,-830.94409,-227.93225,889.35535
138,1.142,-861.11151,-249.91542,1016.22198,-887.53033,-286.82458,914.33057,-822.99005,-226.18102,890.6319
139,1.15,-852.91241,-249.13846,1015.8526,-878.71899,-288.87827,914.36761,-814.30261,-226.82257,890.55994
140,1.158,-844.82813,-252.5683,1017.08917,-869.29565,-288.93695,914.03717,-805.77344,-227.77834,891.58405
141,1.167,-834.82202,-248.99294,1017.80133,-860.42603,-290.5835,914.53131,-796.77991,-227.13193,892.09802
142,1.175,-827.35376,-249.55106,1018.18604,-851.42188,-291.16721,914.60284,-788.48578,-228.45799,891.72266
143,1.183,-819.5871,-250.06081,1018.11188,-842.815,-291.41266,915.26849,-780.15283,-229.27861,892.19696
144,1.192,-811.93506,-250.68262,1018.53278,-834.04169,-293.07999,915.80969,-771.46277,-228.44685,892.70258
145,1.2,-803.65106,-251.11874,1019.10266,-825.27722,-292.94461,916.30029,-762.85699,-228.17737,893.33405
146,1.208,-795.96631,-251.31395,1019.99225,-817.67786,-293.11807,916.36108,-754.64258,-230.97282,894.60059
147,1.217,-788.59827,-253.25717,1021.23059,-808.6618,-293.79532,917.36139,-747.10938,-230.00128,895.09192
148,1.225,-779.91998,-251.91493,1021.49719,-801.15784,-293.72864,918.31122,-738.94818,-230.37683,895.99323
149,1.233,-772.95569,-253.70581,1022.48151,-793.02631,-295.0907,919.11975,-730.46167,-230.66151,896.20251
150,1.242,-764.80304,-253.2562,1022.11719,-784.5462,-295.37189,919.92798,-723.35931,-232.13751,897.12054
151,1.25,-758.14948,-254.32755,1023.24872,-777.3266,-295.9454,920.7016,-715.74744,-231.08382,898.62109
152,1.258,-750.85126,-252.37326,1025.16028,-770.28741,-294.62592,921.33905,-708.24414,-232.10765,899.61914
153,1.267,-744.18427,-253.98315,1025.83777,-762.87915,-295.38254,922.54468,-700.14124,-231.34056,900.36743
154,1.275,-736.33942,-254.08307,1026.22485,-755.08185,-294.95871,923.58215,-693.19208,-232.15889,902.02515
155,1.283,-730.01019,-254.38007,1027.68176,-748.00476,-295.70895,924.05084,-685.24725,-231.23093,903.04688
156,1.292,-723.47461,-254.83029,1027.89429,-740.742,-294.38098,924.83435,-678.54016,-232.57228,904.76105
157,1.3,-716.45752,-254.48244,1029.05115,-733.56537,-295.61087,924.89276,-670.91461,-232.40443,905.46747
158,1.308,-709.26611,-254.65689,1029.7915,-726.49957,-296.20892,925.5199,-664.05286,-232.3432,905.93494
159,1.317,-702.92017,-254.35651,1030.06238,-720.01996,-296.15146,926.29822,-657.1048,-231.6122,906.71985
160,1.325,-696.21417,-254.07384,1031.25842,-713.29248,-294.92004,926.63177,-650.37128,-232.0546,906.94232
161,1.333,-689.76849,-253.73221,1031.70215,-706.69391,-296.13974,927.23877,-643.06427,-232.37437,907.13531
162,1.342,-684.1474,-254.16306,1031.67957,-700.14935,-295.47748,927.78259,-636.96875,-233.08206,907.92902
163,1.35,-677.81982,-254.55544,1031.71277,-693.45215,-296.12445,927.92041,-630.46857,-229.98502,908.57922
164,1.358,-672.4566,-254.04692,1032.28638,-686.98505,-294.603,928.32751,-625.01202,-231.01553,909.75134
165,1.367,-665.1745,-252.71043,1032.60205,-680.60706,-294.56183,928.63342,-617.3042,-231.03696,909.66943
166,1.375,-659.16333,-252.93713,1031.77417,-673.64233,-294.30453,927.86102,-611.88885,-231.41118,909.48016
167,1.383,-653.01953,-250.87547,1032.94495,-667.34314,-295.32294,928.27551,-605.96643,-231.53381,910.04694
168,1.392,-647.70886,-253.06079,1032.72925,-661.68903,-294.89008,928.13629,-599.46606,-230.31372,910.0459
169,1.4,-640.84668,-252.1501,1032.89465,-656.28894,-293.99786,927.9588,-594.00177,-229.88626,909.95447
170,1.408,-636.14587,-251.31131,1032.42859,-650.37714,-292.02048,928.2677,-588.33826,-227.75101,909.92542
171,1.417,-629.56573,-250.32639,1032.11096,-643.92389,-292.827,928.27332,-582.20404,-229.02277,909.56738
172,1.425,-624.29486,-250.13849,1031.79041,-638.91284,-291.39395,927.59222,-576.56787,-228.48526,908.59839
173,1.433,-618.71216,-248.70287,1030.99158,-632.94855,-292.29517,926.85303,-570.60577,-228.82693,908.29932
174,1.442,-613.92487,-247.6656,1030.55908,-627.71967,-291.85312,926.59796,-565.95306,-227.55466,907.47144
175,1.45,-607.5907,-246.67529,1029.81458,-622.77032,-291.50244,925.91827,-560.69775,-226.54448,907.02362
176,1.458,-602.61383,-248.67363,1029.30603,-617.46313,-290.07092,925.82697,-555.56323,-225.60783,906.48102
177,1.467,-597.44958,-246.09483,1028.87097,-612.02966,-288.67114,925.18915,-550.65717,-224.61691,905.49719
178,1.475,-593.21484,-246.15187,1028.49011,-608.09399,-287.83517,924.88409,-546.65771,-223.60269,904.65564
179,1.483,-586.64435,-244.33832,1027.68542,-602.90643,-286.71521,923.73151,-541.75812,-223.17238,903.99109
180,1.492,-582.22858,-245.10042,1025.56836,-598.98126,-285.81717,923.08716,-537.10645,-222.91727,903.35889
181,1.5,-577.86218,-242.89769,1025.20898,-594.11523,-285.21167,922.69849,-532.96875,-221.30109,901.69415
182,1.508,-573.43817,-242.73116,1024.84924,-590.00995,-284.63123,921.94153,-527.72754,-221.40053,900.97797
183,1.517,-568.10156,-240.61385,1024.36975,-585.14807,-283.77185,921.5365,-523.32007,-220.23114,899.42419
184,1.525,-563.04144,-240.95796,1023.64337,-581.29187,-282.94467,919.94653,-519.53815,-219.85246,898.8584
185,1.533,-558.51733,-238.33574,1022.82843,-577.29041,-281.81885,919.41302,-514.7796,-218.06844,898.00574
