Frame#,Time,R.Forearm.x,R.Forearm.y,R.Forearm.z,R.Ulna.x,R.Ulna.y,R.Ulna.z,R.Radius.x,R.Radius.y,R.Radius.z
1,0,369.15558,-165.8947,1050.06531,335.67462,-214.84749,939.7641,389.75989,-138.31145,869.84015
2,0.008,369.61139,-165.52716,1050.12207,335.67462,-214.84749,939.7641,389.75989,-138.31145,869.84015
3,0.017,369.61139,-165.52716,1050.12207,336.36295,-214.79082,939.5379,390.20114,-138.01778,869.88251
4,0.025,369.61139,-165.52716,1050.12207,336.36295,-214.79082,939.5379,390.5206,-137.7961,869.76215
5,0.033,369.85242,-165.57927,1050.06323,336.36295,-214.79082,939.5379,390.63373,-137.8289,869.5791
6,0.042,369.61139,-165.52716,1050.12207,336.63766,-214.82042,939.41071,390.63373,-137.8289,869.5791
7,0.05,369.85242,-165.57927,1050.06323,336.73373,-214.97906,939.32703,390.63373,-137.8289,869.5791
8,0.058,369.85242,-165.57927,1050.06323,336.63766,-214.82042,939.41071,390.63373,-137.8289,869.5791
9,0.067,369.85242,-165.57927,1050.06323,336.63766,-214.82042,939.41071,390.97501,-137.51706,869.39404
10,0.075,369.85242,-165.57927,1050.06323,337.00232,-214.75322,939.36664,390.97501,-137.51706,869.39404
11,0.083,369.85242,-165.57927,1050.06323,337.00232,-214.75322,939.36664,391.5506,-137.20995,869.61035
12,0.092,369.85242,-165.57927,1050.06323,337.00232,-214.75322,939.36664,391.5506,-137.20995,869.61035
13,0.1,369.85242,-165.57927,1050.06323,337.00232,-214.75322,939.36664,391.72375,-137.41284,869.71381
14,0.108,369.85242,-165.57927,1050.06323,337.00232,-214.75322,939.36664,392.09384,-137.33209,869.82098
15,0.117,369.85242,-165.57927,1050.06323,337.00232,-214.75322,939.36664,392.0936,-137.53142,869.56311
16,0.125,369.85242,-165.57927,1050.06323,337.00232,-214.75322,939.36664,392.81006,-137.57936,870.21472
17,0.133,369.85242,-165.57927,1050.06323,337.00232,-214.75322,939.36664,392.09384,-137.33209,869.82098
18,0.142,369.85242,-165.57927,1050.06323,337.00232,-214.75322,939.36664,392.37112,-137.44594,869.67566
19,0.15,369.85242,-165.57927,1050.06323,337.00232,-214.75322,939.36664,392.53281,-137.46553,870.35992
20,0.158,369.85242,-165.57927,1050.06323,337.00232,-214.75322,939.36664,392.81006,-137.57936,870.21472
21,0.167,369.85242,-165.57927,1050.06323,337.00232,-214.75322,939.36664,392.81006,-137.57936,870.21472
22,0.175,369.85242,-165.57927,1050.06323,337.00232,-214.75322,939.36664,392.97794,-137.62006,870.08478
23,0.183,369.85242,-165.57927,1050.06323,337.09839,-214.91187,939.28296,392.09384,-137.33209,869.82098
24,0.192,369.92984,-165.44806,1049.76941,337.00232,-214.75322,939.36664,392.37112,-137.44594,869.67566
25,0.2,369.92984,-165.44806,1049.76941,337.09839,-214.91187,939.28296,392.539,-137.48663,869.54572
26,0.208,369.92984,-165.44806,1049.76941,337.09839,-214.91187,939.28296,392.0936,-137.53142,869.56311
27,0.217,369.85242,-165.57927,1050.06323,337.09839,-214.91187,939.28296,392.37112,-137.44594,869.67566
28,0.225,369.92984,-165.44806,1049.76941,337.09839,-214.91187,939.28296,392.26147,-137.57213,869.43311
29,0.233,370.13162,-165.29961,1049.57666,337.09839,-214.91187,939.28296,392.26147,-137.57213,869.43311
30,0.242,370.13162,-165.29961,1049.57666,337.3941,-214.63528,939.13647,392.63129,-137.69081,869.28253
31,0.25,370.13162,-165.29961,1049.57666,337.09839,-214.91187,939.28296,392.32028,-137.88326,869.21643
32,0.258,370.13162,-165.29961,1049.57666,337.09839,-214.91187,939.28296,391.95026,-137.96407,869.10931
33,0.267,370.13162,-165.29961,1049.57666,337.09839,-214.91187,939.28296,392.32028,-137.88326,869.21643
34,0.275,370.13162,-165.29961,1049.57666,337.09839,-214.91187,939.28296,391.95026,-137.96407,869.10931
35,0.283,370.13162,-165.29961,1049.57666,337.09839,-214.91187,939.28296,391.95026,-137.96407,869.10931
36,0.292,370.13162,-165.29961,1049.57666,337.09839,-214.91187,939.28296,391.95026,-137.96407,869.10931
37,0.3,369.92984,-165.44806,1049.76941,337.09839,-214.91187,939.28296,391.95026,-137.96407,869.10931
38,0.308,369.92984,-165.44806,1049.76941,337.09839,-214.91187,939.28296,391.95026,-137.96407,869.10931
39,0.317,369.85242,-165.57927,1050.06323,337.09839,-214.91187,939.28296,391.95026,-137.96407,869.10931
40,0.325,369.92984,-165.44806,1049.76941,336.73373,-214.97906,939.32703,391.67288,-137.8501,869.25446
41,0.333,369.92984,-165.44806,1049.76941,336.73373,-214.97906,939.32703,391.67288,-137.8501,869.25446
42,0.342,369.85242,-165.57927,1050.06323,336.73373,-214.97906,939.32703,391.31622,-137.76068,869.36755
43,0.35,369.92984,-165.44806,1049.76941,336.46155,-215.10963,939.26605,391.31622,-137.76068,869.36755
44,0.358,369.39664,-165.94682,1050.00659,336.46155,-215.10963,939.26605,391.3317,-138.16194,869.43951
45,0.367,369.39664,-165.94682,1050.00659,336.46155,-215.10963,939.26605,390.97501,-138.07251,869.55255
46,0.375,369.39664,-165.94682,1050.00659,336.36548,-214.951,939.34973,390.80701,-138.0318,869.68256
47,0.383,369.39664,-165.94682,1050.00659,336.15152,-214.91017,939.46954,390.63373,-137.8289,869.5791
48,0.392,369.39664,-165.94682,1050.00659,336.24759,-215.06883,939.38593,390.63373,-137.8289,869.5791
49,0.4,369.17236,-166.17902,1050.07251,335.37482,-214.36281,939.3902,389.95947,-138.30644,869.59631
50,0.408,369.17236,-166.17902,1050.07251,335.47086,-214.52156,939.30658,389.95947,-138.30644,869.59631
51,0.417,369.17236,-166.17902,1050.07251,335.47086,-214.52156,939.30658,389.95947,-138.30644,869.59631
52,0.425,368.9313,-166.12688,1050.13135,335.05273,-214.36687,939.02484,389.95947,-138.30644,869.59631
53,0.433,369.2648,-166.1411,1049.80933,335.05273,-214.36687,939.02484,389.48358,-138.30347,869.59668
54,0.442,369.01736,-166.08002,1049.87781,335.05273,-214.36687,939.02484,389.45865,-138.43779,869.45862
55,0.45,368.81424,-166.06543,1049.5575,335.05273,-214.36687,939.02484,389.2984,-138.45007,869.20123
56,0.458,368.81424,-166.06543,1049.5575,334.38611,-214.17874,939.25861,389.2984,-138.45007,869.20123
57,0.467,368.81424,-166.06543,1049.5575,334.22998,-213.99796,938.95209,388.85809,-138.31656,868.66248
58,0.475,368.33987,-165.53004,1049.45935,333.95813,-213.84135,938.17499,388.85809,-138.31656,868.66248
59,0.483,367.66635,-164.79633,1049.57996,333.74747,-214.0955,938.34424,388.6358,-138.45467,868.48218
60,0.492,367.57733,-164.52542,1049.30249,333.74661,-213.96069,938.10657,388.6358,-138.45467,868.48218
61,0.5,367.63916,-164.9778,1049.41418,333.53595,-214.21481,938.27582,388.6358,-138.45467,868.48218
62,0.508,367.32953,-165.08322,1049.27441,333.53595,-214.21481,938.27582,388.6358,-138.45467,868.48218
63,0.517,367.32953,-165.08322,1049.27441,333.53595,-214.21481,938.27582,388.18948,-138.29288,868.2948
64,0.525,367.32953,-165.08322,1049.27441,333.53595,-214.21481,938.27582,388.11761,-138.4283,868.51276
65,0.533,367.27588,-165.28421,1049.55933,333.53595,-214.21481,938.27582,388.11761,-138.4283,868.51276
66,0.542,366.40808,-165.43987,1049.33777,332.91641,-214.29578,938.92474,388.11761,-138.4283,868.51276
67,0.55,366.40808,-165.43987,1049.33777,332.68628,-214.12198,938.87732,388.11761,-138.4283,868.51276
68,0.558,366.40808,-165.43987,1049.33777,332.66623,-214.07864,938.39984,388.11761,-138.4283,868.51276
69,0.567,365.77136,-165.30507,1049.39636,332.70566,-214.02457,939.01599,387.52615,-138.58467,868.82288
70,0.575,365.20508,-165.11116,1049.93884,332.70566,-214.02457,939.01599,387.72601,-138.22337,869.02869
71,0.583,365.20508,-165.11116,1049.93884,332.70566,-214.02457,939.01599,387.74084,-138.38217,869.14642
72,0.592,365.20508,-165.11116,1049.93884,332.70566,-214.02457,939.01599,387.9166,-138.63031,869.53485
73,0.6,365.20508,-165.11116,1049.93884,332.70566,-214.02457,939.01599,387.47626,-138.49681,868.99628
74,0.608,365.20508,-165.11116,1049.93884,332.34091,-214.092,939.0603,387.47626,-138.49681,868.99628
75,0.617,365.20508,-165.11116,1049.93884,332.32153,-214.18941,938.92163,387.47626,-138.49681,868.99628
76,0.625,365.20508,-165.11116,1049.93884,332.04941,-214.32014,938.86072,387.9166,-138.63031,869.53485
77,0.633,365.20508,-165.11116,1049.93884,331.29193,-213.67596,938.91998,387.47626,-138.49681,868.99628
78,0.642,365.20508,-165.11116,1049.93884,331.27258,-213.77339,938.78131,387.47626,-138.49681,868.99628
79,0.65,365.20508,-165.11116,1049.93884,331.04202,-214.08452,938.78796,387.10596,-138.57767,868.88928
80,0.658,365.20508,-165.11116,1049.93884,331.02185,-214.04118,938.3103,387.10596,-138.57767,868.88928
81,0.667,365.20508,-165.11116,1049.93884,330.84912,-214.09998,938.03125,387.10596,-138.57767,868.88928
82,0.675,364.95563,-165.4489,1049.90063,330.84912,-214.09998,938.03125,387.10596,-138.57767,868.88928
83,0.683,364.95563,-165.4489,1049.90063,330.84912,-214.09998,938.03125,387.10596,-138.57767,868.88928
84,0.692,364.71423,-165.39684,1049.95947,330.52246,-213.89185,938.22705,387.10596,-138.57767,868.88928
85,0.7,363.97006,-164.93422,1049.45776,330.63501,-214.05917,938.15131,386.82831,-138.46387,869.03455
86,0.708,363.97006,-164.93422,1049.45776,330.63501,-214.05917,938.15131,386.47134,-138.3746,869.14777
87,0.717,363.64734,-165.23016,1049.47205,330.52246,-213.89185,938.22705,386.47134,-138.3746,869.14777
88,0.725,363.28101,-165.20441,1049.49084,330.26062,-214.13055,938.20288,386.47134,-138.3746,869.14777
89,0.733,362.54056,-165.14693,1049.01392,330.26062,-214.13055,938.20288,386.47134,-138.3746,869.14777
90,0.742,362.54056,-165.14693,1049.01392,330.26062,-214.13055,938.20288,385.88544,-137.95628,869.1933
91,0.75,362.23199,-164.79697,1048.54016,329.72076,-214.62772,938.34009,385.88544,-137.95628,869.1933
92,0.758,362.0293,-165.24295,1048.86658,329.72076,-214.62772,938.34009,385.6608,-138.09564,869.29913
93,0.767,362.0293,-165.24295,1048.86658,329.72076,-214.62772,938.34009,385.6608,-138.09564,869.29913
94,0.775,361.72052,-164.89291,1048.39258,329.55444,-214.59341,938.19604,384.88351,-138.24583,869.1496
95,0.783,361.7749,-164.75021,1048.58301,329.55444,-214.59341,938.19604,384.88351,-138.24583,869.1496
96,0.792,361.00821,-164.51721,1048.33984,328.99173,-214.82895,938.37079,384.88351,-138.24583,869.1496
97,0.8,360.61804,-164.70502,1048.07617,328.99173,-214.82895,938.37079,384.88351,-138.24583,869.1496
98,0.808,360.64688,-164.55347,1048.2771,327.92975,-214.26472,938.40967,384.58261,-138.39899,868.99951
99,0.817,360.67969,-164.65181,1048.08105,327.87924,-213.75566,938.20898,384.10632,-138.39626,869.00006
100,0.825,360.67969,-164.65181,1048.08105,327.87924,-213.75566,938.20898,383.8837,-138.15817,868.90027
101,0.833,360.67969,-164.65181,1048.08105,327.87924,-213.75566,938.20898,383.70618,-137.90416,868.6803
102,0.842,360.67969,-164.65181,1048.08105,327.87924,-213.75566,938.20898,383.70618,-137.90416,868.6803
103,0.85,360.67969,-164.65181,1048.08105,327.39661,-213.80173,938.03046,383.44135,-138.01886,868.53015
104,0.858,360.67969,-164.65181,1048.08105,327.59674,-213.87953,938.15985,383.27176,-137.44847,867.92548
105,0.867,360.77609,-164.53647,1047.7478,327.39661,-213.80173,938.03046,383.20233,-137.70064,867.85162
106,0.875,360.77609,-164.53647,1047.7478,326.92776,-214.32451,937.97156,383.09711,-137.22203,867.78839
107,0.883,360.67969,-164.65181,1048.08105,326.68875,-214.15189,937.91315,382.83151,-137.78157,867.74457
108,0.892,360.57138,-164.86992,1047.96387,326.8031,-213.70383,938.00482,382.83151,-137.78157,867.74457
109,0.9,360.48325,-164.54424,1048.21497,326.68875,-214.15189,937.91315,382.83151,-137.78157,867.74457
110,0.908,360.37494,-164.76237,1048.09778,326.68875,-214.15189,937.91315,382.83151,-137.78157,867.74457
111,0.917,360.17856,-164.65491,1048.23193,326.68875,-214.15189,937.91315,382.7262,-137.30295,867.68127
112,0.925,360.17856,-164.65491,1048.23193,326.8031,-213.70383,938.00482,382.83151,-137.78157,867.74457
113,0.933,360.17856,-164.65491,1048.23193,326.68875,-214.15189,937.91315,382.83151,-137.78157,867.74457
114,0.942,359.98151,-164.28752,1047.91089,326.68875,-214.15189,937.91315,382.83151,-137.78157,867.74457
115,0.95,359.78214,-164.41429,1048.08142,326.57007,-213.02094,937.89966,383.09711,-137.22203,867.78839
116,0.958,359.97916,-164.78166,1048.40234,326.45572,-213.46892,937.80798,382.6514,-137.24753,867.84521
117,0.967,359.97916,-164.78166,1048.40234,326.57007,-213.02094,937.89966,382.6514,-137.24753,867.84521
118,0.975,359.97916,-164.78166,1048.40234,326.20758,-212.94066,937.67584,382.6514,-137.24753,867.84521
119,0.983,359.8847,-164.75232,1048.60913,326.09323,-213.38863,937.58417,383.02228,-137.16661,867.95227
120,0.992,359.97916,-164.78166,1048.40234,326.375,-213.12086,937.64539,382.79077,-137.39474,868.22284
121,1,359.97916,-164.78166,1048.40234,325.95047,-213.60204,937.56531,382.79077,-137.39474,868.22284
122,1.008,359.97916,-164.78166,1048.40234,326.09323,-213.38863,937.58417,382.79077,-137.39474,868.22284
123,1.017,359.97916,-164.78166,1048.40234,325.95047,-213.60204,937.56531,383.02228,-137.16661,867.95227
124,1.025,359.97916,-164.78166,1048.40234,325.95047,-213.60204,937.56531,382.6514,-137.24753,867.84521
125,1.033,359.97916,-164.78166,1048.40234,326.01727,-213.46315,937.33527,382.6514,-137.24753,867.84521
126,1.042,359.63281,-164.85487,1047.49561,326.01727,-213.46315,937.33527,382.6514,-137.24753,867.84521
127,1.05,359.56277,-164.78981,1047.57874,326.2504,-214.14622,937.44055,382.6514,-137.24753,867.84521
128,1.058,359.38522,-164.96269,1047.34302,326.18472,-213.64333,937.30481,382.6514,-137.24753,867.84521
129,1.067,359.38522,-164.96269,1047.34302,326.18472,-213.64333,937.30481,382.6514,-137.24753,867.84521
130,1.075,359.38522,-164.96269,1047.34302,326.18472,-213.64333,937.30481,382.7262,-137.30295,867.68127
131,1.083,359.38522,-164.96269,1047.34302,326.25168,-213.50459,937.07477,382.7262,-137.30295,867.68127
132,1.092,359.38522,-164.96269,1047.34302,326.25168,-213.50459,937.07477,382.7262,-137.30295,867.68127
133,1.1,359.56277,-164.78981,1047.57874,326.25168,-213.50459,937.07477,382.7262,-137.30295,867.68127
134,1.108,359.38522,-164.96269,1047.34302,326.04059,-213.64716,936.97955,382.7262,-137.30295,867.68127
135,1.117,359.06479,-164.912,1047.39697,326.25168,-213.50459,937.07477,382.7262,-137.30295,867.68127
136,1.125,359.06479,-164.912,1047.39697,326.04059,-213.64716,936.97955,382.7262,-137.30295,867.68127
137,1.133,359.19705,-164.75027,1047.61609,325.80621,-213.60571,937.24005,382.7262,-137.30295,867.68127
138,1.142,359.06479,-164.912,1047.39697,325.80621,-213.60571,937.24005,382.6514,-137.24753,867.84521
139,1.15,358.46414,-165.29677,1047.62732,325.80621,-213.60571,937.24005,382.6514,-137.24753,867.84521
140,1.158,358.13596,-165.53491,1047.54517,325.80621,-213.60571,937.24005,382.6514,-137.24753,867.84521
141,1.167,357.9422,-165.39259,1047.72559,325.80621,-213.60571,937.24005,382.6514,-137.24753,867.84521
142,1.175,357.7468,-165.5527,1048.47388,325.80621,-213.60571,937.24005,382.6514,-137.24753,867.84521
143,1.183,357.69244,-165.69524,1048.28357,325.80621,-213.60571,937.24005,382.79077,-137.39474,868.22284
144,1.192,357.69244,-165.69524,1048.28357,325.80621,-213.60571,937.24005,382.79077,-137.39474,868.22284
145,1.2,357.7468,-165.5527,1048.47388,325.73941,-213.7446,937.47009,382.79077,-137.39474,868.22284
146,1.208,357.44266,-165.83582,1048.60828,325.97256,-214.42766,937.57532,382.96545,-137.6212,868.35992
147,1.217,357.47733,-166.1097,1048.25037,325.97256,-214.42766,937.57532,382.96545,-137.6212,868.35992
148,1.225,357.47733,-166.1097,1048.25037,325.97256,-214.42766,937.57532,382.96545,-137.6212,868.35992
149,1.233,357.42288,-166.25217,1048.05994,325.97256,-214.42766,937.57532,383.07068,-138.09982,868.42316
150,1.242,357.47733,-166.1097,1048.25037,326.13995,-214.60773,937.5448,383.07068,-138.09982,868.42316
151,1.25,357.47733,-166.1097,1048.25037,325.85611,-214.89301,937.59723,382.77646,-138.14365,867.99835
152,1.258,357.47733,-166.1097,1048.25037,325.85849,-215.0305,937.43579,382.77646,-138.14365,867.99835
153,1.267,357.47733,-166.1097,1048.25037,325.85849,-215.0305,937.43579,382.77646,-138.14365,867.99835
154,1.275,357.65134,-166.08821,1047.97522,325.85849,-215.0305,937.43579,382.77646,-138.14365,867.99835
155,1.283,357.65134,-166.08821,1047.97522,325.85849,-215.0305,937.43579,382.88965,-138.17645,867.81506
156,1.292,357.65134,-166.08821,1047.97522,325.61926,-215.22325,937.33484,382.88956,-138.32602,867.6217
157,1.3,357.65134,-166.08821,1047.97522,325.56308,-215.30757,937.58264,382.56827,-138.55861,867.6391
158,1.308,357.65134,-166.08821,1047.97522,325.32379,-215.50029,937.48169,382.70767,-138.70581,868.01691
159,1.317,357.65134,-166.08821,1047.97522,325.32379,-215.50029,937.48169,382.70767,-138.70581,868.01691
160,1.325,357.65134,-166.08821,1047.97522,325.32379,-215.50029,937.48169,382.70767,-138.70581,868.01691
161,1.333,357.3316,-166.0088,1048.37793,325.32379,-215.50029,937.48169,382.37659,-138.97833,868.11816
162,1.342,357.29321,-166.39159,1048.43201,325.39038,-215.76982,937.65515,382.44104,-139.19957,868.52161
163,1.35,357.14749,-166.29071,1048.55957,325.39038,-215.76982,937.65515,382.44104,-139.19957,868.52161
164,1.358,357.14749,-166.29071,1048.55957,325.32379,-215.50029,937.48169,382.46252,-139.26299,868.72278
165,1.367,356.72162,-166.49545,1048.27197,325.39038,-215.76982,937.65515,382.46252,-139.26299,868.72278
166,1.375,357.10052,-166.45338,1048.34265,325.39038,-215.76982,937.65515,382.68533,-139.35153,869.01581
167,1.383,356.72162,-166.49545,1048.27197,325.39038,-215.76982,937.65515,382.68533,-139.35153,869.01581
168,1.392,356.72162,-166.49545,1048.27197,325.39038,-215.76982,937.65515,382.6853,-139.50105,868.82263
169,1.4,356.72162,-166.49545,1048.27197,325.39038,-215.76982,937.65515,382.6853,-139.50105,868.82263
170,1.408,356.72162,-166.49545,1048.27197,325.39038,-215.76982,937.65515,382.6853,-139.50105,868.82263
171,1.417,356.72162,-166.49545,1048.27197,325.20313,-215.91185,937.55273,382.6853,-139.50105,868.82263
172,1.425,356.26559,-166.86386,1048.2146,325.18179,-216.05006,937.39886,382.6853,-139.50105,868.82263
173,1.433,356.71106,-166.68105,1048.02881,325.18179,-216.05006,937.39886,382.80234,-139.59073,868.14191
174,1.442,356.25497,-167.04939,1047.97144,325.18179,-216.05006,937.39886,382.46628,-139.31985,868.22528
175,1.45,356.47546,-166.81125,1047.84753,325.11792,-216.03081,937.15668,382.20883,-139.58336,867.74194
176,1.458,356.12866,-167.29305,1047.38586,325.11792,-216.03081,937.15668,381.79108,-139.5363,867.26849
177,1.467,356.12866,-167.29305,1047.38586,325.11792,-216.03081,937.15668,381.66443,-139.37575,867.02924
178,1.475,356.12866,-167.29305,1047.38586,325.11792,-216.03081,937.15668,381.35367,-139.56895,866.96277
179,1.483,356.12866,-167.29305,1047.38586,325.11792,-216.03081,937.15668,381.35367,-139.56895,866.96277
180,1.492,356.58481,-166.92485,1047.44324,325.03165,-215.71754,936.50458,381.35367,-139.56895,866.96277
181,1.5,356.58481,-166.92485,1047.44324,325.09824,-215.98706,936.6781,381.29889,-139.71034,866.85272
182,1.508,356.12866,-167.29305,1047.38586,325.09824,-215.98706,936.6781,381.03394,-139.82529,866.70276
183,1.517,356.3736,-167.36449,1047.30139,325.09824,-215.98706,936.6781,381.29889,-139.71034,866.85272
184,1.525,356.12866,-167.29305,1047.38586,325.03165,-215.71754,936.50458,381.03394,-139.82529,866.70276
185,1.533,356.12866,-167.29305,1047.38586,325.09824,-215.98706,936.6781,381.03394,-139.82529,866.70276
186,1.542,356.12866,-167.29305,1047.38586,325.03165,-215.71754,936.50458,381.03394,-139.82529,866.70276
187,1.55,356.12866,-167.29305,1047.38586,325.09824,-215.98706,936.6781,380.83041,-140.00221,866.73419
188,1.558,356.12866,-167.29305,1047.38586,325.03165,-215.71754,936.50458,380.83041,-140.00221,866.73419
189,1.567,356.12866,-167.29305,1047.38586,325.09824,-215.98706,936.6781,380.83041,-140.00221,866.73419
190,1.575,356.12866,-167.29305,1047.38586,325.09824,-215.98706,936.6781,381.29889,-139.71034,866.85272
191,1.583,356.40469,-167.89812,1047.29443,325.11792,-216.03081,937.15668,381.12039,-139.75294,867.02246
192,1.592,356.19321,-168.04118,1047.09741,324.84384,-216.26614,937.08398,381.31851,-140.12541,866.98425
193,1.6,356.19321,-168.04118,1047.09741,325.11792,-216.03081,937.15668,381.47015,-140.15161,867.36176
194,1.608,356.40469,-167.89812,1047.29443,324.84384,-216.26614,937.08398,381.59711,-140.31218,867.60107
