Frame#,Time,R.Forearm.x,R.Forearm.y,R.Forearm.z,R.Ulna.x,R.Ulna.y,R.Ulna.z,R.Radius.x,R.Radius.y,R.Radius.z
1,0,-16.25418,-156.9111,684.95258,19.43636,-164.2021,602.84143,80.86337,-116.64835,656.39789
2,0.008,-16.43117,-157.02477,685.45526,19.5926,-163.97894,602.91003,81.15624,-116.97651,657.03888
3,0.017,-16.34936,-157.00464,685.29144,20.21366,-164.2899,603.25696,81.26865,-116.95782,657.85852
4,0.025,-16.35986,-156.99899,685.53796,20.25003,-164.37392,603.51062,81.39995,-117.2216,658.57513
5,0.033,-16.444,-156.7709,685.58331,20.31288,-164.11977,603.56927,81.53909,-117.05087,658.84973
6,0.042,-16.57363,-156.68759,685.69788,20.31288,-164.11977,603.56927,81.19038,-116.77623,659.00098
7,0.05,-16.57363,-156.68759,685.69788,20.50903,-163.9117,603.61108,81.10486,-116.34469,659.44043
8,0.058,-16.37836,-156.77487,685.79993,20.50903,-163.9117,603.61108,81.25726,-116.39596,659.57458
9,0.067,-16.34481,-156.77957,685.98676,20.50903,-163.9117,603.61108,81.20885,-116.18052,659.63824
10,0.075,-16.34481,-156.77957,685.98676,20.42705,-164.12866,603.79181,81.29614,-116.70014,659.99933
11,0.083,-16.34481,-156.77957,685.98676,20.60917,-164.24521,603.98291,81.29172,-116.50888,660.0968
12,0.092,-16.25294,-156.84927,686.13904,20.82134,-164.36604,604.15216,81.50715,-116.29331,660.15881
13,0.1,-16.25294,-156.84927,686.13904,20.8474,-164.37982,604.34387,81.66375,-116.04278,660.25848
14,0.108,-16.25294,-156.84927,686.13904,20.8474,-164.37982,604.34387,81.22814,-116.69264,660.49426
15,0.117,-16.25294,-156.84927,686.13904,20.99837,-164.42227,604.47064,81.22814,-116.69264,660.49426
16,0.125,-16.25294,-156.84927,686.13904,20.8474,-164.37982,604.34387,81.06425,-116.93883,660.39935
17,0.133,-16.25294,-156.84927,686.13904,20.8474,-164.37982,604.34387,81.06425,-116.93883,660.39935
18,0.142,-16.25294,-156.84927,686.13904,20.66595,-164.34666,604.44434,81.05544,-117.11547,660.29565
19,0.15,-16.34481,-156.77957,685.98676,20.66595,-164.34666,604.44434,80.83058,-117.3856,660.5791
20,0.158,-16.54008,-156.69232,685.8847,20.27164,-164.10934,604.08405,80.87784,-117.49007,660.24512
21,0.167,-16.71428,-157.15752,685.4928,20.0914,-164.28407,603.84393,80.71226,-117.98466,660.22162
22,0.175,-16.64297,-157.13176,685.5755,20.02856,-164.53822,603.78528,80.71226,-117.98466,660.22162
23,0.183,-16.71428,-157.15752,685.4928,20.02856,-164.53822,603.78528,80.49541,-117.83946,660.04388
24,0.192,-16.71428,-157.15752,685.4928,20.02856,-164.53822,603.78528,80.34305,-117.78827,659.90985
25,0.2,-16.64805,-157.39229,685.42688,20.02856,-164.53822,603.78528,80.12878,-118.66881,659.67535
26,0.208,-16.86273,-157.33984,685.4729,19.87437,-164.7269,603.737,79.94321,-118.52905,659.47473
27,0.217,-17.03597,-157.14381,685.41479,19.35125,-164.53253,603.68549,80.27092,-118.97668,659.65918
28,0.225,-17.43616,-157.60297,685.06226,18.9253,-164.39458,603.71198,80.0462,-118.80549,659.43396
29,0.233,-17.59689,-157.50877,684.89667,18.77601,-164.29295,603.53296,79.78832,-118.89793,659.08435
30,0.242,-17.74788,-157.77271,684.82916,18.46428,-164.18898,603.54346,79.78832,-118.89793,659.08435
31,0.25,-17.74788,-157.77271,684.82916,18.54614,-163.97202,603.36267,79.55309,-119.04068,658.78162
32,0.258,-17.80335,-157.70302,684.63647,18.59479,-163.91815,603.11194,79.55309,-119.04068,658.78162
33,0.267,-17.99454,-157.90463,684.58618,18.51292,-164.13518,603.29279,79.07363,-119.09389,658.55212
34,0.275,-17.99454,-157.90463,684.58618,18.59479,-163.91815,603.11194,78.99298,-118.83903,657.7663
35,0.283,-17.99454,-157.90463,684.58618,18.59479,-163.91815,603.11194,79.07285,-118.45097,657.31836
36,0.292,-17.94462,-157.86337,684.38031,18.39333,-163.80939,602.97064,78.72546,-118.19678,657.01147
37,0.3,-17.94462,-157.86337,684.38031,18.27681,-164.00806,602.89569,78.86645,-117.85139,656.04755
38,0.308,-18.12646,-157.76425,684.2193,18.27681,-164.00806,602.89569,78.31023,-117.47818,655.69049
39,0.317,-18.24698,-157.95099,684.09991,18.24141,-164.10397,602.50903,78.48598,-117.33202,655.43353
40,0.325,-18.29395,-157.42162,683.18335,18.24141,-164.10397,602.50903,78.48598,-117.33202,655.43353
41,0.333,-18.40745,-156.55125,683.10266,18.62008,-164.19028,602.1001,78.48598,-117.33202,655.43353
42,0.342,-18.09562,-156.16287,683.2724,18.74867,-164.1432,601.8775,78.71944,-116.88457,655.25323
43,0.35,-18.21616,-156.34962,683.15302,18.86521,-163.94463,601.95233,78.71944,-116.88457,655.25323
44,0.358,-18.21616,-156.34962,683.15302,19.14771,-164.05267,601.99268,79.62234,-116.08237,655.55066
45,0.367,-18.09562,-156.16287,683.2724,19.46038,-164.25125,602.3183,79.82104,-115.88705,656.00134
46,0.375,-18.09562,-156.16287,683.2724,19.35696,-164.26723,602.50104,80.05152,-115.4055,656.42804
47,0.383,-18.09562,-156.16287,683.2724,19.74509,-164.0314,602.39587,80.06412,-115.52347,656.73907
48,0.392,-17.94465,-155.89894,683.33978,19.43636,-164.2021,602.84143,80.5771,-116.51553,658.60858
49,0.4,-17.77052,-155.99675,683.50446,19.45266,-164.04974,602.78693,80.35587,-116.86304,658.30896
50,0.408,-17.5736,-157.06935,684.22491,19.86452,-164.08446,602.95325,80.10726,-118.25782,658.75171
51,0.417,-17.5736,-157.06935,684.22491,19.86898,-163.98111,603.18976,80.24245,-118.09991,659.16577
52,0.425,-17.60241,-157.39781,684.49811,19.83759,-163.97984,603.22437,80.24883,-117.54853,659.85938
53,0.433,-17.60241,-157.39781,684.49811,19.61459,-163.94583,603.36536,80.24883,-117.54853,659.85938
54,0.442,-17.60241,-157.39781,684.49811,19.61459,-163.94583,603.36536,80.24883,-117.54853,659.85938
55,0.45,-17.75341,-157.66174,684.43066,19.37311,-163.87946,603.3941,80.24883,-117.54853,659.85938
56,0.458,-17.75341,-157.66174,684.43066,19.38187,-163.83014,603.17676,80.24883,-117.54853,659.85938
57,0.467,-18.0202,-156.94029,684.07458,19.08658,-163.91376,602.95129,80.10062,-117.78261,659.45917
58,0.475,-18.23883,-156.43922,683.44171,19.06398,-164.05193,603.01831,80.43159,-116.83911,659.13165
59,0.483,-18.40745,-156.55125,683.10266,19.08658,-163.91376,602.95129,79.67817,-117.56145,658.83051
60,0.492,-18.40745,-156.55125,683.10266,18.80068,-163.8248,602.94165,79.10616,-117.88657,658.50098
61,0.5,-18.88174,-156.40576,683.09589,18.77626,-163.95131,603.01141,78.54884,-116.19181,656.86743
62,0.508,-18.88174,-156.40576,683.09589,18.60178,-164.01776,602.68964,78.30695,-115.89002,655.95435
63,0.517,-18.88174,-156.40576,683.09589,18.53943,-163.93851,602.4834,78.03024,-117.36929,655.82623
64,0.525,-18.88174,-156.40576,683.09589,18.38116,-163.86093,601.55963,78.43938,-116.77579,655.38904
65,0.533,-19.09571,-156.01422,682.74738,18.57843,-163.91383,601.2511,78.17995,-116.59124,655.18042
66,0.542,-18.79851,-156.04837,682.62268,18.51589,-163.82642,601.01624,78.08022,-115.87998,655.10114
67,0.55,-18.79851,-156.04837,682.62268,18.33978,-164.04208,600.96118,78.08022,-115.87998,655.10114
68,0.558,-18.98773,-155.7541,682.60309,18.33978,-164.04208,600.96118,78.31754,-115.96009,654.93781
69,0.567,-18.79851,-156.04837,682.62268,18.11181,-164.21487,600.95551,78.163,-116.51144,654.896
70,0.575,-18.79851,-156.04837,682.62268,18.52179,-164.06136,600.80756,78.163,-116.51144,654.896
71,0.583,-18.98773,-155.7541,682.60309,18.11181,-164.21487,600.95551,78.08022,-115.87998,655.10114
72,0.592,-18.98773,-155.7541,682.60309,18.33978,-164.04208,600.96118,78.25063,-115.48363,655.0484
73,0.6,-18.98773,-155.7541,682.60309,18.32701,-163.8022,601.1145,78.08022,-115.87998,655.10114
74,0.608,-18.98773,-155.7541,682.60309,18.32701,-163.8022,601.1145,78.08022,-115.87998,655.10114
75,0.617,-19.09973,-155.84683,682.94159,18.25937,-163.79372,601.466,78.06226,-116.13584,655.2464
76,0.625,-19.18145,-155.86685,683.10541,18.09051,-164.06111,602.3822,78.06226,-116.13584,655.2464
77,0.633,-19.18145,-155.86685,683.10541,18.33095,-163.73018,602.7644,77.57166,-111.58056,655.20349
78,0.642,-19.06092,-155.68005,683.22485,18.33095,-163.73018,602.7644,77.70499,-111.29802,655.32764
79,0.65,-19.06092,-155.68005,683.22485,18.41951,-163.69984,602.89886,77.70602,-110.81051,655.71741
80,0.658,-19.23609,-155.36777,683.59827,18.39333,-163.80939,602.97064,78.33404,-114.36821,656.59106
81,0.667,-19.3875,-155.18526,683.8125,18.39333,-163.80939,602.97064,78.39821,-113.87818,657.13062
82,0.675,-19.43455,-155.33179,683.68658,18.39333,-163.80939,602.97064,78.40169,-114.19701,657.52466
83,0.683,-19.3875,-155.18526,683.8125,18.41951,-163.69984,602.89886,78.40169,-114.19701,657.52466
84,0.692,-19.9418,-154.39839,683.87592,18.41951,-163.69984,602.89886,78.40169,-114.19701,657.52466
85,0.7,-19.71582,-154.55426,684.18781,18.41951,-163.69984,602.89886,78.26339,-113.90034,657.68207
86,0.708,-19.92289,-154.57826,684.505,18.39333,-163.80939,602.97064,78.10102,-114.11168,657.99023
87,0.717,-19.92289,-154.57826,684.505,18.41951,-163.69984,602.89886,78.37102,-115.46714,658.8429
88,0.725,-19.92289,-154.57826,684.505,18.36522,-163.73347,603.10889,78.10102,-114.11168,657.99023
89,0.733,-19.92289,-154.57826,684.505,18.41951,-163.69984,602.89886,78.10102,-114.11168,657.99023
90,0.742,-20.55943,-154.4622,684.13324,18.39333,-163.80939,602.97064,78.10102,-114.11168,657.99023
91,0.75,-20.59187,-154.50529,684.32684,18.41951,-163.69984,602.89886,78.10102,-114.11168,657.99023
92,0.758,-20.55943,-154.4622,684.13324,18.41951,-163.69984,602.89886,78.26339,-113.90034,657.68207
93,0.767,-20.31669,-154.34842,684.10089,18.41951,-163.69984,602.89886,78.26339,-113.90034,657.68207
94,0.775,-20.31669,-154.34842,684.10089,18.20057,-163.59741,602.58087,77.99321,-113.33936,656.54846
95,0.783,-20.46489,-154.40891,683.55762,18.20057,-163.59741,602.58087,78.31281,-113.57841,656.46881
96,0.792,-20.41648,-154.49973,683.12225,18.20057,-163.59741,602.58087,77.84072,-114.11235,655.89673
97,0.8,-20.41648,-154.49973,683.12225,18.20057,-163.59741,602.58087,77.89081,-114.05219,655.60114
98,0.808,-20.32722,-154.41187,682.92926,18.1341,-163.53079,602.38513,77.63564,-114.59403,654.98792
99,0.817,-20.32722,-154.41187,682.92926,17.74932,-163.92358,602.39581,77.82616,-115.62242,655.31293
100,0.825,-19.89047,-154.43825,682.5722,17.80879,-163.88173,602.1731,77.82616,-115.62242,655.31293
101,0.833,-19.89047,-154.43825,682.5722,17.81636,-163.87038,601.49329,77.65353,-116.52718,655.08344
102,0.842,-19.77708,-155.3096,682.65314,17.81636,-163.87038,601.49329,77.65353,-116.52718,655.08344
103,0.85,-19.77708,-155.3096,682.65314,17.81636,-163.87038,601.49329,77.4202,-116.97466,655.26379
104,0.858,-19.91476,-155.22083,682.48029,17.81636,-163.87038,601.49329,77.4202,-116.97466,655.26379
105,0.867,-19.885,-155.56979,682.79742,17.94498,-163.82326,601.27057,77.4202,-116.97466,655.26379
106,0.875,-19.885,-155.56979,682.79742,17.94498,-163.82326,601.27057,77.65353,-116.52718,655.08344
107,0.883,-20.15751,-155.33452,682.51257,17.73257,-163.70296,601.1012,77.4202,-116.97466,655.26379
108,0.892,-20.15751,-155.33452,682.51257,17.94498,-163.82326,601.27057,77.4202,-116.97466,655.26379
109,0.9,-20.15751,-155.33452,682.51257,17.81636,-163.87038,601.49329,77.4202,-116.97466,655.26379
110,0.908,-20.2654,-155.59471,682.65692,17.81636,-163.87038,601.49329,77.4202,-116.97466,655.26379
111,0.917,-20.12774,-155.68346,682.82971,17.81636,-163.87038,601.49329,77.4202,-116.97466,655.26379
112,0.925,-20.2782,-155.53104,682.94226,17.81636,-163.87038,601.49329,77.4202,-116.97466,655.26379
113,0.933,-20.69188,-154.56084,682.83197,17.81636,-163.87038,601.49329,77.24448,-117.12076,655.52075
114,0.942,-20.79553,-154.75934,683.02051,17.77632,-164.09869,602.21533,77.50347,-117.30336,655.72302
115,0.95,-20.55276,-154.6456,682.98822,17.74932,-163.92358,602.39581,77.40658,-115.68743,655.1557
116,0.958,-20.82038,-154.59932,683.28143,18.06353,-163.88599,602.56268,77.26814,-115.39028,655.31262
117,0.967,-20.88478,-154.84717,683.2135,18.08353,-163.77473,602.50458,77.61166,-115.20596,656.06427
118,0.975,-20.82038,-154.59932,683.28143,17.9283,-163.80414,602.67688,77.61166,-115.20596,656.06427
119,0.983,-21.02938,-154.65236,683.69885,18.20057,-163.59741,602.58087,77.54702,-115.23987,656.31873
120,0.992,-21.02938,-154.65236,683.69885,17.79573,-163.6888,602.76239,77.7645,-115.5232,657.23792
121,1,-21.19673,-154.02887,683.72028,17.76783,-163.79417,602.83759,77.33913,-114.8661,657.6037
122,1.008,-21.0297,-154.23366,684.28503,17.84829,-163.7507,602.95526,77.21025,-114.63686,657.98285
123,1.017,-21.32308,-154.38934,684.26434,17.7862,-163.78108,603.16107,76.99586,-114.53654,658.20996
124,1.025,-21.45298,-154.30597,684.37915,17.49742,-164.02322,603.29865,76.66915,-115.07084,658.60699
125,1.033,-21.63524,-154.20667,684.2179,17.46022,-164.07321,603.35944,76.39667,-116.30236,658.81329
126,1.042,-21.80763,-153.99715,684.57861,17.25612,-164.04015,603.47961,76.39667,-116.30236,658.81329
127,1.05,-21.80763,-153.99715,684.57861,16.52427,-163.02007,603.44775,76.17194,-115.85498,658.72333
128,1.058,-22.44165,-153.48715,684.65393,16.31639,-162.63486,603.44153,76.11275,-116.91698,659.29865
129,1.067,-22.44165,-153.48715,684.65393,15.89087,-162.52548,603.56818,75.50574,-116.6409,659.20471
130,1.075,-22.64038,-153.45145,684.74225,15.16168,-162.43626,603.67004,75.01535,-116.50459,659.35858
131,1.083,-23.07902,-153.76755,684.89935,14.95321,-162.40147,603.79956,74.88277,-116.52614,659.8739
132,1.092,-23.21145,-153.94466,685.03149,14.65207,-162.79205,603.89783,74.5904,-116.99662,659.95728
133,1.1,-23.52971,-154.14429,685.34473,14.49611,-163.01546,603.82922,74.11844,-116.79057,659.91003
134,1.108,-23.8818,-154.21838,685.15875,14.31403,-162.99651,603.98267,73.90096,-116.66975,659.80737
135,1.117,-24.21572,-154.20334,685.5824,13.82732,-163.35324,603.9577,73.90096,-116.66975,659.80737
136,1.125,-24.43494,-154.21605,685.67218,13.82732,-163.35324,603.9577,73.6486,-116.78214,659.84357
137,1.133,-25.11419,-154.53456,685.763,13.67782,-163.62126,603.90021,73.49626,-116.73086,659.70972
138,1.142,-25.13515,-154.33504,685.90747,13.67782,-163.62126,603.90021,73.49626,-116.73086,659.70972
139,1.15,-25.47926,-154.50124,685.73907,12.99293,-163.92564,603.48907,73.49626,-116.73086,659.70972
140,1.158,-25.64075,-154.40187,685.55469,12.46257,-163.95352,603.55084,73.67225,-116.815,659.85101
141,1.167,-26.00091,-154.32982,685.68787,12.46257,-163.95352,603.55084,73.17107,-115.23402,658.89667
142,1.175,-25.88211,-154.32512,685.54028,12.46257,-163.95352,603.55084,73.17107,-115.23402,658.89667
143,1.183,-25.88211,-154.32512,685.54028,12.46257,-163.95352,603.55084,73.0224,-115.02065,658.63611
144,1.192,-25.43354,-153.62985,685.26721,12.46257,-163.95352,603.55084,73.17107,-115.23402,658.89667
145,1.2,-25.26422,-153.75883,685.58612,12.46257,-163.95352,603.55084,72.92498,-114.94945,658.12994
146,1.208,-25.11743,-153.54037,685.66766,12.46257,-163.95352,603.55084,73.04376,-114.66084,657.94769
147,1.217,-24.48132,-153.07613,685.21198,12.91475,-163.68784,603.46515,73.25822,-114.76097,657.7207
148,1.225,-23.91386,-152.65099,685.10431,13.16632,-163.57092,603.42572,73.39687,-115.05791,657.56317
149,1.233,-23.33254,-152.29764,685.22797,13.16632,-163.57092,603.42572,73.86507,-114.86951,657.08887
150,1.242,-23.20016,-152.12045,685.09583,13.3063,-163.38014,603.28241,73.86507,-114.86951,657.08887
151,1.25,-23.20016,-152.12045,685.09583,13.4516,-163.12213,603.34692,73.86507,-114.86951,657.08887
152,1.258,-22.80766,-151.93793,685.19653,13.4516,-163.12213,603.34692,74.0826,-114.99285,656.98029
153,1.267,-22.59238,-151.99019,685.15051,13.65997,-163.15691,603.21747,74.58942,-114.19691,656.92688
154,1.275,-14.59872,-157.11891,692.9397,21.57455,-166.3824,610.22113,82.98559,-118.06709,662.68176
155,1.283,-14.61473,-157.31792,692.81158,21.57455,-166.3824,610.22113,82.98559,-118.06709,662.68176
156,1.292,-14.61473,-157.31792,692.81158,21.57455,-166.3824,610.22113,83.13863,-118.94171,662.76611
157,1.3,-14.61473,-157.31792,692.81158,21.57455,-166.3824,610.22113,82.79479,-116.97359,662.57404
158,1.308,-14.77517,-157.22314,692.64624,21.33608,-166.24785,609.86072,82.98559,-118.06709,662.68176
159,1.317,-14.77517,-157.22314,692.64624,21.17774,-165.25661,609.75262,82.98559,-118.06709,662.68176
160,1.325,-14.84008,-157.47078,692.57788,21.17774,-165.25661,609.75262,82.30894,-117.71439,662.59753
161,1.333,-14.97879,-157.59026,691.88409,20.63784,-164.599,609.34131,81.88497,-117.49541,661.98157
162,1.342,-15.1924,-157.47281,691.69495,20.69776,-164.56448,609.14734,81.93937,-117.53076,661.66937
163,1.35,-15.42801,-157.38326,691.62994,20.63565,-164.48468,608.94141,81.57476,-117.34385,661.66699
164,1.358,-15.66471,-157.43198,691.35901,20.13951,-164.94606,608.57697,81.4138,-117.88235,661.43066
165,1.367,-15.92529,-157.16197,691.04669,19.31522,-164.7643,608.29987,81.12727,-118.79745,661.41724
166,1.375,-15.92529,-157.16197,691.04669,18.79115,-165.9413,608.18701,80.73709,-118.48521,660.72485
167,1.383,-16.07178,-156.6776,690.22876,18.54744,-165.86687,608.22015,80.57977,-118.84833,660.2782
168,1.392,-16.19836,-156.36815,689.71362,17.79899,-166.21419,607.80682,80.57977,-118.84833,660.2782
169,1.4,-16.54483,-156.54301,689.70044,18.01316,-166.09557,607.50836,80.57977,-118.84833,660.2782
170,1.408,-17.0855,-155.19,689.56573,17.58233,-166.04848,607.42621,80.63006,-118.78858,659.98315
171,1.417,-17.22281,-155.10049,689.39307,17.3471,-166.00867,606.67224,80.63006,-118.78858,659.98315
172,1.425,-17.22281,-155.10049,689.39307,17.26694,-166.07582,606.70789,80.75407,-119.39346,660.44769
173,1.433,-17.08955,-155.10049,689.24683,17.32437,-165.55273,606.35486,80.49552,-119.21089,660.24585
174,1.442,-17.22281,-155.10049,689.39307,17.32437,-165.55273,606.35486,80.30299,-118.11585,660.13715
175,1.45,-17.25697,-154.81433,689.04669,17.50644,-165.57159,606.20154,80.27781,-118.72294,659.80432
176,1.458,-17.01553,-154.8967,689.07959,17.52568,-165.26698,605.78638,80.27781,-118.72294,659.80432
177,1.467,-17.03255,-155.20026,688.69775,17.58543,-165.23265,605.59241,80.08544,-117.77817,659.09485
178,1.475,-16.90028,-155.25024,688.60431,17.58543,-165.23265,605.59241,80.11671,-119.04549,659.09735
179,1.483,-17.06528,-155.15628,688.44574,18.14122,-164.44939,605.42694,80.5053,-118.77558,659.29285
180,1.492,-16.59707,-154.97874,688.20306,18.14122,-164.44939,605.42694,80.25526,-118.47069,659.01215
181,1.5,-16.77248,-154.88483,688.05603,18.28517,-164.05354,604.49078,80.73496,-117.68359,659.1261
182,1.508,-16.37899,-155.00398,687.9259,18.28517,-164.05354,604.49078,80.98421,-116.29069,658.6842
183,1.517,-16.44809,-154.71957,687.90027,18.28517,-164.05354,604.49078,80.98421,-116.29069,658.6842
184,1.525,-16.2581,-154.81729,688.04535,18.48108,-163.8455,604.53265,80.96506,-116.59272,658.95984
185,1.533,-16.06681,-154.6158,688.09595,18.88626,-164.02556,604.67865,80.98969,-116.41534,659.21307
186,1.542,-16.06681,-154.6158,688.09595,19.31776,-163.91034,604.96924,81.44637,-116.26091,659.47479
187,1.55,-15.85667,-154.65036,687.98987,19.88247,-163.90704,605.14008,81.70682,-116.45194,659.70508
188,1.558,-15.85667,-154.65036,687.98987,20.14193,-164.00171,605.1593,82.21783,-116.41928,659.89355
189,1.567,-15.85667,-154.65036,687.98987,20.61296,-163.95024,605.51251,82.57441,-116.53005,660.34344
190,1.575,-15.85667,-154.65036,687.98987,20.77794,-163.87843,606.07629,82.57441,-116.53005,660.34344
191,1.583,-15.65247,-154.80597,688.32849,20.78012,-163.98518,606.45154,82.72649,-115.61233,660.23749
192,1.592,-15.37713,-154.95047,688.36383,20.82718,-164.06642,606.68115,82.97459,-117.13034,660.91882
193,1.6,-15.37713,-154.95047,688.36383,20.82718,-164.06642,606.68115,82.97459,-117.13034,660.91882
194,1.608,-15.44183,-155.19844,688.29578,20.8398,-163.85988,606.80328,82.64079,-116.87083,660.97375
195,1.617,-15.44183,-155.19844,688.29578,20.78311,-163.51761,606.92419,82.64079,-116.87083,660.97375
196,1.625,-15.44183,-155.19844,688.29578,20.82718,-164.06642,606.68115,82.64079,-116.87083,660.97375
197,1.633,-15.64322,-155.10204,688.1684,20.82718,-164.06642,606.68115,82.35927,-116.6292,661.17377
198,1.642,-15.84188,-155.06619,688.25677,20.82718,-164.06642,606.68115,82.02166,-116.45128,661.15271
199,1.65,-15.84188,-155.06619,688.25677,20.82718,-164.06642,606.68115,82.02166,-116.45128,661.15271
200,1.658,-16.24386,-154.87511,688.23889,20.68134,-164.32379,606.61652,81.6685,-116.62582,660.69696
