Frame#,Time,R.Forearm.x,R.Forearm.y,R.Forearm.z,R.Ulna.x,R.Ulna.y,R.Ulna.z,R.Radius.x,R.Radius.y,R.Radius.z
1,0,1579.14905,177.13513,900.06073,1622.04065,210.06145,822.86639,1571.46521,174.62267,757.00824
2,0.008,1576.26807,177.16167,900.7265,1621.50354,209.96011,823.46185,1570.70508,173.9938,756.45239
3,0.017,1574.10962,176.29646,900.63428,1620.86963,209.9333,824.25452,1571.68213,173.15596,756.6897
4,0.025,1572.68005,176.66428,900.67462,1619.28931,209.15102,824.70618,1574.14246,172.9761,759.07831
5,0.033,1569.69812,175.95532,900.82593,1618.0105,208.73105,824.95215,1572.68896,172.88228,758.95026
6,0.042,1568.35461,175.15268,900.56409,1616.99182,207.67099,826.21637,1573.02661,172.40044,759.22626
7,0.05,1566.09338,174.97067,901.16125,1616.02307,206.73668,827.79041,1573.14978,172.43498,759.91144
8,0.058,1563.58704,174.70773,901.22192,1613.87646,206.83626,829.10156,1570.92285,172.87907,759.97784
9,0.067,1560.07324,174.67554,902.45532,1613.88867,206.42001,830.02283,1568.42615,174.28697,759.83954
10,0.075,1558.53223,174.87209,903.30457,1611.91528,205.25949,830.58319,1568.26135,172.55916,760.10242
11,0.083,1556.30334,173.49974,902.87708,1611.35449,203.24622,831.17535,1568.26123,169.79401,761.12329
12,0.092,1553.46155,173.41302,903.16571,1609.09399,203.43095,831.28778,1568.53528,167.88441,760.60797
13,0.1,1550.40234,172.51222,903.31097,1606.21045,203.23088,831.85144,1565.82861,168.89264,761.77716
14,0.108,1547.44019,172.87506,903.7309,1603.11865,203.40295,832.44098,1564.01758,167.78749,760.86945
15,0.117,1544.53284,172.62057,903.70197,1600.81848,203.79883,832.79846,1563.2312,167.616,760.9317
16,0.125,1540.42505,172.80255,903.35645,1599.35742,203.02695,833.36505,1560.68359,168.2209,761.0188
17,0.133,1537.36829,173.22018,902.76306,1596.43359,201.65469,833.88104,1558.01477,168.54344,761.87671
18,0.142,1533.75781,172.92192,902.16162,1595.00061,202.01283,833.77649,1556.35596,166.22459,761.53333
19,0.15,1531.09399,172.26222,902.164,1592.6908,201.74054,834.05078,1551.11316,169.28508,760.71301
20,0.158,1526.23767,171.75897,902.01013,1588.49768,201.69522,834.07141,1548.83215,169.40833,760.46686
21,0.167,1522.41028,172.75658,900.99432,1584.62048,200.53662,834.48352,1544.28076,169.98732,759.87744
22,0.175,1518.28198,173.70808,900.65009,1581.19348,201.26604,833.87085,1542.32275,166.22275,760.63782
23,0.183,1512.64575,173.80443,900.50275,1576.35046,201.39215,833.2995,1539.25171,166.25119,758.94049
24,0.192,1507.23389,173.10194,900.53638,1570.93909,201.2012,833.60022,1533.96509,167.4166,758.90552
25,0.2,1502.38782,173.39256,899.21002,1565.86328,200.94073,832.78046,1528.32556,167.5936,758.34912
26,0.208,1496.52783,174.36047,898.5918,1561.21936,201.57104,833.18896,1524.92432,167.57526,759.07855
27,0.217,1490.7406,175.48801,898.9873,1555.77686,200.57635,833.31226,1519.92114,167.97571,758.39526
28,0.225,1484.8772,174.29173,897.32751,1550.09277,202.21036,832.36127,1513.03467,168.46387,757.7912
29,0.233,1478.80908,174.71614,897.95923,1543.49158,203.18704,832.03687,1506.41235,170.364,756.93561
30,0.242,1471.90698,177.05859,897.82953,1536.66956,203.56358,831.79315,1500.78027,170.27856,756.74792
31,0.25,1465.54919,176.62752,896.8031,1530.56787,204.59846,831.59515,1494.36511,168.9678,756.30017
32,0.258,1457.88672,177.98917,896.98523,1521.83191,205.0602,831.5343,1486.80688,171.30644,756.41199
33,0.267,1450.85193,177.86829,895.50165,1515.47473,206.05151,830.38776,1479.31213,170.46977,755.72913
34,0.275,1442.59094,178.4521,895.88934,1508.40479,206.6819,829.91602,1471.71814,172.08577,755.40045
35,0.283,1435.02295,180.61542,895.74158,1499.54773,206.98322,828.88348,1464.16626,171.0742,754.93207
36,0.292,1427.27539,181.12637,896.08856,1490.96729,209.62689,829.01758,1455.06226,172.95337,754.68945
37,0.3,1417.73608,182.68799,895.29413,1482.04846,210.37001,828.80212,1445.62195,173.4994,755.33362
38,0.308,1409.62512,182.84219,895.19867,1472.67334,211.74355,828.99567,1436.36877,174.5925,755.67804
39,0.317,1398.72827,185.10416,896.89539,1461.28516,212.58575,828.34576,1425.51025,176.53677,756.19495
40,0.325,1389.16064,186.12444,898.10175,1451.06665,214.47318,829.50342,1416.0177,175.65219,756.37756
41,0.333,1379.1333,187.33191,898.02966,1440.29443,216.88338,829.61432,1405.23425,176.70618,757.3927
42,0.342,1369.06116,188.02859,898.74017,1428.82629,218.62216,829.07562,1394.00488,177.78741,757.77924
43,0.35,1358.28491,188.92151,898.99872,1416.99548,218.90425,829.77557,1381.66968,179.13554,757.96228
44,0.358,1347.85901,191.12263,900.89508,1405.3877,220.13441,828.7326,1368.93872,182.62907,758.25952
45,0.367,1336.06287,192.25868,900.487,1394.35864,223.86765,829.75665,1356.94312,182.44991,758.69568
46,0.375,1326.99451,194.21442,901.00586,1381.80115,224.56889,828.97388,1343.45776,185.86163,759.67554
47,0.383,1316.34351,195.23965,901.17316,1369.7052,225.89116,828.75879,1330.69421,186.11487,759.33899
48,0.392,1305.13647,197.32852,901.29462,1358.44348,228.39462,827.81,1317.5885,187.52769,759.49194
49,0.4,1294.63782,199.00201,900.9845,1346.05273,230.13394,826.70105,1304.99426,187.46503,759.16302
50,0.408,1282.96423,200.48482,901.50916,1333.58508,231.25327,826.17407,1290.07385,193.00735,759.59369
51,0.417,1271.52222,202.97217,900.71643,1320.26355,233.23782,824.79742,1276.38477,194.06206,758.69342
52,0.425,1260.84082,204.16298,900.61151,1307.68616,236.03259,823.91144,1262.65771,195.24568,757.6947
53,0.433,1249.39185,206.42369,899.84589,1295.58813,236.81084,822.96906,1248.49402,195.39764,757.77698
54,0.442,1237.66296,207.5051,899.52936,1281.83765,237.60454,821.05975,1232.9292,199.30223,757.26489
55,0.45,1225.49292,208.70201,899.3017,1269.66821,238.99077,819.43695,1219.50952,199.81656,757.18048
56,0.458,1213.25073,211.36058,899.49939,1254.88416,240.77625,818.7196,1204.20129,200.9469,756.5564
57,0.467,1201.34497,211.90703,899.69556,1241.42517,242.61436,817.86377,1191.16443,200.99226,756.79016
58,0.475,1189.4364,212.069,899.02673,1227.51697,243.04037,817.00159,1175.54492,202.31737,757.66852
59,0.483,1177.80579,213.15428,898.88806,1212.46887,244.31551,816.89374,1160.96936,203.13748,757.67493
60,0.492,1165.36084,213.81557,899.2843,1200.03772,245.47649,816.65417,1146.12854,204.86365,758.37805
61,0.5,1153.89514,214.69217,899.91144,1185.3634,247.09964,817.27814,1130.57178,207.01927,759.70087
62,0.508,1141.27759,215.68478,900.64111,1172.54041,247.62788,816.11664,1116.88354,206.9528,760.50793
63,0.517,1128.94043,217.56641,901.4093,1159.53455,249.19946,817.10016,1100.95496,207.7394,761.56647
64,0.525,1117.71924,217.10423,902.00391,1144.89795,249.50656,816.97223,1086.78955,209.09995,763.13947
65,0.533,1106.30774,217.46321,902.84741,1131.65271,250.21098,817.85828,1073.47473,208.87485,764.41925
66,0.542,1093.97058,218.33484,904.07184,1118.4054,251.12914,818.20538,1057.43506,212.5555,766.8634
67,0.55,1082.67639,219.0258,905.07239,1105.52966,251.65456,818.74762,1044.13269,210.86275,768.87122
68,0.558,1072.15662,221.00175,905.9718,1092.58813,252.13049,819.59845,1028.39636,213.00264,769.59314
69,0.567,1060.34888,221.29352,906.90149,1079.56628,252.76469,819.87793,1014.90344,213.75761,772.78143
70,0.575,1049.56018,221.23523,907.96954,1067.80469,252.96443,819.72205,1000.52948,215.3567,774.94098
71,0.583,1039.38586,221.21188,909.22211,1054.87646,253.98668,821.13757,987.48816,216.75159,777.16547
72,0.592,1029.19641,222.81662,909.98602,1043.54639,253.84645,821.70636,974.75067,217.11157,779.46289
73,0.6,1018.07965,225.62492,910.73956,1030.37061,253.95071,822.2724,960.21185,219.00648,781.76068
74,0.608,1006.69537,227.16957,911.8772,1019.1037,253.66495,822.64874,947.07794,219.26027,784.42804
75,0.617,996.80713,226.79694,913.25055,1008.20758,252.73253,823.52301,935.14886,219.59552,785.44733
76,0.625,988.30371,229.30092,913.65424,996.86554,254.62335,824.17517,922.33398,219.77715,789.28125
77,0.633,978.10205,229.13881,915.16949,986.64758,254.59193,824.86871,909.28223,222.63702,789.79291
78,0.642,967.67041,230.87883,915.83185,974.56274,254.94989,824.48157,897.27582,222.76894,792.74011
79,0.65,958.07623,229.77249,916.5368,963.60834,254.52573,825.13416,885.89648,222.99304,794.64282
80,0.658,950.22052,229.58429,916.82233,953.73749,254.92264,825.89728,874.97437,224.21011,796.45959
81,0.667,940.66949,229.89516,917.0506,942.95032,255.03442,826.24237,863.86877,224.09416,798.95386
82,0.675,931.1474,230.70256,917.45001,932.58105,254.25412,825.70532,853.0213,224.36424,800.41833
83,0.683,922.00262,232.07544,918.37659,922.18561,253.78401,826.6391,842.28656,226.07306,802.07477
84,0.692,913.4306,231.3692,918.54694,912.30737,253.51118,826.71802,832.0271,225.52637,802.849
85,0.7,904.70367,231.43756,918.26959,902.11786,253.37225,826.55444,821.19055,225.52023,804.49774
86,0.708,896.10541,231.89832,917.86664,893.3833,253.8429,826.57013,811.1944,225.98196,804.84357
87,0.717,888.83905,231.90071,917.8446,884.14575,253.53488,826.35492,801.02509,224.97685,806.13385
88,0.725,880.4079,232.77469,917.50024,874.53552,253.18295,825.56195,792.9325,225.40611,806.76764
89,0.733,872.69629,232.52881,916.84991,865.67041,254.33653,825.6156,783.90778,225.28951,807.71637
90,0.742,864.84583,233.59126,915.77502,857.13263,253.71506,825.03674,775.00903,223.61279,808.31891
91,0.75,856.78955,233.61198,915.43842,848.61829,254.07123,824.13281,766.00067,224.30753,807.60242
92,0.758,849.57965,232.91104,914.03796,840.10437,254.37561,824.18256,757.99054,224.25201,807.39111
93,0.767,842.57129,233.1879,913.05048,833.15491,253.55894,822.08264,749.52948,224.04707,807.28198
94,0.775,835.12579,232.59619,911.67017,824.27441,253.46303,821.76318,741.95844,222.93333,806.96765
95,0.783,827.95459,233.06902,911.1106,816.74231,253.34996,819.76453,734.97577,222.0423,806.34106
96,0.792,821.58044,232.76746,909.80078,811.00586,253.34064,819.12183,727.15076,222.63907,805.12671
97,0.8,815.1087,232.71254,908.31696,802.97614,251.91393,817.26563,720.37048,222.79718,804.68219
98,0.808,807.87579,232.76436,907.47479,796.7323,251.84395,816.32782,713.98193,221.37286,804.17554
99,0.817,801.98273,232.56378,904.86066,790.2569,251.50381,814.888,706.97375,222.26566,802.11108
100,0.825,795.15033,231.96519,903.95599,783.68713,251.02879,813.1524,700.85767,221.68272,800.39496
101,0.833,787.78448,232.77031,902.56537,778.94208,249.67413,811.72327,694.71161,221.07138,798.67322
102,0.842,781.40411,230.65335,901.34595,772.75537,249.69942,809.74329,689.55096,221.89627,796.41309
103,0.85,776.92395,231.14696,900.17236,767.76306,249.45779,808.55298,684.15704,220.67258,794.6427
104,0.858,771.14886,230.5434,899.06177,761.81964,247.99675,807.4223,678.97797,220.21748,793.13104
105,0.867,765.47314,229.85664,897.88422,758.47363,247.19388,806.31696,674.15851,220.32228,791.15771
106,0.875,759.21362,229.66852,897.25586,753.65692,245.97955,805.90027,669.88287,220.13031,787.88818
107,0.883,753.69135,228.87109,896.39099,749.41614,244.53593,804.87091,666.39655,218.65692,786.35034
108,0.892,747.83209,227.73141,896.05841,745.03534,243.12657,803.62695,662.41931,219.23027,784.79645
109,0.9,742.86273,227.00977,896.3559,742.54639,243.28392,803.10254,658.71265,217.45055,783.60687
110,0.908,738.26215,225.56555,896.47687,739.31976,242.82808,803.96997,656.31982,216.2802,782.18011
111,0.917,732.84393,224.88365,896.65344,735.37531,241.5417,804.00031,653.16901,216.16347,780.37134
112,0.925,728.21515,223.51997,896.91583,732.52881,241.01633,805.01697,651.01105,215.19005,778.21161
113,0.933,722.58612,223.18085,898.4588,730.58258,240.23064,805.56061,649.14496,214.19569,777.58447
114,0.942,717.38281,220.86389,898.68738,727.8233,239.47324,806.23669,646.78925,212.60757,776.02173
115,0.95,713.72089,220.73106,899.08075,724.3761,239.49747,807.26691,644.97205,210.61456,774.94196
116,0.958,708.8186,219.86012,899.32129,721.44763,237.91443,807.71814,643.44531,210.16653,774.72839
117,0.967,705.34082,218.67624,899.49988,718.67902,238.07204,808.29718,642.39484,209.77808,773.39172
118,0.975,700.95941,218.33501,899.42712,716.92902,238.34492,809.00647,640.63647,207.43602,771.78705
119,0.983,696.6825,219.62521,899.6817,713.79749,238.56743,809.58185,637.24133,208.30405,770.13245
120,0.992,692.78522,219.03362,899.36945,711.34442,237.6134,809.09229,636.52057,208.82948,768.86981
121,1,688.92261,219.61624,898.67719,708.367,237.6337,808.78943,634.88708,208.9724,768.24805
122,1.008,685.72308,218.62019,898.16919,705.64069,237.88307,808.80054,633.4469,206.6844,766.53033
123,1.017,680.99316,217.91052,897.23212,703.59052,238.19693,808.48926,631.31842,207.63982,764.58661
124,1.025,677.71417,217.7959,896.49915,700.92999,236.76089,808.09125,630.89258,205.97652,762.86224
125,1.033,674.60242,218.03673,896.3858,699.58783,236.93535,807.83704,628.67029,207.0257,761.6601
126,1.042,670.00702,217.23592,895.79883,697.10651,237.25488,808.13129,628.01013,206.04764,760.22314
127,1.05,666.49567,217.43227,895.70093,694.77814,237.57492,808.65051,626.15704,204.42789,758.78674
128,1.058,662.94202,215.12675,895.3941,692.52679,236.90202,808.89496,625.29742,204.48993,758.42542
129,1.067,659.22339,215.06529,895.47473,690.28259,236.54311,809.74786,624.54395,203.17088,756.85217
130,1.075,655.1391,213.74753,895.87213,687.42938,236.94995,809.84033,624.112,202.68382,755.83386
131,1.083,652.00519,212.93622,895.42249,685.43481,237.02312,810.53149,623.4939,202.63516,755.35345
132,1.092,648.30078,212.1263,895.43652,682.94342,235.83705,810.88654,622.91425,201.66766,754.75403
133,1.1,645.26355,211.44656,895.88165,681.24811,235.92046,811.4118,621.21606,200.52698,754.51428
134,1.108,642.95227,211.13029,897.00586,679.1817,236.33052,812.66724,620.41101,199.00137,754.81647
135,1.117,639.21869,210.35016,897.61182,676.72351,236.12854,813.68842,620.15009,199.09988,754.43488
136,1.125,636.35938,210.85089,897.94147,674.98578,235.99133,814.56915,619.29736,198.7244,754.86414
137,1.133,632.953,211.1295,897.35101,673.52264,236.00496,814.92804,617.86133,199.75334,755.6319
138,1.142,629.97943,209.65265,897.66119,671.01123,235.84956,815.91803,615.72253,200.77388,755.41162
139,1.15,626.41852,209.96533,897.63214,669.05341,236.0255,816.1803,615.53943,200.47813,754.7063
140,1.158,624.17212,210.95787,897.44336,667.70062,235.90044,817.02545,615.0387,199.06107,754.82452
141,1.167,621.22266,210.3864,897.17108,664.83307,236.3244,817.83118,613.80115,199.01158,754.68073
142,1.175,617.51495,210.43484,897.49841,662.83923,237.13846,818.73083,611.57465,197.95898,754.87683
143,1.183,614.28088,211.51631,897.6424,660.10101,236.73369,818.6991,611.67004,196.67896,755.04773
144,1.192,611.4101,211.39685,897.75873,656.42255,238.27156,819.69244,609.26428,196.96375,755.34741
145,1.2,607.7583,211.03679,897.31586,653.88977,238.54634,819.71191,608.5354,196.48132,755.26697
146,1.208,603.86267,212.32364,897.29431,651.2691,239.05931,820.08954,606.41632,196.90114,755.16907
147,1.217,600.38495,213.35002,897.38074,648.15961,239.45053,820.4104,604.02185,195.66911,754.66553
148,1.225,596.10461,212.66016,896.77704,645.29761,239.75232,820.39758,602.84485,195.69783,754.55438
149,1.233,593.12299,213.49657,896.23962,641.34503,240.06252,819.88184,599.49274,197.3456,754.90839
150,1.242,588.78595,214.39793,895.98419,638.39795,241.21669,819.51044,597.6571,198.64865,753.21527
151,1.25,583.78784,214.57413,895.54437,634.82245,241.47037,819.90039,594.02765,199.08762,752.35797
152,1.258,580.12805,215.38971,894.82983,631.39478,241.8336,819.92023,590.9491,198.84177,751.85455
153,1.267,574.62634,214.61859,893.78015,627.60229,243.86763,819.67596,588.42072,199.7392,751.78809
154,1.275,570.84473,216.13979,892.92987,623.15491,244.26688,818.99823,585.80707,200.8658,751.34082
155,1.283,566.80396,216.36908,892.27899,619.42426,244.48407,818.16107,581.88702,201.19026,750.46191
156,1.292,561.18188,217.5361,891.52148,614.67358,246.00325,818.43744,577.45801,201.57666,749.51794
157,1.3,556.14276,217.93098,890.83264,611.02692,246.87099,817.83789,574.80121,202.61542,748.37347
158,1.308,550.58783,220.27344,890.07959,604.99786,247.33521,816.91394,569.85901,205.15662,747.93005
159,1.317,545.43579,220.49736,888.21576,600.42365,249.39748,817.33929,565.00446,205.9422,747.2337
160,1.325,539.45923,221.57072,888.07233,595.38049,250.25407,816.95819,559.88452,206.86406,746.63904
161,1.333,533.56903,223.42596,887.69739,589.21851,250.83565,816.53668,554.92773,208.01762,746.11151
162,1.342,527.0979,224.57503,888.04205,583.43054,252.8347,816.22443,548.80548,209.20177,745.90546
163,1.35,521.58691,225.61133,887.03088,577.78375,255.14549,815.76752,543.08337,212.14412,745.71191
164,1.358,514.45337,226.97714,887.00165,571.13422,256.4967,816.18768,536.66626,212.88263,745.3642
165,1.367,507.73276,228.46413,886.88397,564.31372,257.74844,815.29163,530.58813,213.95674,745.78467
166,1.375,500.63403,230.67331,887.63647,557.07855,259.48532,815.4668,523.1778,216.28358,745.18884
167,1.383,492.55899,231.9942,887.42731,549.68561,262.10138,815.76447,515.68872,218.07352,745.50116
168,1.392,484.98358,234.0555,887.31165,541.71228,263.3605,815.64703,508.69238,218.58572,745.79663
169,1.4,477.52094,236.06876,888.03705,533.55151,264.6301,816.77795,500.04254,220.53035,746.55969
170,1.408,468.36667,237.2133,888.22144,525.18103,267.65964,817.55945,491.33157,223.52615,747.76093
171,1.417,460.20923,238.9653,889.53815,516.1026,269.12805,818.43048,482.40634,224.85725,747.99054
172,1.425,451.28458,240.75494,891.01892,505.83026,271.19763,819.37305,473.20789,226.44876,749.32843
173,1.433,441.44128,242.74092,892.47198,496.13867,274.24518,820.3739,463.36401,228.87607,751.82001
174,1.442,432.52655,244.53754,894.23065,485.89386,275.97607,821.73419,452.33691,230.16905,752.10736
175,1.45,423.4744,246.6107,896.12909,475.49124,278.46902,822.65271,442.09109,231.29877,753.96478
176,1.458,413.16449,248.40097,897.80444,464.68918,280.27109,823.87396,430.54376,234.18097,755.77332
177,1.467,404.16046,249.65895,899.11346,453.6608,283.48611,824.91016,419.86569,235.23262,756.52106
178,1.475,393.84045,253.76779,900.37653,443.66599,285.49301,826.18671,408.10693,238.03613,757.39752
179,1.483,384.47638,255.03738,901.21326,432.18628,287.75766,825.96387,395.1239,240.2823,758.4881
180,1.492,374.6499,258.0329,902.96021,421.38766,288.99826,826.18512,383.63199,241.97894,759.93329
181,1.5,364.06281,259.78482,902.94501,409.60968,292.62509,825.9873,372.13901,244.08218,759.96075
182,1.508,354.11163,263.13992,903.83179,398.29187,294.7326,825.76843,358.66098,245.91335,761.42255
183,1.517,343.65784,267.02005,904.55725,387.27029,296.29321,824.96582,345.56619,250.14172,761.11407
184,1.525,333.40564,269.47699,904.65479,374.83145,299.54749,824.55353,333.3804,251.42192,761.52759
185,1.533,322.35635,271.40118,904.14197,363.11792,301.26559,824.31342,320.30426,253.41162,762.23456
186,1.542,312.47864,274.29602,904,351.30408,304.61737,823.08289,306.80698,255.94316,762.63165
187,1.55,301.91211,276.245,903.94916,338.39551,306.27777,822.67389,293.18338,257.37396,762.07318
188,1.558,290.84314,278.3649,904.65002,326.7056,308.55005,821.83777,279.51044,259.63043,762.98193
189,1.567,279.72351,280.75995,904.29504,314.26471,310.75943,821.44196,266.70343,260.75784,762.1319
190,1.575,269.14935,281.58978,904.6344,301.4231,312.7558,820.70599,252.26022,264.26385,763.16913
191,1.583,258.08905,283.25739,904.87946,288.89636,315.09103,820.98596,238.43985,264.89053,765.32715
192,1.592,247.01065,283.92245,905.39856,275.19516,315.82333,820.51038,225.10114,266.12949,765.25256
193,1.6,236.17368,286.55811,905.66119,263.00223,317.242,820.93353,211.79642,267.21371,766.06836
194,1.608,225.12402,287.19479,906.6524,250.72049,318.64096,821.16644,197.7672,269.04462,767.4201
195,1.617,214.05457,288.36481,906.76642,238.44403,320.70755,821.51404,184.94588,271.21094,769.27478
196,1.625,202.71005,289.56229,907.76563,224.70767,321.7052,821.53357,171.39101,271.12704,770.03497
197,1.633,191.44766,291.74283,909.0849,212.70886,322.55264,822.49335,157.36908,273.08362,772.03955
198,1.642,180.38777,293.38214,909.71564,200.52869,324.85745,822.74506,143.16132,275.32635,773.95746
199,1.65,169.91379,294.86005,910.6936,188.37613,325.79996,823.33588,129.20674,277.11874,775.38562
200,1.658,160.28693,295.86685,911.78003,176.18803,326.55759,824.16968,115.82013,279.84634,777.20483
