Frame#,Time,R.Forearm.x,R.Forearm.y,R.Forearm.z,R.Ulna.x,R.Ulna.y,R.Ulna.z,R.Radius.x,R.Radius.y,R.Radius.z
1,0,2189.78784,137.75195,979.65833,2234.25,163.58188,897.6283,2152.94116,130.39439,877.789
2,0.008,2182.55078,136.8092,978.72717,2225.7002,162.90477,895.45581,2145.89233,131.12325,876.04285
3,0.017,2173.07666,137.58183,978.29224,2219.28101,165.09822,895.57129,2137.9751,129.8022,877.24548
4,0.025,2164.39722,139.23871,976.19934,2207.13354,162.12556,894.2359,2127.62183,129.24121,875.12756
5,0.033,2156.18799,137.84352,975.87799,2200.14307,164.37004,893.89258,2118.07666,130.29596,875.20898
6,0.042,2149.60449,138.27719,975.59711,2189.23145,162.96002,892.90961,2110.2334,129.77281,874.33789
7,0.05,2140.48267,138.80952,974.64008,2180.76099,164.58499,892.68127,2100.09937,131.74742,874.13013
8,0.058,2131.58887,139.09109,972.82233,2171.77173,163.89201,890.01031,2090.90771,130.10431,873.18195
9,0.067,2124.46899,139.81735,971.66779,2163.6582,165.64539,887.93481,2083.88818,130.94565,871.88959
10,0.075,2114.3313,139.43236,970.57458,2155.7124,165.5352,887.89362,2074.74805,129.72507,870.18921
11,0.083,2107.38086,140.89822,969.73529,2146.62988,165.88986,887.66595,2066.56494,131.80843,870.01422
12,0.092,2098.0813,140.93085,968.24304,2137.82349,165.84976,885.72083,2056.50171,130.9232,867.53241
13,0.1,2089.1748,142.05359,967.58246,2129.15454,166.07535,884.71906,2047.09204,131.65834,866.94202
14,0.108,2081.13623,143.91934,966.66406,2118.56543,165.53094,882.47974,2036.35217,131.70544,866.58838
15,0.117,2070.94653,140.94553,965.19702,2110.33081,167.37094,881.62512,2028.54419,131.20576,864.71875
16,0.125,2062.58911,142.92973,965.02954,2099.22876,165.19293,879.77563,2020.45325,130.93365,864.4035
17,0.133,2051.83423,142.63589,962.60138,2091.52979,166.87459,878.19012,2010.09998,131.1498,863.29327
18,0.142,2042.68542,143.52791,962.38898,2082.56494,167.25377,876.57703,2000.35596,131.29074,861.53705
19,0.15,2035.17395,144.76028,961.24878,2073.85449,167.71411,875.83173,1991.08386,130.77632,861.28461
20,0.158,2026.7749,145.84126,958.87201,2062.56836,168.03856,874.77887,1982.52466,132.8689,860.71875
21,0.167,2017.55713,146.76933,957.40997,2052.13013,167.55942,872.008,1971.35681,131.58894,860.38531
22,0.175,2007.82593,146.49423,956.68689,2043.82556,168.27841,871.10474,1960.51392,131.39323,858.17255
23,0.183,1996.64368,146.7663,954.14551,2031.83875,169.50444,869.89142,1951.59949,132.22548,857.39099
24,0.192,1988.37708,148.88899,954.03705,2023.58508,168.67601,868.13116,1941.13574,132.09903,856.57892
25,0.2,1978.78394,148.44576,953.00049,2012.03613,169.68033,866.28748,1931.08789,131.95879,856.32117
26,0.208,1968.85522,149.56599,952.08917,2003.29138,170.549,865.79419,1920.57629,131.35493,854.61981
27,0.217,1957.93396,149.02243,950.87091,1993.60083,171.50058,866.13831,1911.85254,133.0321,854.67914
28,0.225,1949.9408,149.83257,951.69849,1982.40906,169.70535,865.20612,1902.94324,131.73898,854.96521
29,0.233,1939.03564,149.35236,951.2395,1974.55542,171.48393,864.73779,1892.42212,131.89171,854.8042
30,0.242,1928.54773,149.85379,952.55768,1964.74133,171.54605,864.91345,1883.76086,133.50706,854.16827
31,0.25,1919.68945,150.25288,952.59393,1954.47571,171.89816,865.40918,1873.46887,133.15964,853.63055
32,0.258,1909.25256,151.41566,951.63373,1944.39734,172.59471,867.06067,1862.40967,133.80547,855.8598
33,0.267,1898.78528,151.40782,953.46674,1933.83887,172.73949,866.88098,1852.6842,133.62808,857.22729
34,0.275,1889.89465,152.38481,954.48138,1924.79138,173.90567,868.11859,1844.66846,134.53055,857.13782
35,0.283,1879.90698,153.16769,955.00189,1913.41528,175.20203,867.63495,1834.69543,133.32065,857.06262
36,0.292,1870.67981,153.64377,955.55475,1902.62683,175.60994,868.04333,1824.31921,133.43468,858.77545
37,0.3,1861.73145,153.88663,955.71753,1893.99719,176.56665,869.07819,1815.37378,133.38477,858.81482
38,0.308,1852.50085,154.74211,956.60626,1884.63965,177.60942,870.35425,1806.58386,133.75735,860.39703
39,0.317,1842.98755,156.04659,957.6391,1874.34314,176.66283,870.50836,1796.11487,134.35672,861.37805
40,0.325,1832.48376,156.49579,957.03113,1864.72192,178.827,870.19958,1786.25122,134.48224,861.28906
41,0.333,1824.45789,157.61578,956.65613,1854.51733,177.95978,870.54327,1776.07544,134.15454,863.16083
42,0.342,1814.23767,157.88982,959.06354,1844.95959,180.97536,870.90454,1767.25037,133.91154,863.74994
43,0.35,1805.30994,159.28246,960.67902,1835.23584,181.46252,872.13898,1757.91248,134.0899,863.02203
44,0.358,1795.79724,159.4679,960.10382,1825.93152,181.56769,873.26831,1749.17395,134.5475,863.08002
45,0.367,1786.02966,159.43677,960.64838,1816.47778,181.71652,874.49646,1738.2312,134.83994,865.4801
46,0.375,1776.67712,158.84596,960.87952,1807.87109,182.63831,875.25293,1729.6853,135.58145,866.35608
47,0.383,1768.45435,159.47659,962.39368,1798.11194,183.66881,876.18713,1720.88806,135.93498,867.54718
48,0.392,1759.67297,158.41182,964.32709,1788.30298,183.0015,876.69769,1712.29346,136.13477,867.74097
49,0.4,1751.1842,157.80217,964.96332,1780.38306,183.25018,878.4165,1703.73267,136.1403,870.0625
50,0.408,1742.30054,158.14688,965.84045,1772.26563,183.84671,879.68628,1694.2019,138.36003,871.21863
51,0.417,1733.86438,157.95985,967.02374,1763.48547,183.36227,880.06177,1686.53455,138.70518,871.67889
52,0.425,1725.78247,158.71048,967.21228,1754.64905,183.23433,880.72382,1677.30432,136.78943,872.22131
53,0.433,1717.9082,159.36603,969.12793,1747.09314,183.43539,881.86438,1670.90466,137.24762,873.21405
54,0.442,1708.86694,160.06238,970.0387,1739.453,185.54596,882.96112,1663.26343,137.71161,874.49188
55,0.45,1700.61243,161.15408,970.44489,1730.3822,185.17543,883.58643,1653.6416,137.07796,874.40881
56,0.458,1691.90259,160.94099,970.5611,1722.37195,185.63177,884.79559,1646.19263,137.91696,875.48187
57,0.467,1685.2948,160.33174,970.17322,1714.28674,184.12456,884.16003,1637.45667,138.16739,874.85376
58,0.475,1677.94849,161.80664,970.24451,1706.21912,185.40999,883.96606,1628.83545,138.66431,876.06909
59,0.483,1669.06055,162.02988,971.29547,1698.49866,185.83005,884.38177,1620.31421,139.00769,875.49878
60,0.492,1660.63586,162.06172,971.06708,1690.79102,186.33041,884.08374,1611.86401,139.03825,875.54285
61,0.5,1652.43286,162.95377,970.53674,1681.34399,185.53149,884.31891,1605.6853,140.1786,874.95172
62,0.508,1644.9176,163.12924,970.02734,1674.24976,185.95113,883.54858,1597.85388,139.54675,874.65002
63,0.517,1636.69971,163.24066,969.99701,1665.9447,186.43105,882.82709,1591.10815,139.78758,874.99725
64,0.525,1629.60608,161.56261,969.07257,1659.55518,186.97366,882.41174,1582.24927,139.98865,873.89795
65,0.533,1621.84509,160.99892,969.23389,1651.14807,186.14157,881.0426,1574.35461,139.87831,872.61176
66,0.542,1614.1145,160.75732,967.80676,1642.44739,186.48421,881.25928,1566.7074,140.24709,871.82538
67,0.55,1605.25378,160.98512,967.37555,1635.78137,185.69569,880.01007,1558.99548,140.69888,872.09412
68,0.558,1597.86011,161.00862,966.60846,1628.50562,187.04919,879.31384,1552.12256,138.65117,870.00873
69,0.567,1591.74756,160.12039,964.7879,1621.56763,185.74532,878.80432,1544.83472,140.08835,867.84644
70,0.575,1584.64758,160.29028,964.29462,1614.56689,186.8177,878.42358,1537.56702,138.89926,866.00299
71,0.583,1577.18286,160.79063,962.96722,1606.15283,185.04915,876.94019,1530.67834,140.65909,865.8725
72,0.592,1569.64758,160.64349,961.1272,1599.61609,185.5215,875.02704,1523.65796,139.69394,865.10211
73,0.6,1560.40088,160.60043,959.7215,1592.73511,186.07022,874.46259,1517.14636,137.81055,862.88873
74,0.608,1554.0813,158.87224,959.10718,1585.74609,185.22804,873.28369,1509.04102,138.04828,862.06421
75,0.617,1547.58105,158.5863,957.08252,1579.1012,184.20184,872.24384,1501.92542,139.09193,861.18451
76,0.625,1539.57361,156.94246,956.81464,1572.7605,184.72011,871.64984,1495.48328,137.66499,858.09216
77,0.633,1531.64209,157.41747,956.32977,1565.89893,184.03621,871.49811,1489.11682,137.381,857.43842
78,0.642,1526.05457,155.6882,955.85309,1558.57043,182.83199,871.28259,1483.3606,138.18236,856.17389
79,0.65,1518.51196,155.73773,954.82031,1552.20837,182.39384,870.94354,1474.73804,137.77223,855.08386
80,0.658,1510.35437,154.22261,954.52844,1545.96338,181.32791,870.96283,1467.70313,137.76671,854.73834
81,0.667,1503.83569,152.67656,954.50128,1539.0365,181.46379,871.14478,1463.44714,135.4315,854.01117
82,0.675,1497.15417,150.56071,954.29193,1532.70056,180.44339,871.77576,1456.05078,136.31233,853.31079
83,0.683,1490.43018,150.39348,955.21436,1526.98376,179.48462,872.11066,1448.95483,137.18271,853.48895
84,0.692,1484.41992,149.10139,956.05524,1521.32983,178.89716,872.96136,1443.84937,134.86395,854.33685
85,0.7,1476.53955,148.12181,956.93414,1516.34705,177.57887,874.51392,1437.5752,135.43823,855.633
86,0.708,1469.89001,146.14775,957.68134,1510.17566,175.69801,876.91315,1430.71106,136.13165,855.79358
87,0.717,1463.52258,145.94543,960.57745,1504.04077,175.89726,878.16254,1427.06714,134.24173,856.56128
88,0.725,1457.55566,144.79936,962.13,1499.01709,172.85242,878.88367,1419.59778,134.63986,858.74896
89,0.733,1451.7583,144.07687,964.18982,1493.7229,172.18446,881.55939,1414.09668,134.18294,859.4801
90,0.742,1445.25415,143.09547,965.02197,1488.14014,170.03911,883.65582,1408.58398,133.35478,861.24835
91,0.75,1438.95459,141.63574,966.76184,1481.64368,169.30295,885.94458,1402.44434,132.77846,863.40143
92,0.758,1431.90198,140.92607,969.20233,1476.9165,168.15105,886.87787,1397.39197,131.85011,865.3537
93,0.767,1425.39233,139.97964,969.9707,1470.20886,166.59894,889.30548,1390.40833,132.16931,866.79187
94,0.775,1420.60071,139.79219,972.74597,1464.52356,166.46992,891.69983,1383.12292,131.56604,868.90479
95,0.783,1413.15967,140.17024,974.49194,1456.80945,165.339,892.87109,1377.54797,130.35455,869.95685
96,0.792,1408.33398,137.90279,975.15247,1450.87817,163.47583,893.0304,1370.48035,130.48288,870.48071
97,0.8,1401.32031,136.46771,976.66235,1444.97217,162.71989,895.17468,1364.06763,130.23502,873.8031
98,0.808,1394.72424,135.96223,977.53467,1439.68945,162.72304,896.78076,1359.01782,128.35785,874.29297
99,0.817,1389.90198,135.13651,977.89832,1433.2522,160.742,897.45276,1351.93396,128.0799,875.06293
100,0.825,1382.18481,135.13821,979.73663,1427.86414,161.24155,898.50159,1345.19507,128.26326,876.61218
101,0.833,1376.46021,134.13864,980.95569,1420.93726,159.68272,899.65894,1339.07312,127.74681,877.26703
102,0.842,1369.57288,132.51631,981.71039,1414.4707,159.26616,901.08636,1331.80554,126.92379,878.63934
103,0.85,1363.02185,133.4101,982.37305,1406.95447,157.65039,901.98645,1324.88245,127.93359,880.00342
104,0.858,1355.82068,133.15724,983.81024,1400.92261,157.80032,902.97577,1318.47778,128.27101,881.18738
105,0.867,1350.74133,131.34935,985.47382,1394.1604,156.52554,904.39288,1312.98792,128.34842,882.41888
106,0.875,1342.78662,131.31531,985.64917,1388.31128,156.78592,906.14636,1306.92639,127.36707,882.75745
107,0.883,1335.2959,132.23575,987.98456,1383.00024,155.97676,906.51154,1299.59644,127.2829,884.09998
108,0.892,1328.30164,132.70103,988.35461,1375.4762,155.50763,906.60516,1291.68079,128.28163,885.70142
109,0.9,1321.37024,133.05801,988.36151,1368.09851,154.88321,907.02417,1284.66174,128.02458,885.13196
110,0.908,1313.96887,132.16002,988.65387,1361.62085,153.78346,907.28967,1277.6134,128.54245,885.15527
111,0.917,1306.81104,132.38129,988.44238,1354.9751,153.50891,907.53217,1270.49219,127.38659,886.61304
112,0.925,1299.53015,133.06146,989.0965,1347.21692,153.85121,908.59656,1263.4635,127.50851,886.03271
113,0.933,1291.81152,130.91521,989.65808,1339.22949,153.40514,908.53296,1255.59241,126.93835,886.83093
114,0.942,1284.19299,131.65176,989.96649,1330.52429,153.61778,908.91791,1247.53381,127.80135,886.77362
115,0.95,1275.94434,131.55153,989.41516,1323.59192,154.39217,908.92749,1239.93542,127.69713,886.30389
116,0.958,1265.85376,132.12006,989.36322,1316.40527,152.86694,907.96588,1231.61279,127.48173,885.81989
117,0.967,1257.64233,132.26147,988.0437,1306.96448,153.51443,908.12793,1222.7738,127.29001,884.82458
118,0.975,1249.30408,132.57291,988.23804,1299.04773,154.57307,907.76605,1214.53455,128.01639,883.94574
119,0.983,1239.79346,132.41782,986.21631,1289.19531,153.82039,906.8988,1206.29456,128.08981,883.2973
120,0.992,1231.27563,132.42169,985.73364,1280.91772,155.21988,905.4317,1196.77393,127.76823,882.29065
121,1,1222.55481,132.57814,984.86548,1271.75916,156.0714,904.9726,1188.61377,127.62089,881.17352
122,1.008,1213.04993,132.3376,984.05316,1261.73633,156.30655,904.09082,1179.84802,126.02487,880.07428
123,1.017,1203.52661,131.82082,982.93286,1251.72302,156.45534,902.53528,1169.80005,126.02282,878.56653
124,1.025,1195.12744,133.68118,981.75793,1242.73157,157.05055,901.19153,1160.99268,127.23244,877.79132
125,1.033,1183.90552,133.44492,980.53632,1232.10706,157.56328,900.39526,1150.80286,126.58219,875.71088
126,1.042,1174.31262,133.55411,978.86444,1222.89539,157.09999,898.35333,1141.58862,126.89308,874.15491
127,1.05,1166.32202,133.97995,976.80237,1213.49463,158.80232,897.57697,1131.35986,127.19738,873.20789
128,1.058,1155.13403,135.15384,974.7572,1203.79541,158.64771,894.87567,1120.86084,128.30487,871.90625
129,1.067,1146.34473,135.60779,974.40967,1193.47559,159.15089,893.25299,1111.11194,126.92083,870.09296
130,1.075,1135.40417,136.54686,972.04419,1182.27649,159.79802,891.14783,1100.33557,128.20496,868.448
131,1.083,1124.77466,136.76125,970.87012,1171.40491,159.51294,889.48413,1090.07275,128.90356,866.11853
132,1.092,1114.56128,136.9156,968.85333,1160.76001,160.23012,886.8927,1079.88123,128.68605,864.96515
133,1.1,1104.49426,138.18515,966.03589,1150.44775,161.04832,885.12732,1067.73132,129.26094,863.70844
134,1.108,1093.86584,137.30005,964.46649,1139.15796,160.58063,882.50873,1057.61829,128.4783,861.94073
135,1.117,1083.86719,140.00452,962.83087,1128.18396,161.439,880.35168,1046.13428,128.04135,859.138
136,1.125,1073.6814,139.36487,961.9848,1117.34326,162.46069,878.88684,1035.10742,127.32483,857.74402
137,1.133,1059.84375,138.6729,959.70593,1106.43274,162.78894,876.80347,1024.37878,127.42151,857.22363
138,1.142,1050.7533,140.14989,958.27863,1093.89868,161.58301,874.81409,1013.77216,128.73378,855.90472
139,1.15,1039.17322,139.67398,956.08551,1082.96094,162.17656,872.88409,1002.30444,128.35481,854.84845
140,1.158,1029.18152,139.9798,955.02606,1071.43323,163.89218,871.92603,989.9397,129.01674,854.10498
141,1.167,1017.46326,141.20256,954.66461,1059.34851,165.28549,870.81525,977.67218,129.00316,853.8056
142,1.175,1006.18762,141.29141,953.93146,1047.96436,164.4263,871.19482,966.58197,129.24666,853.28784
143,1.183,994.49927,140.57274,953.76892,1035.41821,163.78531,870.34991,954.60956,128.15517,853.43207
144,1.192,983.01648,142.08691,955.19171,1024.13184,163.87407,870.42157,943.03583,127.61162,853.14447
145,1.2,971.31018,141.71944,955.09113,1012.77228,165.054,871.21198,932.59784,128.01389,853.7088
146,1.208,960.17896,141.91747,955.5498,1000.34766,164.76772,870.40436,920.31256,128.36861,854.43219
147,1.217,950.42664,143.57639,956.42468,988.71918,164.36015,871,908.96881,128.49695,855.15619
148,1.225,938.84882,143.12987,956.93939,977.11835,165.72369,872.29669,897.52014,128.08904,855.7735
149,1.233,927.83154,143.39597,957.1673,965.81073,166.31096,872.79663,885.56488,128.72115,858.40887
150,1.242,916.43347,144.88773,958.05176,953.14001,166.81032,872.85907,873.99713,127.66223,858.91968
151,1.25,905.11945,144.9149,959.02979,941.83936,167.30383,873.33942,861.87878,125.88745,859.53839
152,1.258,894.07178,145.59126,960.50781,929.96222,167.69307,873.55475,850.42102,126.05572,860.27429
153,1.267,883.48273,145.03094,960.83972,917.53021,167.30699,874.11835,838.96838,125.7055,862.276
154,1.275,872.41504,144.68484,961.33063,906.86029,167.81061,874.66302,827.27753,126.19286,863.81311
155,1.283,861.84869,145.41667,962.55115,894.99976,167.5863,875.74402,816.09558,124.59748,864.77283
156,1.292,850.86346,145.11716,963.50446,883.07446,167.20018,877.25812,804.36115,124.23447,865.76855
157,1.3,839.30945,146.06828,965.47748,871.44257,167.30287,878.01056,793.90228,124.70183,866.97772
158,1.308,828.94226,145.7281,966.09558,860.15839,168.05266,878.85229,783.89349,124.20673,869.57709
159,1.317,819.14142,144.00998,967.25037,848.88654,168.26595,879.82526,772.10284,123.23282,870.23944
160,1.325,806.71777,142.76001,969.50153,837.58185,167.83379,880.96747,761.50427,121.88886,871.51868
161,1.333,797.54224,142.58275,970.52667,826.13812,168.54057,882.729,749.82068,121.56621,873.79785
162,1.342,787.8371,141.6366,970.85046,816.23944,167.5067,883.52075,739.57629,121.02926,875.68445
163,1.35,777.388,142.46599,972.54224,804.71545,168.23323,884.88092,728.45911,119.97665,876.86902
164,1.358,767.81433,142.32726,974.59467,794.63031,166.79482,885.77222,718.8432,118.50938,877.93842
165,1.367,757.18658,141.12177,975.10626,784.01794,166.34163,887.15894,708.46759,118.39201,879.47162
166,1.375,747.66962,139.69464,975.47064,773.86975,166.37321,888.21381,697.55914,117.83646,881.8056
167,1.383,738.73212,140.84798,977.25055,763.26196,165.49026,889.22241,688.03259,116.77666,882.36517
168,1.392,729.45361,140.43756,977.54712,752.98438,164.3239,889.27258,678.34369,116.0325,883.58838
169,1.4,720.09308,141.44223,979.13208,744.96576,163.44154,889.85358,669.33252,115.535,885.58044
170,1.408,710.85278,140.77007,979.61646,735.03516,164.12827,890.03772,659.47546,115.66712,885.45148
171,1.417,702.44647,139.0558,979.64752,725.09052,163.61317,890.56531,648.98987,113.88166,887.15454
172,1.425,693.23492,138.15115,979.8374,715.34442,162.57813,890.77863,639.40851,112.44032,887.78595
173,1.433,684.13086,138.81967,980.42419,705.67987,162.47108,890.9104,630.3327,111.60827,887.84143
174,1.442,675.06647,138.74261,980.68585,698.09674,161.87511,890.55591,621.93079,112.29909,888.43506
175,1.45,666.37476,138.12506,980.39063,688.8609,160.51512,890.75677,614.2287,112.19686,888.84241
176,1.458,658.6394,137.4971,978.99139,680.53949,160.3252,890.43768,603.95514,111.76961,888.82001
177,1.467,649.8772,136.74471,979.13312,670.71576,159.85736,889.79041,595.67859,109.82481,888.38593
178,1.475,641.92755,134.91249,978.99542,662.37897,159.24991,889.10345,586.87848,110.11348,888.36029
179,1.483,633.40454,134.81203,978.69446,655.26404,158.87135,888.46454,578.48181,109.10654,887.68005
180,1.492,625.48065,135.11513,978.01837,646.25397,158.39661,887.79364,570.80286,109.57105,887.03491
181,1.5,617.30969,135.04863,977.18115,637.98633,157.1422,887.599,562.24048,108.86983,885.99908
182,1.508,609.53082,133.49402,975.85242,630.92047,156.93462,886.58459,554.56079,107.65364,885.20813
183,1.517,602.02057,131.7012,975.44678,622.79175,157.23869,885.86963,547.28394,106.36805,884.88885
184,1.525,595.35004,132.12489,974.02747,615.54218,155.28894,884.96533,539.53748,106.97247,882.97351
185,1.533,586.7973,131.64763,972.6521,607.57123,155.13112,883.86725,532.28778,105.65764,882.41602
186,1.542,578.84686,130.82523,971.77527,600.33453,153.4558,882.25513,524.86133,106.12383,880.40216
187,1.55,570.89618,130.15981,970.02118,594.4234,152.89301,881.68921,517.26715,104.38316,879.20667
188,1.558,563.3277,128.73026,969.12531,586.552,152.5103,879.84143,511.03046,103.24406,877.92401
189,1.567,556.48077,128.69531,968.43817,579.48987,151.49803,879.0556,503.63867,102.93626,876.10742
190,1.575,549.49194,127.81557,967.36035,573.45624,151.18059,878.42468,497.43762,103.13524,875.21838
191,1.583,541.99518,126.28298,966.78668,566.27026,151.44467,877.69751,490.78876,102.63028,873.21136
192,1.592,536.18079,126.13102,965.56665,559.79797,150.27338,877.55768,483.72794,101.95303,872.02612
193,1.6,529.18622,124.05716,964.2934,554.67511,149.23853,876.57129,477.21457,101.5423,871.08667
194,1.608,521.84277,123.52724,963.60498,547.66528,149.56091,875.89276,470.85562,100.80779,869.74774
195,1.617,516.42474,123.08843,963.06793,541.1189,149.00258,875.14478,465.68799,100.78929,868.36829
196,1.625,509.57745,121.36691,962.80396,535.84601,147.47755,875.49854,459.50897,99.71497,867.67615
197,1.633,502.77127,120.58753,962.5929,530.75793,145.6864,875.40826,454.0087,100.67464,866.43774
198,1.642,496.33099,119.82538,962.90692,525.93304,146.00023,876.12262,448.78961,100.30605,865.96228
