Frame#,Time,L.Forearm.x,L.Forearm.y,L.Forearm.z,L.Ulna.x,L.Ulna.y,L.Ulna.z,L.Radius.x,L.Radius.y,L.Radius.z
1,0,19.28086,355.18814,986.13959,97.08549,334.63654,931.91614,85.91236,262.12918,996.19458
2,0.008,18.8989,354.90173,986.0379,97.08549,334.63654,931.91614,86.36906,262.71887,996.23993
3,0.017,18.63511,354.45737,986.18927,96.80034,334.67093,931.89594,86.48667,262.78949,995.94385
4,0.025,19.28086,355.18814,986.13959,97.07207,334.96671,932.10571,85.91236,262.12918,996.19458
5,0.033,18.56413,355.10703,986.19989,96.80034,334.67093,931.89594,86.39741,262.08966,996.18262
6,0.042,19.28086,355.18814,986.13959,97.08549,334.63654,931.91614,86.2161,262.04749,995.80389
7,0.05,19.28086,355.18814,986.13959,96.80159,335.34619,931.94287,86.17403,262.22073,995.91095
8,0.058,19.28086,355.18814,986.13959,97.0733,335.642,932.15265,86.11874,261.93848,995.79309
9,0.067,18.56413,355.10703,986.19989,97.07207,334.96671,932.10571,85.91236,262.12918,996.19458
10,0.075,19.22212,356.03638,986.35339,97.0733,335.642,932.15265,86.55154,262.72516,996.58136
11,0.083,18.56413,355.10703,986.19989,97.0733,335.642,932.15265,86.55154,262.72516,996.58136
12,0.092,18.56413,355.10703,986.19989,97.07207,334.96671,932.10571,86.02895,262.89267,996.6217
13,0.1,18.56413,355.10703,986.19989,96.46709,335.79437,932.31921,86.82114,263.34027,996.45752
14,0.108,18.98319,355.59601,986.23669,96.46709,335.79437,932.31921,85.98296,262.78998,996.75586
15,0.117,18.3208,355.4679,986.30939,96.46709,335.79437,932.31921,85.98296,262.78998,996.75586
16,0.125,18.3208,355.4679,986.30939,96.46709,335.79437,932.31921,85.95151,262.8688,997.21301
17,0.133,18.80159,355.57343,986.34351,96.46709,335.79437,932.31921,85.95151,262.8688,997.21301
18,0.142,19.22212,356.03638,986.35339,96.46709,335.79437,932.31921,85.73431,263.04993,997.5929
19,0.15,18.80159,355.57343,986.34351,96.46709,335.79437,932.31921,85.73431,263.04993,997.5929
20,0.158,18.70238,356.12357,986.28033,96.46709,335.79437,932.31921,85.73431,263.04993,997.5929
21,0.167,18.94006,355.7901,986.19409,96.53135,336.18723,932.64252,85.56406,263.68765,998.03802
22,0.175,19.36494,356.2518,986.20758,96.46709,335.79437,932.31921,85.8333,263.32318,997.55249
23,0.183,18.80159,355.57343,986.34351,96.53135,336.18723,932.64252,85.56406,263.68765,998.03802
24,0.192,19.22212,356.03638,986.35339,97.56281,336.14609,932.88806,85.56406,263.68765,998.03802
25,0.2,18.55964,355.9082,986.42609,96.53135,336.18723,932.64252,85.56406,263.68765,998.03802
26,0.208,18.55964,355.9082,986.42609,96.53135,336.18723,932.64252,85.73431,263.04993,997.5929
27,0.217,19.65698,355.87134,986.13379,96.53135,336.18723,932.64252,85.95151,262.8688,997.21301
28,0.225,18.94006,355.7901,986.19409,96.53135,336.18723,932.64252,85.73431,263.04993,997.5929
29,0.233,18.70238,356.12357,986.28033,96.53135,336.18723,932.64252,85.73431,263.04993,997.5929
30,0.242,18.70238,356.12357,986.28033,96.53135,336.18723,932.64252,85.99747,262.97153,997.07892
31,0.25,18.55964,355.9082,986.42609,96.53135,336.18723,932.64252,85.95151,262.8688,997.21301
32,0.258,18.38012,355.93204,986.42639,96.53135,336.18723,932.64252,85.99747,262.97153,997.07892
33,0.267,18.38012,355.93204,986.42639,96.53135,336.18723,932.64252,85.99747,262.97153,997.07892
34,0.275,18.38012,355.93204,986.42639,96.53135,336.18723,932.64252,85.5974,263.83325,997.8725
35,0.283,18.38012,355.93204,986.42639,96.53135,336.18723,932.64252,85.56406,263.68765,998.03802
36,0.292,18.52286,356.1474,986.2807,96.53135,336.18723,932.64252,85.56406,263.68765,998.03802
37,0.3,18.52286,356.1474,986.2807,96.53135,336.18723,932.64252,85.56406,263.68765,998.03802
38,0.308,18.52286,356.1474,986.2807,96.53135,336.18723,932.64252,85.56406,263.68765,998.03802
39,0.317,18.32486,356.20166,986.15015,96.53135,336.18723,932.64252,86.3011,264.71347,997.94574
40,0.325,18.32486,356.20166,986.15015,96.53135,336.18723,932.64252,85.96662,264.4321,997.88531
41,0.333,18.32486,356.20166,986.15015,96.53135,336.18723,932.64252,86.33636,265.03015,997.8985
42,0.342,18.32486,356.20166,986.15015,96.53135,336.18723,932.64252,86.33636,265.03015,997.8985
43,0.35,18.07804,356.82748,986.30139,96.53135,336.18723,932.64252,86.33636,265.03015,997.8985
44,0.358,18.07804,356.82748,986.30139,96.28233,337.57861,932.89978,86.33636,265.03015,997.8985
45,0.367,18.07804,356.82748,986.30139,96.28233,337.57861,932.89978,85.49496,263.52216,998.52362
46,0.375,17.96665,356.84805,985.99768,96.12082,337.70584,932.76898,85.49496,263.52216,998.52362
47,0.383,18.07804,356.82748,986.30139,96.12082,337.70584,932.76898,85.49496,263.52216,998.52362
48,0.392,18.07804,356.82748,986.30139,96.12082,337.70584,932.76898,85.32882,263.68756,998.4068
49,0.4,18.07804,356.82748,986.30139,96.12082,337.70584,932.76898,86.17027,265.19528,997.78168
50,0.408,17.96665,356.84805,985.99768,95.88415,337.79678,932.66998,85.88543,265.28699,997.78381
51,0.417,17.96665,356.84805,985.99768,95.88415,337.79678,932.66998,86.17027,265.19528,997.78168
52,0.425,18.07804,356.82748,986.30139,96.12082,337.70584,932.76898,85.044,263.77921,998.40881
53,0.433,17.96665,356.84805,985.99768,96.12082,337.70584,932.76898,85.044,263.77921,998.40881
54,0.442,17.96799,357.23764,986.409,95.88415,337.79678,932.66998,85.044,263.77921,998.40881
55,0.45,18.40937,357.19354,986.22333,96.12082,337.70584,932.76898,85.044,263.77921,998.40881
56,0.458,17.96799,357.23764,986.409,96.12082,337.70584,932.76898,85.044,263.77921,998.40881
57,0.467,18.41033,357.45306,986.49774,96.12082,337.70584,932.76898,85.044,263.77921,998.40881
58,0.475,18.07941,357.21713,986.71259,96.12082,337.70584,932.76898,85.88543,265.28699,997.78381
59,0.483,17.96799,357.23764,986.409,96.12082,337.70584,932.76898,86.02782,265.10703,997.92432
60,0.492,17.96799,357.23764,986.409,96.12082,337.70584,932.76898,85.88543,265.28699,997.78381
61,0.5,17.96665,356.84805,985.99768,96.12082,337.70584,932.76898,86.41089,265.64487,998.03973
62,0.508,17.96799,357.23764,986.409,96.25874,337.8251,933.40155,86.41089,265.64487,998.03973
63,0.517,17.96799,357.23764,986.409,96.12082,337.70584,932.76898,86.41089,265.64487,998.03973
64,0.525,17.96799,357.23764,986.409,96.25874,337.8251,933.40155,86.41089,265.64487,998.03973
65,0.533,17.96799,357.23764,986.409,96.25874,337.8251,933.40155,86.41089,265.64487,998.03973
66,0.542,17.96799,357.23764,986.409,96.25874,337.8251,933.40155,86.41089,265.64487,998.03973
67,0.55,18.07941,357.21713,986.71259,96.25874,337.8251,933.40155,86.292,265.48248,998.25311
68,0.558,17.96799,357.23764,986.409,96.076,338.99509,933.53662,86.41089,265.64487,998.03973
69,0.567,17.96799,357.23764,986.409,96.076,338.99509,933.53662,86.41089,265.64487,998.03973
70,0.575,17.96799,357.23764,986.409,96.076,338.99509,933.53662,86.41089,265.64487,998.03973
71,0.583,18.07941,357.21713,986.71259,96.076,338.99509,933.53662,86.41089,265.64487,998.03973
72,0.592,17.95938,357.47629,986.66724,95.83945,339.08606,933.43768,85.88543,265.28699,997.78381
73,0.6,17.96799,357.23764,986.409,96.076,338.99509,933.53662,85.88543,265.28699,997.78381
74,0.608,17.96799,357.23764,986.409,96.076,338.99509,933.53662,85.88543,265.28699,997.78381
75,0.617,18.07617,357.44125,986.94745,95.83945,339.08606,933.43768,85.51556,264.6889,997.77057
76,0.625,18.36349,357.63525,986.75836,95.83945,339.08606,933.43768,85.89307,265.1127,997.65277
77,0.633,17.95938,357.47629,986.66724,96.076,338.99509,933.53662,85.53912,264.34641,998.12445
78,0.642,18.36349,357.63525,986.75836,96.076,338.99509,933.53662,85.76195,265.19272,997.92627
79,0.65,17.95938,357.47629,986.66724,95.83945,339.08606,933.43768,86.14503,265.73056,998.04175
80,0.658,18.48027,357.60025,987.03864,96.076,338.99509,933.53662,86.292,265.48248,998.25311
81,0.667,17.95938,357.47629,986.66724,95.83945,339.08606,933.43768,86.292,265.48248,998.25311
82,0.675,17.95938,357.47629,986.66724,96.076,338.99509,933.53662,86.292,265.48248,998.25311
83,0.683,17.95938,357.47629,986.66724,96.076,338.99509,933.53662,86.292,265.48248,998.25311
84,0.692,18.07617,357.44125,986.94745,96.076,338.99509,933.53662,86.292,265.48248,998.25311
85,0.7,18.07617,357.44125,986.94745,96.076,338.99509,933.53662,86.292,265.48248,998.25311
86,0.708,18.07617,357.44125,986.94745,95.813,338.86774,933.64764,86.292,265.48248,998.25311
87,0.717,17.56186,358.14478,986.98907,95.813,338.86774,933.64764,86.292,265.48248,998.25311
88,0.725,17.45721,358.08923,987.06158,96.04514,338.74063,933.78168,86.292,265.48248,998.25311
89,0.733,17.96919,357.39163,987.01227,96.04514,338.74063,933.78168,86.292,265.48248,998.25311
90,0.742,17.57321,357.47684,987.28058,95.78653,338.64984,933.85785,86.292,265.48248,998.25311
91,0.75,17.57321,357.47684,987.28058,95.78653,338.64984,933.85785,85.91395,264.97025,998.84692
92,0.758,18.15915,357.31207,987.26746,95.78653,338.64984,933.85785,85.91395,264.97025,998.84692
93,0.767,17.45759,357.28912,987.41187,95.60164,338.84927,934.42651,85.92218,264.88443,998.23999
94,0.775,17.45759,357.28912,987.41187,95.60164,338.84927,934.42651,85.53912,264.34641,998.12445
95,0.783,17.35567,357.80661,987.65472,95.83816,338.75836,934.52551,85.91395,264.97025,998.84692
96,0.792,17.35567,357.80661,987.65472,95.83816,338.75836,934.52551,85.53912,264.34641,998.12445
97,0.8,17.35567,357.80661,987.65472,95.83816,338.75836,934.52551,85.53089,264.4324,998.73163
98,0.808,17.43582,358.03809,987.92609,95.83816,338.75836,934.52551,85.53089,264.4324,998.73163
99,0.817,17.43582,358.03809,987.92609,95.83816,338.75836,934.52551,85.53089,264.4324,998.73163
100,0.825,17.35567,357.80661,987.65472,95.83816,338.75836,934.52551,85.53089,264.4324,998.73163
101,0.833,17.43582,358.03809,987.92609,95.83816,338.75836,934.52551,85.53089,264.4324,998.73163
102,0.842,17.45759,357.28912,987.41187,95.83816,338.75836,934.52551,85.29754,265.25507,999.22247
103,0.85,17.45759,357.28912,987.41187,95.34805,338.45694,934.81372,85.71407,265.72806,999.21899
104,0.858,17.45759,357.28912,987.41187,95.34805,338.45694,934.81372,85.71407,265.72806,999.21899
105,0.867,17.44949,357.2529,987.80127,95.19219,338.22528,935.00653,85.71407,265.72806,999.21899
106,0.875,17.4452,357.59259,988.17151,95.19219,338.22528,935.00653,85.71407,265.72806,999.21899
107,0.883,17.69037,357.75803,988.59302,95.19219,338.22528,935.00653,85.70451,265.30804,999.2677
108,0.892,17.69465,357.41837,988.2229,95.19219,338.22528,935.00653,85.70451,265.30804,999.2677
109,0.9,17.42973,357.39227,988.1051,95.19219,338.22528,935.00653,85.28874,264.88702,999.26593
110,0.908,17.58771,357.36877,988.28772,95.19707,338.07794,935.15057,85.70451,265.30804,999.2677
111,0.917,17.58345,357.70844,988.65784,95.59375,338.44522,936.13885,84.87337,264.46542,999.26453
112,0.925,17.49621,357.5195,988.41888,95.8602,337.44629,936.07794,84.87337,264.46542,999.26453
113,0.933,17.50049,357.17984,988.04871,95.8602,337.44629,936.07794,84.74397,264.3446,999.4364
114,0.942,17.58771,357.36877,988.28772,95.8602,337.44629,936.07794,84.74397,264.3446,999.4364
115,0.95,17.58345,357.70844,988.65784,95.8602,337.44629,936.07794,84.74397,264.3446,999.4364
116,0.958,17.58771,357.36877,988.28772,95.8602,337.44629,936.07794,84.74397,264.3446,999.4364
117,0.967,17.58345,357.70844,988.65784,95.8602,337.44629,936.07794,84.74397,264.3446,999.4364
118,0.975,17.58771,357.36877,988.28772,95.8602,337.44629,936.07794,84.74397,264.3446,999.4364
119,0.983,17.47706,358.31775,989.07019,95.8602,337.44629,936.07794,84.74397,264.3446,999.4364
120,0.992,17.47706,358.31775,989.07019,95.8602,337.44629,936.07794,84.74397,264.3446,999.4364
121,1,17.58771,357.36877,988.28772,95.8602,337.44629,936.07794,84.26759,263.77612,999.56653
122,1.008,17.47706,358.31775,989.07019,95.8602,337.44629,936.07794,84.74397,264.3446,999.4364
123,1.017,17.47706,358.31775,989.07019,95.8602,337.44629,936.07794,84.74397,264.3446,999.4364
124,1.025,17.58345,357.70844,988.65784,95.8602,337.44629,936.07794,85.41356,265.14041,999.5564
125,1.033,17.58345,357.70844,988.65784,95.8602,337.44629,936.07794,85.31445,264.57791,999.74017
126,1.042,17.47706,358.31775,989.07019,95.8602,337.44629,936.07794,85.31445,264.57791,999.74017
127,1.05,17.47706,358.31775,989.07019,95.86504,337.29895,936.22205,85.31445,264.57791,999.74017
128,1.058,17.47144,357.94904,989.45502,95.86504,337.29895,936.22205,85.31445,264.57791,999.74017
129,1.067,17.58205,358.18024,989.16498,95.86504,337.29895,936.22205,85.43287,264.46561,999.85645
130,1.075,17.57116,357.11536,989.60144,95.86504,337.29895,936.22205,85.37796,263.01273,999.49268
131,1.083,17.46491,356.63354,989.7804,95.86504,337.29895,936.22205,84.82384,262.06866,999.59454
132,1.092,17.02419,355.22809,989.54846,96.0067,337.33942,936.77008,84.82384,262.06866,999.59454
133,1.1,17.26682,356.02615,990.06519,96.0067,337.33942,936.77008,85.10042,262.5647,999.62518
134,1.108,16.99444,355.57321,990.15735,95.81911,336.84409,937.16919,85.10042,262.5647,999.62518
135,1.117,16.99444,355.57321,990.15735,95.81911,336.84409,937.16919,85.10042,262.5647,999.62518
136,1.125,16.99444,355.57321,990.15735,95.81911,336.84409,937.16919,85.30415,262.23459,999.88507
137,1.133,17.01013,355.06781,989.6861,95.81911,336.84409,937.16919,85.29601,262.30252,999.87372
138,1.142,16.99444,355.57321,990.15735,95.81911,336.84409,937.16919,85.46133,262.04227,1000.09857
139,1.15,17.01013,355.06781,989.6861,95.81911,336.84409,937.16919,85.46133,262.04227,1000.09857
140,1.158,17.01013,355.06781,989.6861,95.81911,336.84409,937.16919,85.46133,262.04227,1000.09857
141,1.167,17.01013,355.06781,989.6861,95.81911,336.84409,937.16919,85.42033,261.87473,1000.34442
142,1.175,16.99444,355.57321,990.15735,95.81911,336.84409,937.16919,85.42033,261.87473,1000.34442
143,1.183,16.99444,355.57321,990.15735,95.81911,336.84409,937.16919,85.42481,261.91696,1000.82587
144,1.192,16.99444,355.57321,990.15735,95.81911,336.84409,937.16919,85.42481,261.91696,1000.82587
145,1.2,17.17636,355.04453,989.91412,95.81911,336.84409,937.16919,85.42481,261.91696,1000.82587
146,1.208,16.99444,355.57321,990.15735,95.81911,336.84409,937.16919,85.25117,261.77292,1001.11554
147,1.217,17.16066,355.5499,990.38525,95.81911,336.84409,937.16919,85.25117,261.77292,1001.11554
148,1.225,17.16066,355.5499,990.38525,95.93087,336.48575,937.68945,85.66638,262.19449,1001.11694
149,1.233,17.16066,355.5499,990.38525,95.66486,336.33005,937.90424,85.46017,262.38443,1001.51813
150,1.242,17.17636,355.04453,989.91412,95.88817,336.20352,938.00018,85.67112,261.7294,1001.3175
151,1.25,17.16066,355.5499,990.38525,95.82114,335.52286,938.10742,85.46493,261.91934,1001.71857
152,1.258,17.58023,355.38589,990.52954,95.82114,335.52286,938.10742,85.33297,262.31018,1001.63251
153,1.267,17.8008,355.32346,990.3551,95.82114,335.52286,938.10742,85.46493,261.91934,1001.71857
154,1.275,17.58023,355.38589,990.52954,95.82114,335.52286,938.10742,85.25674,261.5751,1001.5838
155,1.283,17.58023,355.38589,990.52954,95.82114,335.52286,938.10742,85.25674,261.5751,1001.5838
156,1.292,17.58023,355.38589,990.52954,95.82114,335.52286,938.10742,85.25591,261.30789,1001.31604
157,1.3,17.58023,355.38589,990.52954,95.82114,335.52286,938.10742,85.25591,261.30789,1001.31604
158,1.308,17.59603,354.88052,990.05847,95.82114,335.52286,938.10742,85.25591,261.30789,1001.31604
159,1.317,17.58023,355.38589,990.52954,95.82114,335.52286,938.10742,85.25591,261.30789,1001.31604
160,1.325,17.8008,355.32346,990.3551,95.82114,335.52286,938.10742,85.25591,261.30789,1001.31604
161,1.333,17.8008,355.32346,990.3551,95.82114,335.52286,938.10742,85.25591,261.30789,1001.31604
162,1.342,17.59466,355.4118,990.20081,95.82114,335.52286,938.10742,85.25591,261.30789,1001.31604
163,1.35,17.61046,354.90634,989.72955,95.85399,335.7648,937.81696,85.25591,261.30789,1001.31604
164,1.358,17.59466,355.4118,990.20081,95.85399,335.7648,937.81696,85.25591,261.30789,1001.31604
165,1.367,17.81665,354.81802,989.88397,95.85399,335.7648,937.81696,85.38316,261.38217,1001.2016
166,1.375,17.8008,355.32346,990.3551,95.95164,335.96518,937.42316,85.38316,261.38217,1001.2016
167,1.383,17.81665,354.81802,989.88397,96.04243,336.71759,937.2652,85.55679,261.52621,1000.91193
168,1.392,17.8008,355.32346,990.3551,96.04243,336.71759,937.2652,85.55679,261.52621,1000.91193
169,1.4,18.2548,355.06039,989.99219,96.04243,336.71759,937.2652,85.55679,261.52621,1000.91193
170,1.408,17.81665,354.81802,989.88397,96.04243,336.71759,937.2652,85.55679,261.52621,1000.91193
171,1.417,17.81665,354.81802,989.88397,96.04243,336.71759,937.2652,85.55679,261.52621,1000.91193
172,1.425,17.81665,354.81802,989.88397,96.04243,336.71759,937.2652,85.55679,261.52621,1000.91193
173,1.433,17.81665,354.81802,989.88397,96.04243,336.71759,937.2652,85.55679,261.52621,1000.91193
174,1.442,17.81665,354.81802,989.88397,96.39224,336.1153,937.13281,85.55679,261.52621,1000.91193
175,1.45,17.81665,354.81802,989.88397,96.04243,336.71759,937.2652,85.55679,261.52621,1000.91193
176,1.458,17.81665,354.81802,989.88397,96.04243,336.71759,937.2652,85.55679,261.52621,1000.91193
177,1.467,17.81665,354.81802,989.88397,96.04243,336.71759,937.2652,85.55679,261.52621,1000.91193
178,1.475,18.2548,355.06039,989.99219,96.39224,336.1153,937.13281,85.55679,261.52621,1000.91193
179,1.483,17.81665,354.81802,989.88397,96.04243,336.71759,937.2652,85.55679,261.52621,1000.91193
180,1.492,18.46607,355.43402,990.28204,95.95164,335.96518,937.42316,85.55679,261.52621,1000.91193
181,1.5,17.81665,354.81802,989.88397,96.20194,336.5618,937.39227,85.55679,261.52621,1000.91193
182,1.508,17.81665,354.81802,989.88397,96.01585,335.63116,937.94012,85.55679,261.52621,1000.91193
183,1.517,17.81665,354.81802,989.88397,96.01585,335.63116,937.94012,85.48772,261.63489,1000.81793
184,1.525,17.81665,354.81802,989.88397,96.45622,335.32321,937.43744,85.38316,261.38217,1001.2016
185,1.533,17.81665,354.81802,989.88397,96.09037,336.32999,937.81647,85.50166,261.26968,1001.31799
186,1.542,17.81665,354.81802,989.88397,96.20194,336.5618,937.39227,85.50166,261.26968,1001.31799
187,1.55,17.8008,355.32346,990.3551,96.44022,335.72763,937.68396,85.50166,261.26968,1001.31799
188,1.558,18.2548,355.06039,989.99219,96.45622,335.32321,937.43744,85.67528,261.41379,1001.02832
189,1.567,17.81665,354.81802,989.88397,96.55177,335.95941,937.25983,85.82009,261.48532,1000.914
190,1.575,17.81665,354.81802,989.88397,96.45622,335.32321,937.43744,85.96273,261.38489,1001.01135
191,1.583,17.81665,354.81802,989.88397,97.16998,335.77777,937.06305,85.96273,261.38489,1001.01135
192,1.592,18.2548,355.06039,989.99219,97.16998,335.77777,937.06305,85.96273,261.38489,1001.01135
193,1.6,18.2548,355.06039,989.99219,97.48201,335.00974,936.09204,85.96273,261.38489,1001.01135
194,1.608,17.91702,354.67612,989.98358,97.68269,335.07944,936.35754,85.96273,261.38489,1001.01135
195,1.617,17.90113,355.18158,990.45465,97.68269,335.07944,936.35754,86.31344,262.20172,1001.17596
196,1.625,17.81665,354.81802,989.88397,97.68269,335.07944,936.35754,86.31344,262.20172,1001.17596
197,1.633,17.90113,355.18158,990.45465,97.48201,335.00974,936.09204,85.96273,261.38489,1001.01135
198,1.642,18.35513,354.91849,990.0918,97.33222,335.68146,936.48969,86.24766,262.09644,1001.09369
199,1.65,17.88089,354.0419,989.89301,97.33222,335.68146,936.48969,85.95828,261.34268,1000.52985
200,1.658,18.31895,354.28412,990.00128,97.33222,335.68146,936.48969,85.81564,261.44308,1000.4325
201,1.667,17.98129,353.8999,989.99268,97.48201,335.00974,936.09204,85.82009,261.48532,1000.914
202,1.675,18.31895,354.28412,990.00128,97.48201,335.00974,936.09204,85.85663,261.61063,1000.18671
203,1.683,17.88089,354.0419,989.89301,97.48201,335.00974,936.09204,85.85663,261.61063,1000.18671
204,1.692,18.36258,354.26865,989.53156,97.01483,334.83578,935.53766,85.85663,261.61063,1000.18671
205,1.7,17.90332,354.78821,988.94464,97.01483,334.83578,935.53766,85.85663,261.61063,1000.18671
206,1.708,18.7333,354.61954,989.19318,97.28175,333.83667,935.47675,85.85663,261.61063,1000.18671
207,1.717,18.2625,354.39282,989.05444,97.55169,333.74054,935.10413,85.85663,261.61063,1000.18671
208,1.725,18.12393,354.72583,988.77014,97.28472,334.73972,935.16522,85.85663,261.61063,1000.18671
