Frame#,Time,L.Forearm.x,L.Forearm.y,L.Forearm.z,L.Ulna.x,L.Ulna.y,L.Ulna.z,L.Radius.x,L.Radius.y,L.Radius.z
1,0,162.47552,108.21383,1132.04517,266.05734,95.40757,1130.5199,252.3941,-3.61249,1149.30615
2,0.008,161.55959,108.37396,1133.198,266.43634,96.84928,1132.53589,250.93138,-1.26549,1152.34924
3,0.017,161.53099,109.91878,1135.94519,266.86313,97.78345,1135.75562,250.14729,-1.02686,1155.03699
4,0.025,161.05638,110.45454,1136.81689,265.48276,99.10483,1137.59277,250.44733,0.46134,1157.12524
5,0.033,160.73026,112.66792,1138.74402,265.21729,101.30326,1140.49084,250.54185,1.60258,1160.29419
6,0.042,160.53531,112.66702,1140.58459,264.14636,103.02364,1142.80859,251.62624,3.14657,1162.63245
7,0.05,159.62303,114.16918,1142.46912,263.70383,103.37695,1144.65027,251.0284,5.07799,1164.88257
8,0.058,158.92432,116.14747,1144.38464,262.44391,105.40755,1147.0907,250.89905,5.41174,1167.83923
9,0.067,158.66385,117.51009,1145.52441,262.37598,105.69968,1148.8667,250.32248,7.25807,1170.39893
10,0.075,158.87653,118.59846,1147.45703,262.01837,108.96962,1151.62268,250.20967,9.7225,1172.479
11,0.083,158.58926,120.56468,1149.16016,261.14719,109.89507,1153.93848,250.5687,10.83769,1174.75281
12,0.092,157.52501,121.0074,1150.98254,261.48373,111.14288,1155.62549,249.33163,11.55163,1177.59814
13,0.1,156.97112,121.97454,1152.36023,261.70724,115.16823,1156.89124,249.28212,14.17917,1179.96069
14,0.108,156.98846,123.2978,1154.35083,261.23181,115.61002,1159.46765,248.92358,15.92025,1181.9303
15,0.117,156.69783,124.51187,1155.36426,260.23236,117.53533,1161.73914,248.89409,17.10437,1183.60535
16,0.125,156.0988,126.01942,1156.33704,259.22113,120.1732,1163.7981,248.81918,20.02788,1185.77783
17,0.133,155.35112,128.34151,1157.83093,258.84616,121.00735,1165.31311,248.43387,22.60588,1187.83228
18,0.142,154.67291,128.87082,1159.95496,259.64017,123.44138,1166.99097,248.41383,24.33572,1190.72363
19,0.15,154.51407,131.37512,1161.14294,258.81445,125.30447,1168.37183,248.49942,25.61789,1191.84753
20,0.158,154.44835,132.14313,1161.7478,258.26443,127.04986,1169.93616,248.3835,27.60081,1194.03955
21,0.167,153.84488,133.24149,1163.34216,257.68018,128.73335,1172.14136,248.17282,29.68929,1195.49207
22,0.175,152.90582,136.11754,1165.13489,257.23398,131.28949,1173.16968,248.00961,30.65256,1197.28918
23,0.183,153.08592,138.09697,1165.38416,257.44177,133.33702,1174.01636,247.57614,33.75753,1199.43616
24,0.192,152.9463,140.39171,1166.60168,256.90451,135.60463,1176.37842,247.41856,35.72474,1200.41785
25,0.2,152.64955,141.68242,1167.33545,255.68672,138.25699,1177.58545,247.98761,37.79223,1201.87329
26,0.208,151.85728,143.01094,1168.9801,255.71246,139.5903,1179.11255,248.28958,41.29272,1203.18616
27,0.217,151.35719,144.44174,1169.73669,255.65111,142.21794,1179.99841,246.8022,43.21525,1205.41736
28,0.225,150.8741,146.33095,1170.53821,255.06464,145.15211,1181.34937,247.36812,46.18057,1205.68665
29,0.233,150.74078,149.00648,1171.66467,254.72125,146.73911,1181.87891,246.80273,47.3504,1207.28979
30,0.242,150.56644,150.49072,1172.28784,254.05707,148.93146,1182.78857,247.10451,50.19633,1208.51355
31,0.25,150.21199,153.05014,1172.99646,253.48065,151.38559,1183.91895,247.74316,51.87512,1209.36902
32,0.258,149.50555,154.7092,1173.7561,253.70334,155.33987,1184.97717,247.68681,55.244,1211.09741
33,0.267,148.90152,155.19507,1174.1106,252.53325,156.06171,1185.51343,247.99565,57.9351,1213.53406
34,0.275,148.69748,157.97269,1174.89417,252.2101,158.90094,1187.23755,247.76671,60.74654,1213.59827
35,0.283,148.78358,160.11263,1175.57092,251.77258,160.99786,1187.32239,247.98199,63.65328,1214.20911
36,0.292,148.31566,162.44894,1176.151,251.89755,164.43279,1188.54272,248.38664,64.85104,1214.63049
37,0.3,148.24323,164.11766,1176.66992,251.35722,165.80324,1188.93701,249.13599,68.06142,1215.33398
38,0.308,147.99715,166.84048,1176.8468,251.0955,168.05251,1189.39441,249.1067,71.96006,1217.14795
39,0.317,147.23114,168.17178,1177.65442,250.69702,172.58429,1190.56616,248.71552,73.58331,1216.94373
40,0.325,147.74184,170.8486,1178.03357,249.73422,174.13861,1191.16736,249.79329,77.61357,1217.53516
41,0.333,146.7941,173.28456,1178.73132,249.88466,177.86392,1191.44458,249.36826,78.88945,1217.94995
42,0.342,146.4713,175.01157,1179.0199,249.53909,180.6134,1192.02026,249.80243,82.22372,1218.5592
43,0.35,145.81718,176.17851,1179.07275,249.20691,181.88922,1191.42615,250.4846,85.35184,1218.91528
44,0.358,146.31258,179.53848,1178.88391,249.11751,185.95584,1191.35095,250.73724,86.91987,1219.54785
45,0.367,146.21693,181.52025,1179.33618,248.68617,188.22173,1191.39294,250.78722,90.49494,1220.26721
46,0.375,145.61775,183.64439,1180.17175,248.17226,192.01108,1192.03162,250.99947,94.0368,1221.573
47,0.383,145.25716,185.3028,1179.99805,248.95377,193.23349,1191.46289,250.68158,96.83194,1221.31018
48,0.392,145.31963,187.8802,1179.71716,248.22537,197.38647,1192.14429,251.77676,100.148,1221.4989
49,0.4,145.06834,188.91422,1179.90503,247.73416,199.32451,1192.38245,252.17906,102.07758,1221.71338
50,0.408,144.29347,190.92665,1180.08911,247.35313,202.17084,1192.7373,252.8492,105.41992,1221.92529
51,0.417,144.19852,192.91943,1180.07886,248.16771,205.32112,1192.31848,252.71593,108.96944,1221.97949
52,0.425,143.86778,195.16676,1179.88293,246.60016,208.00729,1192.51404,253.40758,111.66611,1221.77319
53,0.433,144.5648,197.92479,1180.42993,247.42982,211.05775,1192.72131,254.26294,114.45117,1221.77295
54,0.442,144.21681,199.82513,1180.02917,246.69058,213.07304,1192.6698,254.59225,115.97409,1221.38953
55,0.45,143.17809,201.36406,1179.60022,246.87782,215.57985,1192.36475,254.73427,119.69691,1221.3999
56,0.458,143.63722,204.10397,1179.96277,245.95343,217.70752,1192.43262,254.60582,121.92984,1221.57495
57,0.467,143.85419,205.69415,1179.3783,245.94536,221.37439,1190.98584,255.50215,124.82865,1221.60522
58,0.475,144.27769,207.72493,1179.37012,246.31059,224.39229,1189.94055,255.44778,127.87753,1221.14502
59,0.483,144.14043,208.94934,1179.15967,246.43161,226.66959,1189.41418,256.23575,130.02472,1220.66504
60,0.492,143.81805,212.22661,1178.19812,245.55225,228.1071,1189.38098,257.38934,132.64513,1220.40991
61,0.5,143.82642,213.92888,1177.73779,245.13687,231.79636,1189.03455,257.42398,135.49544,1220.0166
62,0.508,143.46284,214.60037,1177.53662,244.53192,233.94447,1188.93103,257.68686,138.04941,1219.48828
63,0.517,143.45345,216.74661,1176.88416,244.96838,236.60654,1188.27124,258.21555,140.38417,1218.69568
64,0.525,143.54793,218.38783,1176.45349,244.5437,239.16496,1187.89575,259.43109,144.17491,1216.83655
65,0.533,143.16925,221.09938,1176.06274,244.97253,240.85725,1187.21582,259.31378,144.58899,1216.63916
66,0.542,142.9649,222.45468,1175.94446,244.59904,244.78355,1186.75537,259.52313,147.46584,1215.97632
67,0.55,142.99564,224.00784,1175.58948,243.81128,246.22246,1185.4082,260.61102,150.94391,1215.61377
68,0.558,143.34799,225.90887,1174.87451,243.78506,247.07141,1184.2262,260.66629,152.42906,1214.41699
69,0.567,142.68353,227.95764,1174.40674,244.30461,250.66585,1183.06836,261.40134,154.52002,1213.93762
70,0.575,143.05878,229.0526,1173.40662,243.82455,252.96828,1182.56628,261.71347,158.00754,1212.8053
71,0.583,143.19902,230.49393,1172.46851,244.62967,254.4782,1181.42346,262.19171,159.12283,1212.42249
72,0.592,143.04779,232.73404,1172.07178,243.77832,257.1572,1180.75085,262.03992,160.96095,1210.83459
73,0.6,143.33441,234.94624,1171.14197,243.81561,259.84006,1179.48486,263.6304,164.51767,1209.89221
74,0.608,142.87813,236.45479,1170.01831,243.61761,261.39307,1178.13354,263.53561,166.59805,1208.57446
75,0.617,143.01666,237.52664,1169.62219,243.57715,263.3291,1176.72937,263.93924,167.18867,1207.66321
76,0.625,143.1438,238.89517,1168.47009,244.07385,264.78043,1176.11816,264.85071,170.59302,1206.41113
77,0.633,143.40144,240.45909,1166.79529,243.43085,266.89584,1174.76416,265.23001,172.29167,1204.48755
78,0.642,143.14449,242.17892,1165.87305,243.30702,269.177,1172.72632,265.56961,174.76463,1202.90356
79,0.65,143.90808,244.15947,1165.09509,242.8201,270.34842,1171.13123,265.47031,175.48416,1201.90686
80,0.658,143.05193,245.37613,1164.26233,243.10957,272.61176,1170.35339,266.34146,179.4501,1200.39624
81,0.667,143.67921,246.01942,1162.24365,243.25423,275.08511,1168.85571,266.89209,180.87717,1198.74341
82,0.675,143.50693,247.8313,1161.18701,243.68083,277.59872,1167.09351,267.53992,182.06349,1196.9115
83,0.683,144.15057,249.61105,1160.17468,243.84178,278.08917,1165.19202,267.9577,184.61935,1195.08508
84,0.692,144.24818,251.50453,1159.00378,243.34703,279.96432,1163.47656,268.12259,186.18364,1194.31738
85,0.7,144.30397,252.14966,1157.90918,243.23106,281.84662,1162.18823,269.35025,188.9194,1191.80762
86,0.708,144.63507,252.51155,1156.48413,244.37396,283.75412,1160.13708,270.05981,189.31371,1189.98389
87,0.717,143.97096,254.27208,1154.66711,243.49281,284.46274,1158.33862,270.57889,192.06126,1187.73486
88,0.725,144.7621,255.50002,1153.47461,243.77191,286.82751,1156.38147,270.99042,193.60452,1187.0105
89,0.733,145.33302,257.47061,1152.19617,243.83163,288.04883,1154.69263,271.7912,195.15994,1184.41809
90,0.742,145.01257,258.96426,1150.78613,244.22093,289.5798,1152.46533,272.04755,196.95334,1182.11755
91,0.75,145.78465,259.44275,1148.7804,244.17487,290.99438,1151.06201,273.06039,198.58713,1179.82629
92,0.758,145.89833,260.34384,1147.49585,245.12596,292.52893,1149.25293,273.98087,199.937,1177.76428
93,0.767,146.69757,260.80908,1145.80676,244.35915,294.60962,1146.98914,274.70413,200.45155,1175.9707
94,0.775,146.80179,262.37051,1144.7179,244.82526,296.05811,1145.15442,274.61169,202.87192,1173.43262
95,0.783,146.66893,262.86526,1143.24316,245.26688,297.33505,1142.40613,276.44525,204.29286,1171.31799
96,0.792,147.41826,264.81424,1141.46973,245.85736,298.08258,1140.49341,276.29147,205.88748,1169.15369
97,0.8,147.45081,266.26483,1139.79822,246.18477,298.6817,1138.92114,277.37949,206.89912,1166.68896
98,0.808,148.48268,266.43106,1137.7666,245.93622,300.0217,1135.70117,277.75644,208.79636,1164.39551
99,0.817,148.39551,267.59506,1136.07739,246.58212,302.03668,1133.60229,278.84604,210.00804,1162.04492
100,0.825,148.76208,268.099,1134.4325,246.5345,303.18411,1132.30286,279.48688,211.5784,1159.4856
101,0.833,149.04849,269.57135,1132.05151,246.93318,305.32355,1128.60034,279.60352,212.33055,1157.13501
102,0.842,149.94168,270.22827,1130.26135,247.11075,305.13083,1126.82593,280.48969,214.34166,1154.63623
103,0.85,149.72696,271.54471,1128.77698,247.80936,307.18826,1124.14685,281.11816,214.7408,1151.93005
104,0.858,150.60834,272.20306,1126.7356,247.89738,307.58167,1121.77112,281.79434,216.15768,1149.11499
105,0.867,151.10834,272.4603,1124.71094,248.09099,308.77264,1118.66199,283.09348,218.0134,1146.27087
106,0.875,151.94441,272.77176,1122.08301,248.75752,309.66956,1116.08899,284.29904,218.68362,1143.37183
107,0.883,152.65581,273.81656,1120.40625,248.57428,310.45996,1114.09924,284.10281,219.4995,1140.64038
108,0.892,152.83008,273.77252,1119.10339,249.52933,311.60446,1110.94592,284.66092,219.35068,1137.65759
109,0.9,153.04718,274.50433,1116.41248,250.82771,312.03168,1108.13049,286.59448,222.18631,1135.0531
110,0.908,153.16949,275.12067,1114.41187,250.24759,312.47357,1105.55701,287.22839,222.3201,1132.13745
111,0.917,154.31783,276.38242,1112.15625,251.76964,313.26385,1102.99902,286.94662,223.07274,1129.30701
112,0.925,154.2554,277.52017,1110.87024,250.56854,314.45251,1099.90698,288.03082,223.51483,1127.30432
113,0.933,154.52878,278.39383,1108.13196,251.32216,314.62311,1096.73889,288.68994,224.28342,1123.11438
114,0.942,156.11354,276.77634,1105.62964,251.79956,315.07755,1094.38831,289.80737,225.11169,1120.97839
115,0.95,155.51291,278.24655,1103.9917,251.56346,315.73001,1090.53662,290.52457,225.89021,1117.86011
116,0.958,156.07266,278.97833,1101.38159,252.04597,315.67004,1088.55042,291.2027,226.30421,1114.2959
117,0.967,156.3605,278.44058,1099.66699,252.27242,316.67838,1085.02856,291.76471,226.33054,1111.81116
118,0.975,156.67625,279.48856,1097.39685,252.31969,316.53421,1083.10474,292.29535,226.98296,1108.03235
119,0.983,158.21599,278.23227,1094.96948,253.79266,317.60782,1078.72327,292.93329,227.16362,1104.82764
120,0.992,158.44618,278.62503,1092.79785,253.71411,316.92303,1077.18433,293.63763,227.46475,1101.98535
121,1,159.52921,279.60184,1090.86011,254.55122,317.61874,1073.20923,294.51422,227.45187,1098.41919
122,1.008,159.43028,279.92474,1087.65161,254.71729,317.06421,1070.9729,294.83044,227.87943,1095.61633
123,1.017,159.73825,279.93546,1085.75977,255.21313,317.14734,1067.00073,294.64322,228.21994,1092.81091
124,1.025,160.13365,279.90137,1082.72449,256.6658,318.48724,1064.23022,295.57022,228.43802,1089.1427
125,1.033,160.85164,280.73499,1080.64087,255.9637,318.01923,1060.91309,296.46262,227.81688,1086.26648
126,1.042,161.70477,279.87469,1077.7688,256.63477,318.10385,1057.83398,296.76422,228.19492,1082.5824
127,1.05,162.10098,280.21765,1075.91797,257.27905,318.29599,1055.06787,296.87476,229.12866,1079.24121
128,1.058,162.28679,279.77716,1073.0979,256.72177,317.45065,1051.60522,297.28125,228.62422,1076.198
129,1.067,162.74892,279.70486,1071.47607,256.71735,316.68118,1049.52698,297.70279,228.6629,1072.8031
130,1.075,162.88121,280.04297,1068.90002,257.164,316.8266,1046.04785,297.89792,228.66159,1069.7688
131,1.083,163.60579,278.83252,1066.36877,257.11932,316.27499,1043.19873,299.00516,228.22101,1066.15698
132,1.092,164.19063,278.94199,1064.17322,258.16901,315.48462,1040.10718,299.31421,227.42313,1063.05981
133,1.1,164.8588,278.97192,1061.14014,257.93686,314.62653,1036.672,300.078,226.94357,1059.77869
134,1.108,165.41025,278.07928,1059.21765,259.00577,315.62228,1033.89221,300.68033,226.78299,1056.38354
135,1.117,166.30156,277.93839,1056.29956,259.35336,314.89923,1029.90613,300.80338,226.30286,1053.96643
136,1.125,166.64133,277.74066,1054.4364,259.52859,313.98337,1027.01807,301.42834,225.54648,1050.53015
137,1.133,167.06293,277.04709,1051.81165,259.87894,314.664,1024.36267,302.23987,225.66948,1047.5321
138,1.142,167.69394,276.45444,1049.35657,260.40503,313.60101,1020.84711,302.39478,224.98386,1044.62317
139,1.15,167.87846,276.58047,1046.8938,261.18588,312.68301,1017.94904,302.57895,224.32414,1041.37878
140,1.158,168.44244,276.02768,1045.07532,261.9588,312.37311,1014.88513,303.83633,223.55553,1038.38672
141,1.167,168.71875,274.62894,1042.98596,262.25995,312.00824,1011.9682,303.9473,222.06233,1034.79626
142,1.175,169.3139,273.81854,1040.16736,262.69421,311.4043,1009.76202,303.90033,221.30486,1031.49304
143,1.183,169.95007,273.53949,1038.74084,262.25009,309.48773,1006.57568,304.63986,219.27113,1028.85925
144,1.192,170.49307,273.09079,1035.87402,262.78604,309.07977,1004.28027,304.72968,219.65572,1025.54639
145,1.2,171.22386,272.0748,1033.50122,262.86612,307.86292,1000.34302,305.65158,217.55179,1023.29865
146,1.208,170.97627,271.43826,1031.78052,263.48129,305.75827,997.57031,305.87012,216.9807,1020.21185
147,1.217,171.73636,270.99118,1029.78943,264.13156,305.56964,995.4187,306.11337,216.03151,1017.24628
148,1.225,172.44743,269.98083,1026.70398,264.79431,304.91754,992.24609,306.0571,214.93288,1014.68372
149,1.233,172.61664,269.05051,1025.1748,265.23969,304.20233,989.03149,306.1149,214.13722,1011.39716
150,1.242,173.21283,267.92007,1022.6405,264.62955,301.66357,986.41113,306.54404,212.42317,1008.89709
151,1.25,173.83501,265.75345,1020.69019,264.79025,300.23862,983.89343,306.93768,211.03908,1005.91681
152,1.258,174.92448,264.7894,1019.11346,264.90128,298.67786,981.0105,306.74402,208.94495,1003.32806
153,1.267,174.40977,263.72116,1017.14697,265.87238,298.21698,979.27679,306.93829,207.46785,1000.30457
154,1.275,174.81015,261.91324,1015.06744,266.24582,297.00198,975.91431,307.50177,206.14197,997.17816
155,1.283,175.57442,261.15515,1013.32544,266.91882,294.82574,974.56201,307.26901,204.15756,994.45642
156,1.292,175.28299,259.67963,1011.12238,266.87161,292.64407,971.28784,307.47479,202.94102,991.70685
157,1.3,176.65443,258.79993,1009.17084,267.49481,290.84995,969.52545,307.60504,200.21989,988.46747
158,1.308,177.27962,257.34088,1007.17548,267.44495,289.73407,967.53296,307.63324,198.07718,986.26892
159,1.317,177.29224,255.64246,1005.48602,267.99777,288.14673,964.6485,306.99915,196.58179,983.95923
160,1.325,177.73596,253.63332,1003.00439,268.38702,286.3703,962.89343,307.81631,195.43652,981.20074
161,1.333,178.06876,253.2222,1001.72455,268.13306,284.27408,960.27936,307.81232,192.98511,979.15637
162,1.342,178.09528,251.46669,999.53967,268.85562,282.8085,957.79572,307.6853,190.47926,976.56781
163,1.35,178.72031,250.51106,997.95538,269.09647,280.87146,956.12744,307.65018,188.39355,975.22083
164,1.358,178.9989,248.64415,996.41156,269.85944,277.5408,953.58649,307.42648,186.65201,972.70923
165,1.367,179.41855,247.2684,994.65253,269.87332,276.80035,951.258,307.30859,184.34955,969.80231
166,1.375,179.7943,245.90604,993.75195,269.90311,274.75516,949.98822,307.42657,183.02135,967.98553
167,1.383,180.091,244.19545,991.98865,271.09903,272.81808,947.64618,307.35605,180.37227,966.37988
168,1.392,180.47968,242.11147,990.4444,270.65576,270.36923,946.56897,307.25256,177.22647,963.99146
169,1.4,180.72961,240.64888,989.12634,271.25397,268.57584,944.64081,307.06937,175.38524,962.24146
170,1.408,181.11378,238.67598,987.45001,271.94482,266.45297,943.49609,307.30109,173.26314,959.56079
171,1.417,181.89793,236.73407,986.46051,271.82285,263.85577,941.28119,307.49799,170.73141,958.48407
172,1.425,181.70502,235.10054,985.24719,272.02585,260.73404,939.71381,306.83621,168.77834,956.72083
173,1.433,181.90103,233.44478,983.66846,271.7804,260.12424,938.34497,306.30457,165.92972,954.93463
174,1.442,181.99146,231.58888,982.51508,272.77368,257.29456,936.39587,307.45126,163.63507,954.51111
175,1.45,183.15266,230.07439,981.75012,272.99194,254.58885,935.9884,307.00305,161.95316,952.82593
176,1.458,183.51178,227.81955,980.41608,273.97754,253.10066,934.16376,306.53253,158.55931,950.84216
177,1.467,184.28613,226.19977,979.61963,274.0452,250.66571,933.01843,306.83615,156.35789,950.19208
178,1.475,183.9111,223.16051,978.80994,273.83633,247.45285,932.44891,306.38739,154.58153,949.29755
179,1.483,184.21205,222.26338,978.26038,274.35178,244.46535,931.05884,306.2037,151.1315,947.6203
180,1.492,184.56151,220.0631,977.13293,275.01028,243.37688,929.90814,306.34579,147.73607,947.06311
181,1.5,184.99352,217.74559,976.1698,275.3244,241.47015,929.34778,305.96603,145.70479,946.33472
182,1.508,185.04646,216.55568,975.36523,276.25711,237.66989,928.58142,305.96268,143.21753,944.55072
183,1.517,185.76656,214.03175,974.78461,275.37198,235.3773,927.83142,306.04764,139.65356,943.62781
184,1.525,185.81836,211.16228,974.19366,276.40189,232.77733,927.48657,305.41086,138.368,943.09015
185,1.533,186.46609,210.20435,974.00977,276.94461,229.64018,926.38208,305.12885,135.93286,942.09998
186,1.542,186.65315,207.69225,973.27618,277.54526,227.95042,926.22656,305.17453,131.75954,942.0481
187,1.55,186.8898,206.45032,972.98956,277.89536,225.48495,925.03668,305.10043,129.42125,941.46619
188,1.558,186.80043,203.57773,972.94403,277.23145,223.28244,924.57861,305.02213,126.59847,941.08923
189,1.567,187.47176,201.18649,972.49109,277.64417,218.84903,924.04266,304.83566,123.719,941.01611
190,1.575,187.69991,199.50896,972.20398,278.30704,216.995,923.37231,304.57263,121.0761,940.41602
191,1.583,188.24767,197.29065,972.20227,279.28952,214.71716,923.78876,304.3302,117.87405,940.26965
192,1.592,188.24043,195.21999,972.1377,279.38489,211.58752,923.76996,304.02112,114.92704,940.02332
193,1.6,188.61714,193.20703,971.98138,279.7171,207.87273,923.90204,303.71091,112.02768,939.48273
194,1.608,187.93752,191.0367,971.59619,279.58029,206.77214,923.79065,303.66449,109.2462,939.71075
195,1.617,188.80507,189.08789,971.2478,280.33939,204.29536,923.89252,302.84467,105.61362,939.47418
196,1.625,189.23068,186.31178,971.59821,280.18738,201.09412,924.0705,302.3606,103.19404,939.08771
197,1.633,189.48502,184.24277,971.4776,280.19608,197.96487,924.05017,302.07446,100.4301,939.35938
198,1.642,189.24841,181.61601,971.61249,281.03696,196.45284,923.90271,301.66406,98.42084,939.47809
