Frame#,Time,R.Forearm.x,R.Forearm.y,R.Forearm.z,R.Ulna.x,R.Ulna.y,R.Ulna.z,R.Radius.x,R.Radius.y,R.Radius.z
1,0,486.85217,-230.88708,1562.50061,591.00281,-260.86102,1538.81372,625.51923,-169.63564,1577.84094
2,0.008,486.77969,-230.55289,1562.3916,591.00281,-260.86102,1538.81372,625.76318,-169.00107,1577.6571
3,0.017,486.88232,-230.7771,1562.30701,591.4079,-261.10583,1538.59338,625.89453,-168.93102,1577.55957
4,0.025,486.88232,-230.7771,1562.30701,592.15765,-261.82181,1538.64575,625.85272,-169.20027,1577.31262
5,0.033,486.81509,-231.00124,1562.04456,592.27057,-261.79309,1538.36768,626.18732,-169.34352,1577.08167
6,0.042,486.91501,-230.69983,1561.90552,592.27057,-261.79309,1538.36768,626.8208,-168.78708,1576.68921
7,0.05,486.91501,-230.69983,1561.90552,592.27057,-261.79309,1538.36768,626.83484,-168.52473,1576.57019
8,0.058,486.91501,-230.69983,1561.90552,592.45081,-261.58185,1538.33398,626.86121,-168.64882,1576.41089
9,0.067,486.91501,-230.69983,1561.90552,591.70099,-260.86575,1538.28162,626.83484,-168.52473,1576.57019
10,0.075,486.91501,-230.69983,1561.90552,591.79163,-260.92709,1538.14844,627.12927,-168.68346,1576.06653
11,0.083,486.91501,-230.69983,1561.90552,591.94745,-260.59064,1537.65991,626.92242,-168.23228,1575.56116
12,0.092,487.09534,-230.96222,1561.80908,591.94745,-260.59064,1537.65991,626.9093,-168.09279,1575.39209
13,0.1,487.37814,-230.91507,1561.76526,591.94745,-260.59064,1537.65991,626.9093,-168.09279,1575.39209
14,0.108,487.05359,-230.81372,1561.69788,591.94745,-260.59064,1537.65991,626.9093,-168.09279,1575.39209
15,0.117,487.53058,-230.57175,1560.74036,591.94745,-260.59064,1537.65991,626.9093,-168.09279,1575.39209
16,0.125,487.72977,-230.52921,1560.65674,591.94745,-260.59064,1537.65991,626.9093,-168.09279,1575.39209
17,0.133,487.72977,-230.52921,1560.65674,591.94745,-260.59064,1537.65991,626.9093,-168.09279,1575.39209
18,0.142,487.72977,-230.52921,1560.65674,592.2428,-260.38855,1537.39954,626.9093,-168.09279,1575.39209
19,0.15,487.72977,-230.52921,1560.65674,592.2428,-260.38855,1537.39954,626.9093,-168.09279,1575.39209
20,0.158,487.53058,-230.57175,1560.74036,592.2428,-260.38855,1537.39954,627.24377,-168.23569,1575.16101
21,0.167,487.85437,-230.44749,1560.71533,592.2428,-260.38855,1537.39954,626.71326,-167.69064,1575.31665
22,0.175,487.50702,-230.10579,1559.99219,592.03442,-260.18378,1537.34644,627.24377,-168.23569,1575.16101
23,0.183,487.77008,-230.19817,1560.36145,592.2428,-260.38855,1537.39954,627.24377,-168.23569,1575.16101
24,0.192,487.67374,-230.09195,1560.24988,592.03442,-260.18378,1537.34644,627.08521,-167.58803,1574.58679
25,0.2,487.50702,-230.10579,1559.99219,591.87958,-259.9852,1537.38428,627.12573,-168.05148,1574.77759
26,0.208,487.91248,-230.14201,1559.95923,592.03442,-260.18378,1537.34644,627.00903,-167.70427,1574.93164
27,0.217,487.50702,-230.10579,1559.99219,591.87958,-259.9852,1537.38428,627.04663,-167.45889,1574.43286
28,0.225,488.03818,-230.06902,1560.01709,591.88739,-259.50333,1537.35364,627.04663,-167.45889,1574.43286
29,0.233,487.89029,-230.03087,1560.2832,592.03442,-260.18378,1537.34644,627.04663,-167.45889,1574.43286
30,0.242,488.2049,-230.05521,1560.27478,592.03442,-260.18378,1537.34644,626.96851,-167.24089,1574.74084
31,0.25,488.2049,-230.05521,1560.27478,591.88739,-259.50333,1537.35364,627.04663,-167.45889,1574.43286
32,0.258,488.03818,-230.06902,1560.01709,591.88739,-259.50333,1537.35364,627.01642,-167.13675,1574.60974
33,0.267,488.1994,-229.96092,1560.13867,591.88739,-259.50333,1537.35364,626.96851,-167.24089,1574.74084
34,0.275,488.03268,-229.97476,1559.88098,591.88739,-259.50333,1537.35364,626.96851,-167.24089,1574.74084
35,0.283,488.03268,-229.97476,1559.88098,591.88739,-259.50333,1537.35364,627.09454,-167.35478,1574.30164
36,0.292,488.03268,-229.97476,1559.88098,591.88739,-259.50333,1537.35364,626.96851,-167.24089,1574.74084
37,0.3,487.7384,-229.44435,1559.69104,591.88739,-259.50333,1537.35364,627.01642,-167.13675,1574.60974
38,0.308,487.87714,-229.67235,1559.6687,592.02405,-259.40671,1537.22485,627.01642,-167.13675,1574.60974
39,0.317,487.86481,-229.65173,1559.67114,592.02405,-259.40671,1537.22485,627.01642,-167.13675,1574.60974
40,0.325,487.90884,-229.64571,1559.54346,592.02405,-259.40671,1537.22485,626.841,-165.39247,1574.17542
41,0.333,487.90884,-229.64571,1559.54346,592.02405,-259.40671,1537.22485,627.00897,-167.24532,1574.10986
42,0.342,488.09503,-229.61185,1559.52637,592.02405,-259.40671,1537.22485,626.97369,-166.73854,1574.21082
43,0.35,488.29639,-229.65564,1559.229,592.02405,-259.40671,1537.22485,627.05151,-166.45857,1573.75317
44,0.358,488.38046,-229.74113,1559.34302,592.02405,-259.40671,1537.22485,627.05151,-166.45857,1573.75317
45,0.367,488.37198,-229.59593,1559.13379,592.42719,-258.88391,1537.02942,627.05151,-166.45857,1573.75317
46,0.375,488.37198,-229.59593,1559.13379,592.42719,-258.88391,1537.02942,627.05151,-166.45857,1573.75317
47,0.383,488.64151,-229.62277,1559.00977,592.5517,-257.90765,1535.94617,627.05151,-166.45857,1573.75317
48,0.392,488.64151,-229.62277,1559.00977,592.5517,-257.90765,1535.94617,627.05597,-165.98109,1573.46948
49,0.4,488.52298,-229.36406,1558.71936,592.62311,-257.71786,1535.76978,627.05719,-165.24802,1573.526
50,0.408,488.4606,-229.57001,1558.51465,593.08331,-257.44778,1535.03174,627.48834,-165.09355,1573.35889
51,0.417,488.39249,-229.21225,1558.25977,593.02026,-257.45178,1534.69287,627.48834,-165.09355,1573.35889
52,0.425,488.37115,-229.03748,1558.10986,592.96234,-257.53101,1534.58362,627.48834,-165.09355,1573.35889
53,0.433,488.38104,-229.12961,1557.97876,592.68018,-257.38898,1534.2406,627.48834,-165.09355,1573.35889
54,0.442,488.38104,-229.12961,1557.97876,592.57672,-257.36081,1533.92786,627.30792,-164.73331,1573.26709
55,0.45,488.20337,-228.77827,1557.94104,592.57672,-257.36081,1533.92786,627.30792,-164.73331,1573.26709
56,0.458,488.20337,-228.77827,1557.94104,592.64423,-257.4303,1533.78979,627.43915,-164.6631,1573.1698
57,0.467,488.57556,-228.83344,1557.74512,592.78101,-257.33356,1533.66101,627.25024,-164.28812,1573.29382
58,0.475,488.57556,-228.83344,1557.74512,592.5661,-256.88791,1533.47217,627.27997,-164.06708,1573.02148
59,0.483,488.5209,-228.74623,1557.62537,592.5661,-256.88791,1533.47217,626.23212,-164.72066,1572.36194
60,0.492,488.39792,-228.4821,1557.7074,592.5661,-256.88791,1533.47217,626.82202,-164.78625,1572.20813
61,0.5,488.5209,-228.74623,1557.62537,592.5661,-256.88791,1533.47217,627.88403,-163.87056,1572.74878
62,0.508,488.34326,-228.39491,1557.58777,592.5661,-256.88791,1533.47217,627.88403,-163.87056,1572.74878
63,0.517,488.34326,-228.39491,1557.58777,592.5661,-256.88791,1533.47217,627.88403,-163.87056,1572.74878
64,0.525,488.34326,-228.39491,1557.58777,592.5661,-256.88791,1533.47217,627.88403,-163.87056,1572.74878
65,0.533,488.34326,-228.39491,1557.58777,592.64404,-256.70779,1533.27637,627.54492,-164.26816,1572.27075
66,0.542,488.34326,-228.39491,1557.58777,592.68738,-256.37662,1533.16321,626.96277,-164.48877,1572.03467
67,0.55,488.34326,-228.39491,1557.58777,592.92542,-256.38095,1533.07117,627.67139,-164.23276,1572.21619
68,0.558,488.34326,-228.39491,1557.58777,592.92542,-256.38095,1533.07117,627.78418,-163.85439,1572.04309
69,0.567,488.5209,-228.74623,1557.62537,592.68738,-256.37662,1533.16321,627.67139,-164.23276,1572.21619
70,0.575,488.5209,-228.74623,1557.62537,592.92542,-256.38095,1533.07117,627.67139,-164.23276,1572.21619
71,0.583,488.5209,-228.74623,1557.62537,592.88208,-256.71213,1533.18445,627.67139,-164.23276,1572.21619
72,0.592,488.5209,-228.74623,1557.62537,592.92542,-256.38095,1533.07117,627.67139,-164.23276,1572.21619
73,0.6,488.5209,-228.74623,1557.62537,592.92542,-256.38095,1533.07117,627.67139,-164.23276,1572.21619
74,0.608,488.57556,-228.83344,1557.74512,592.88208,-256.71213,1533.18445,626.96277,-164.48877,1572.03467
75,0.617,488.5209,-228.74623,1557.62537,592.92542,-256.38095,1533.07117,627.67139,-164.23276,1572.21619
76,0.625,488.34326,-228.39491,1557.58777,592.57428,-256.40567,1533.44128,627.67139,-164.23276,1572.21619
77,0.633,488.5209,-228.74623,1557.62537,592.5661,-256.88791,1533.47217,628.0105,-163.83516,1572.69421
78,0.642,488.39792,-228.4821,1557.7074,592.5661,-256.88791,1533.47217,628.0105,-163.83516,1572.69421
79,0.65,488.50336,-228.40279,1557.78113,592.5661,-256.88791,1533.47217,628.19025,-163.83385,1572.67639
80,0.658,488.50336,-228.40279,1557.78113,592.5661,-256.88791,1533.47217,628.1759,-164.09593,1572.79517
81,0.667,488.681,-228.75414,1557.81873,592.5661,-256.88791,1533.47217,627.99609,-164.09726,1572.81311
82,0.675,488.50336,-228.40279,1557.78113,592.5661,-256.88791,1533.47217,628.2774,-164.24683,1572.97034
83,0.683,488.50336,-228.40279,1557.78113,592.78101,-257.33356,1533.66101,628.2774,-164.24683,1572.97034
84,0.692,488.681,-228.75414,1557.81873,592.78101,-257.33356,1533.66101,628.24225,-164.53127,1572.92249
85,0.7,488.681,-228.75414,1557.81873,592.78101,-257.33356,1533.66101,628.45801,-164.60727,1573.06213
86,0.708,488.681,-228.75414,1557.81873,592.78101,-257.33356,1533.66101,628.1474,-164.28006,1573.02234
87,0.717,488.681,-228.75414,1557.81873,592.78101,-257.33356,1533.66101,628.32794,-164.64049,1573.11426
88,0.725,488.681,-228.75414,1557.81873,593.01892,-257.33786,1533.56909,628.24225,-164.53127,1572.92249
89,0.733,488.681,-228.75414,1557.81873,593.01892,-257.33786,1533.56909,628.37231,-164.49803,1572.87036
90,0.742,488.681,-228.75414,1557.81873,593.01892,-257.33786,1533.56909,628.37231,-164.49803,1572.87036
91,0.75,488.681,-228.75414,1557.81873,593.01892,-257.33786,1533.56909,628.37231,-164.49803,1572.87036
92,0.758,488.681,-228.75414,1557.81873,592.78101,-257.33356,1533.66101,628.43011,-164.94313,1572.84338
93,0.767,488.681,-228.75414,1557.81873,593.01892,-257.33786,1533.56909,628.51581,-165.05234,1573.03528
94,0.775,488.681,-228.75414,1557.81873,593.01892,-257.33786,1533.56909,628.53125,-165.32271,1572.64856
95,0.783,488.681,-228.75414,1557.81873,593.01892,-257.33786,1533.56909,628.44556,-165.21341,1572.45667
96,0.792,488.681,-228.75414,1557.81873,593.01892,-257.33786,1533.56909,628.44556,-165.21341,1572.45667
97,0.8,488.57556,-228.83344,1557.74512,593.01892,-257.33786,1533.56909,628.44556,-165.21341,1572.45667
98,0.808,488.57556,-228.83344,1557.74512,593.01892,-257.33786,1533.56909,628.44556,-165.21341,1572.45667
99,0.817,488.67664,-228.89029,1557.63171,593.11163,-257.62479,1533.2699,628.09015,-166.07358,1572.30896
100,0.825,488.66956,-229.07147,1557.35205,593.20337,-257.5354,1532.92041,628.46008,-166.21786,1572.01404
101,0.833,488.66956,-229.07147,1557.35205,593.14038,-257.97046,1532.98279,627.92188,-165.54022,1572.1272
102,0.842,488.7706,-229.12846,1557.23877,593.21844,-257.79031,1532.78687,627.92096,-166.2731,1572.07068
103,0.85,489.05984,-229.15938,1556.95483,593.21844,-257.79031,1532.78687,627.92096,-166.2731,1572.07068
104,0.858,489.05984,-229.15938,1556.95483,593.38965,-258.03424,1532.70581,628.00299,-166.52977,1571.89026
105,0.867,489.05984,-229.15938,1556.95483,593.48608,-257.98251,1532.97034,628.00299,-166.52977,1571.89026
106,0.875,489.05984,-229.15938,1556.95483,593.21844,-257.79031,1532.78687,628.11578,-166.15128,1571.71704
107,0.883,489.05984,-229.15938,1556.95483,593.18097,-257.82959,1532.65283,628.61304,-166.36546,1571.41296
108,0.892,489.05984,-229.15938,1556.95483,593.18097,-257.82959,1532.65283,628.73285,-165.99142,1571.52637
109,0.9,489.05984,-229.15938,1556.95483,593.38965,-258.03424,1532.70581,628.73285,-165.99142,1571.52637
110,0.908,489.05984,-229.15938,1556.95483,593.38965,-258.03424,1532.70581,628.69086,-166.26094,1571.27893
111,0.917,489.13953,-229.34183,1556.8988,593.06781,-257.9274,1532.53308,628.15161,-166.31621,1571.33557
112,0.925,489.13953,-229.34183,1556.8988,593.31995,-257.8009,1532.47266,628.69086,-166.26094,1571.27893
113,0.933,489.29071,-229.30124,1556.82275,593.34686,-257.56992,1532.37878,628.69086,-166.26094,1571.27893
114,0.942,489.29071,-229.30124,1556.82275,593.5556,-257.7746,1532.43188,628.50238,-166.25366,1571.28711
115,0.95,489.40805,-229.43367,1556.73853,593.5556,-257.7746,1532.43188,628.69086,-166.26094,1571.27893
116,0.958,489.40805,-229.43367,1556.73853,593.58771,-258.08621,1532.35974,629.23022,-166.20665,1571.22278
117,0.967,489.37799,-229.67766,1556.6488,593.66083,-258.22736,1532.18469,629.23022,-166.20665,1571.22278
118,0.975,489.37799,-229.67766,1556.6488,593.52252,-258.01538,1532.01428,629.23022,-166.20665,1571.22278
119,0.983,489.47772,-229.41559,1556.52185,593.81561,-258.42633,1532.14709,629.23016,-165.70917,1571.07324
120,0.992,489.27261,-229.75711,1556.5752,594.1012,-258.33603,1531.91431,629.38159,-166.28807,1571.30823
121,1,489.37799,-229.67766,1556.6488,594.1012,-258.33603,1531.91431,629.23022,-166.20665,1571.22278
122,1.008,489.37234,-229.49504,1556.44824,594.1012,-258.33603,1531.91431,629.23022,-166.20665,1571.22278
123,1.017,489.5264,-229.68431,1556.58887,594.01306,-258.28427,1531.84802,629.23022,-166.20665,1571.22278
124,1.025,489.67319,-229.41722,1556.45276,594.1012,-258.33603,1531.91431,629.23022,-166.20665,1571.22278
125,1.033,489.67319,-229.41722,1556.45276,594.1012,-258.33603,1531.91431,629.23022,-166.20665,1571.22278
126,1.042,489.67319,-229.41722,1556.45276,594.1012,-258.33603,1531.91431,629.23022,-166.20665,1571.22278
127,1.05,489.54141,-229.47256,1556.42139,593.94141,-258.47391,1532.02441,629.23022,-166.20665,1571.22278
128,1.058,489.5264,-229.68431,1556.58887,594.1012,-258.33603,1531.91431,629.23022,-166.20665,1571.22278
129,1.067,489.5264,-229.68431,1556.58887,594.1012,-258.33603,1531.91431,629.23022,-166.20665,1571.22278
130,1.075,489.56915,-229.79863,1556.36572,594.1012,-258.33603,1531.91431,629.23022,-166.20665,1571.22278
131,1.083,489.68149,-229.47922,1556.36438,594.17285,-258.14636,1531.73792,629.23022,-166.20665,1571.22278
132,1.092,489.5817,-229.7413,1556.49146,594.17285,-258.14636,1531.73792,629.23022,-166.20665,1571.22278
133,1.1,489.64771,-229.62697,1556.0697,594.17285,-258.14636,1531.73792,629.23022,-166.20665,1571.22278
134,1.108,490.35297,-229.59167,1556.06812,594.85095,-259.05267,1531.96753,629.23022,-166.20665,1571.22278
135,1.117,490.06741,-229.97539,1556.09021,594.92267,-258.86316,1531.79126,629.23022,-166.20665,1571.22278
136,1.125,490.16714,-229.71333,1555.96326,595.14978,-258.84253,1531.74414,629.57019,-166.31224,1571.32092
137,1.133,490.29099,-229.77361,1556.03589,595.07813,-259.03204,1531.92041,629.57019,-166.31224,1571.32092
138,1.142,490.16714,-229.71333,1555.96326,595.29449,-259.23767,1531.98657,629.3905,-166.22214,1571.22729
139,1.15,490.15457,-229.77087,1555.83765,595.29449,-259.23767,1531.98657,629.57019,-166.31224,1571.32092
140,1.158,490.29099,-229.77361,1556.03589,595.50043,-259.09009,1531.69397,629.3905,-166.22214,1571.22729
141,1.167,490.27841,-229.83115,1555.91028,595.50043,-259.09009,1531.69397,629.57019,-166.31224,1571.32092
142,1.175,490.29099,-229.77361,1556.03589,595.50043,-259.09009,1531.69397,629.57019,-166.31224,1571.32092
143,1.183,490.40982,-230.02812,1556.08289,595.70551,-259.0274,1531.72363,629.57019,-166.31224,1571.32092
144,1.192,490.60925,-230.06516,1555.91333,595.70551,-259.0274,1531.72363,629.78223,-166.58597,1570.92029
145,1.2,490.60925,-230.06516,1555.91333,595.61884,-259.11185,1531.61633,629.78223,-166.58597,1570.92029
146,1.208,490.79376,-230.02534,1555.82935,595.61884,-259.11185,1531.61633,629.78223,-166.58597,1570.92029
147,1.217,491.04355,-230.34746,1555.51514,595.63385,-259.36636,1531.48291,629.78467,-166.52974,1570.50842
148,1.225,491.04355,-230.34746,1555.51514,595.63385,-259.36636,1531.48291,629.78467,-166.52974,1570.50842
149,1.233,491.04355,-230.34746,1555.51514,596.38275,-260.08435,1531.53638,629.85333,-167.2618,1570.30847
150,1.242,491.04355,-230.34746,1555.51514,596.38275,-260.08435,1531.53638,629.78467,-166.52974,1570.50842
151,1.25,491.04355,-230.34746,1555.51514,596.38275,-260.08435,1531.53638,629.90356,-167.12593,1570.13879
152,1.258,491.04355,-230.34746,1555.51514,596.38275,-260.08435,1531.53638,629.65149,-166.59167,1570.08472
153,1.267,491.04355,-230.34746,1555.51514,596.38275,-260.08435,1531.53638,630.10999,-167.30432,1569.86902
154,1.275,491.04355,-230.34746,1555.51514,596.18347,-259.89386,1531.21411,629.85779,-166.76999,1569.81494
155,1.283,491.1232,-230.53021,1555.45911,596.21692,-259.96951,1531.07849,630.10999,-167.30432,1569.86902
156,1.292,491.1232,-230.53021,1555.45911,596.21692,-259.96951,1531.07849,630.10999,-167.30432,1569.86902
157,1.3,491.1232,-230.53021,1555.45911,596.21692,-259.96951,1531.07849,629.94067,-167.50354,1569.63037
158,1.308,491.1232,-230.53021,1555.45911,596.414,-259.98117,1530.9895,629.76312,-167.7937,1569.245
159,1.317,491.00058,-230.46013,1555.37219,596.414,-259.98117,1530.9895,629.78955,-167.91914,1569.08557
160,1.325,491.1232,-230.53021,1555.45911,596.20264,-260.12869,1530.9082,629.35651,-167.66646,1568.43176
161,1.333,491.1926,-230.72185,1555.2937,596.28223,-260.47165,1530.76343,629.383,-167.79172,1568.27222
162,1.342,491.0289,-230.54065,1555.25183,596.28223,-260.47165,1530.76343,629.46948,-167.71274,1568.00745
163,1.35,491.55737,-230.80487,1555.11987,596.37146,-260.28769,1530.61938,629.3028,-167.72406,1567.69275
164,1.358,491.43893,-230.71423,1555.01709,596.37146,-260.28769,1530.61938,630.01135,-167.46945,1567.87476
165,1.367,491.66125,-230.71605,1555.19531,596.37146,-260.28769,1530.61938,629.84204,-167.66949,1567.63635
166,1.375,491.43893,-230.71423,1555.01709,596.01868,-259.48474,1530.07544,629.82727,-167.54175,1567.48206
167,1.383,491.55737,-230.80487,1555.11987,596.55219,-259.34579,1530.02649,629.74005,-167.53629,1567.48291
168,1.392,491.55737,-230.80487,1555.11987,596.85638,-260.18027,1530.46741,629.84204,-167.66949,1567.63635
169,1.4,491.55737,-230.80487,1555.11987,596.85638,-260.18027,1530.46741,629.73425,-167.42848,1567.35242
170,1.408,491.54282,-230.62541,1555.09241,597.07227,-259.06381,1529.48999,629.82727,-167.54175,1567.48206
171,1.417,491.43893,-230.71423,1555.01709,597.07227,-259.06381,1529.48999,629.91431,-167.46292,1567.21741
172,1.425,491.49295,-230.3774,1554.77112,597.07227,-259.06381,1529.48999,630.05328,-167.38089,1567.10571
173,1.433,491.69257,-230.29866,1554.8468,597.07227,-259.06381,1529.48999,629.94092,-167.26505,1566.97449
174,1.442,491.64267,-230.20012,1554.72473,597.07227,-259.06381,1529.48999,629.94092,-167.26505,1566.97449
175,1.45,491.82065,-230.65665,1554.64526,597.29236,-258.87921,1529.31482,629.8869,-166.40297,1566.73901
176,1.458,491.64722,-230.40776,1554.99573,597.5423,-258.62646,1529.16956,629.8869,-166.40297,1566.73901
177,1.467,491.7417,-230.29314,1554.83289,597.16022,-258.39951,1528.97656,629.94135,-166.07402,1566.89722
178,1.475,491.70908,-230.38191,1554.95349,598.25757,-258.84982,1528.70239,629.94135,-166.07402,1566.89722
179,1.483,491.76566,-230.4984,1555.09851,598.25757,-258.84982,1528.70239,629.82904,-165.95827,1566.76611
180,1.492,491.89001,-230.34261,1554.87769,598.25757,-258.84982,1528.70239,629.82904,-165.95827,1566.76611
181,1.5,491.70908,-230.38191,1554.95349,598.25757,-258.84982,1528.70239,629.82904,-165.95827,1566.76611
182,1.508,491.89001,-230.34261,1554.87769,598.25757,-258.84982,1528.70239,629.94135,-166.07402,1566.89722
183,1.517,491.79611,-230.39105,1554.95374,598.25757,-258.84982,1528.70239,629.82904,-165.95827,1566.76611
184,1.525,491.96469,-230.45515,1555.01514,597.31122,-258.35852,1529.22607,629.75671,-165.77533,1566.91211
185,1.533,491.70908,-230.38191,1554.95349,597.5423,-258.62646,1529.16956,629.75671,-165.77533,1566.91211
186,1.542,491.86508,-229.93465,1554.8252,598.11035,-258.65164,1528.75281,630.03839,-165.69089,1567.28174
187,1.55,491.7417,-230.29314,1554.83289,598.25757,-258.84982,1528.70239,630.03839,-165.69089,1567.28174
188,1.558,491.86508,-229.93465,1554.8252,597.5423,-258.62646,1529.16956,630.03839,-165.69089,1567.28174
189,1.567,492.08804,-230.09668,1555.00745,597.5423,-258.62646,1529.16956,630.03839,-165.69089,1567.28174
190,1.575,491.94958,-230.58148,1555.18298,597.5423,-258.62646,1529.16956,630.06854,-165.82318,1567.44019
