Frame#,Time,R.Forearm.x,R.Forearm.y,R.Forearm.z,R.Ulna.x,R.Ulna.y,R.Ulna.z,R.Radius.x,R.Radius.y,R.Radius.z
1,0,-246.10121,-245.282,919.34692,-178.88477,-234.05838,871.31012,-176.4949,-156.34044,933.70135
2,0.008,-243.93777,-244.9185,919.40778,-176.83244,-234.76436,871.33661,-174.03372,-154.34898,930.66766
3,0.017,-241.90283,-244.76183,918.27466,-174.84015,-235.05959,869.11328,-172.5556,-154.76918,926.91016
4,0.025,-239.29387,-245.31381,917.28571,-173.2263,-234.52654,865.5188,-168.76633,-153.15053,922.34167
5,0.033,-236.5719,-244.26631,915.54846,-170.98302,-237.27505,861.992,-166.65211,-154.60826,916.45197
6,0.042,-233.07239,-245.21202,912.4538,-170.32225,-238.16542,857.62866,-162.33826,-154.7688,910.58142
7,0.05,-230.24677,-246.52931,910.29022,-169.26482,-239.34146,852.30884,-160.1687,-154.50391,904.50708
8,0.058,-228.16086,-245.45471,906.16302,-168.00572,-240.53236,846.06287,-157.25601,-155.97771,897.20142
9,0.067,-225.83966,-247.62303,902.94165,-168.38892,-241.11624,839.92639,-155.3358,-157.49179,891.11481
10,0.075,-224.36362,-247.55966,899.33582,-170.34377,-242.21097,834.93085,-155.49223,-158.16379,886.60925
11,0.083,-224.22656,-246.82262,896.64069,-171.22388,-241.84654,832.26129,-155.79242,-157.30251,884.11456
12,0.092,-225.77711,-246.22859,895.62903,-174.13628,-242.65399,831.51123,-157.17166,-157.661,882.65204
13,0.1,-228.95564,-245.18175,895.7204,-177.03566,-241.3194,831.1875,-162.66455,-155.24895,880.93317
14,0.108,-232.96315,-245.91856,896.20172,-179.24179,-242.37273,833.29321,-165.22101,-157.97777,884.06769
15,0.117,-237.48952,-245.00473,898.27588,-181.21811,-240.60037,834.70209,-168.16971,-157.45848,887.52643
16,0.125,-240.5777,-245.12804,899.92938,-184.0462,-241.12833,838.53455,-169.4545,-158.67827,891.74316
17,0.133,-244.17531,-245.31035,902.27899,-184.82187,-239.9919,841.50549,-171.99078,-159.2942,896.75989
18,0.142,-245.94643,-245.61771,903.90143,-186.25961,-238.95816,845.08447,-172.61476,-160.01445,903.31451
19,0.15,-247.37711,-245.6543,906.00482,-186.28674,-237.6445,847.88977,-172.96248,-159.85234,909.84729
20,0.158,-248.69704,-244.75627,908.35016,-186.31097,-236.71819,851.65454,-172.30716,-161.43608,916.28174
21,0.167,-248.43538,-245.31688,910.07733,-185.65147,-234.8186,855.50757,-172.54271,-162.08156,922.15405
22,0.175,-248.9306,-244.70705,911.84808,-183.98451,-233.91109,859.28204,-173.89082,-161.96207,926.57495
23,0.183,-248.5578,-244.36865,914.38855,-185.13356,-230.47957,861.89209,-175.19638,-161.25372,933.08319
24,0.192,-248.39635,-244.83904,917.0144,-183.40309,-231.03616,865.62604,-174.61331,-161.52437,936.51263
25,0.2,-247.03723,-245.02025,918.11578,-181.01732,-232.28323,869.17261,-176.31949,-159.56847,937.85565
26,0.208,-246.06487,-245.0097,919.00909,-178.72945,-232.13029,871.2572,-174.84882,-160.34839,940.23962
27,0.217,-245.29024,-244.7679,920.64691,-176.87613,-232.34222,870.79523,-172.96458,-159.68785,939.80359
28,0.225,-244.99947,-244.90373,920.6875,-176.28032,-232.90889,872.07935,-173.38596,-158.38788,936.96466
29,0.233,-242.96588,-245.21539,921.10645,-174.96687,-234.84967,871.90161,-170.8804,-158.90518,934.66174
30,0.242,-241.78409,-246.38023,920.29462,-174.47795,-236.11858,870.08893,-169.8506,-159.46025,931.88245
31,0.25,-240.66241,-247.08711,918.73773,-173.92468,-237.9626,868.07648,-167.50374,-159.25914,926.77386
32,0.258,-239.05019,-246.55014,916.78607,-172.47989,-239.5979,863.85535,-165.44124,-158.35329,920.12543
33,0.267,-237.87688,-247.07022,914.0976,-172.49799,-239.96553,859.34308,-162.28072,-158.78012,914.24414
34,0.275,-235.41814,-247.83568,910.09973,-172.03207,-242.3745,853.53198,-160.98239,-158.73981,906.84912
35,0.283,-234.14824,-247.20137,907.45374,-173.80457,-243.77377,847.38306,-159.39563,-158.79358,899.72607
36,0.292,-232.95007,-248.5065,903.70013,-174.01805,-244.93349,841.76782,-158.42523,-159.29314,893.93701
37,0.3,-232.01141,-247.51031,899.95319,-174.76837,-245.68674,837.52692,-159.94264,-158.22859,886.30536
38,0.308,-232.00891,-246.39854,897.63446,-177.13843,-244.75444,834.89801,-160.97392,-158.1514,885.10785
39,0.317,-233.40358,-246.11458,895.91052,-180.5118,-243.63419,834.32129,-163.59987,-157.20322,883.45593
40,0.325,-236.10991,-245.15608,896.00616,-181.98564,-243.08353,833.93591,-165.63321,-158.32225,884.46179
41,0.333,-239.22369,-245.034,897.65015,-184.40323,-241.82019,834.85046,-167.24426,-158.25626,887.35645
42,0.342,-241.85942,-244.43106,899.07898,-186.46399,-240.91426,836.38251,-168.1033,-158.59612,891.57739
43,0.35,-244.31703,-244.6337,900.9126,-187.42255,-239.23553,838.95294,-170.37909,-160.13426,896.66711
44,0.358,-246.2637,-244.83273,903.50995,-188.15912,-236.90298,841.58813,-172.23117,-159.95753,903.9267
45,0.367,-247.427,-243.68661,904.99042,-188.5011,-234.66539,846.62067,-172.49695,-159.64226,910.70526
46,0.375,-248.62836,-243.21922,907.69116,-188.25804,-230.81277,850.21771,-172.49617,-159.11174,917.6532
47,0.383,-249.45108,-241.98,911.51233,-186.89317,-229.51764,853.57947,-177.41483,-156.50276,922.78778
48,0.392,-248.5466,-240.3429,912.34442,-185.67702,-229.37112,859.55676,-178.45784,-156.80417,927.75159
49,0.4,-248.45552,-239.74944,913.69855,-185.576,-225.83658,862.4173,-178.64684,-156.79457,932.87677
50,0.408,-249.08017,-238.95094,915.60272,-184.80603,-225.14391,866.1178,-180.78548,-153.76315,935.39191
51,0.417,-248.38312,-238.97398,917.74127,-183.3396,-223.01509,868.46436,-181.5789,-154.99786,940.04517
52,0.425,-248.18695,-239.76707,919.20386,-181.37616,-224.65036,871.78265,-181.2681,-153.302,941.3985
53,0.433,-247.33147,-240.17113,920.6153,-179.63132,-226.19612,872.51575,-180.79654,-154.96164,941.63721
54,0.442,-246.58717,-241.14624,920.4483,-178.69345,-227.99628,872.7099,-177.81314,-154.23431,940.2265
55,0.45,-245.88136,-242.66878,920.12189,-178.9205,-229.47882,871.85828,-175.35664,-154.81117,937.23779
56,0.458,-244.89786,-243.41469,919.36072,-177.72762,-231.1846,869.41718,-173.60124,-155.65782,932.80908
57,0.467,-243.29018,-243.1689,917.69476,-175.98189,-233.03076,865.03137,-171.08792,-156.59535,926.94794
58,0.475,-241.94951,-243.71043,914.53931,-176.4715,-235.62828,860.90259,-167.0081,-155.74121,920.07019
59,0.483,-240.05499,-244.2795,911.37158,-175.10965,-239.04655,856.04211,-164.74275,-156.90202,912.60858
60,0.492,-237.98764,-244.37363,908.06836,-174.04767,-240.50212,849.72137,-161.28499,-157.12317,903.9386
61,0.5,-235.92276,-246.0363,903.73853,-175.75914,-242.69699,843.51178,-159.33842,-158.31227,894.99384
62,0.508,-234.07787,-246.65308,900.27136,-174.78853,-245.88582,838.12726,-157.73094,-158.64127,887.48596
63,0.517,-232.76859,-246.38773,896.76093,-175.51669,-245.66714,833.52289,-156.82941,-157.59363,882.91449
64,0.525,-232.35599,-245.10744,894.29688,-176.72952,-247.69624,831.03186,-159.06006,-158.48373,877.32068
65,0.533,-231.95074,-244.49341,892.94305,-178.63425,-244.45616,828.86365,-160.31438,-157.95752,876.4184
66,0.542,-232.815,-243.88206,893.06598,-181.74983,-243.32628,828.56927,-161.29373,-157.93687,877.85803
67,0.55,-235.46083,-243.71898,894.56714,-182.68385,-242.28297,830.51758,-163.9384,-157.87355,880.76483
68,0.558,-238.20949,-242.49561,896.84491,-184.32007,-240.2401,833.81921,-165.92882,-157.80257,886.71204
69,0.567,-240.88239,-242.20253,899.71582,-185.20477,-238.2894,837.23114,-167.09328,-157.53664,892.73346
70,0.575,-242.96692,-242.27917,903.22046,-186.26251,-236.18463,840.45966,-169.14316,-156.15956,900.56049
71,0.583,-244.26677,-241.63768,904.93512,-186.78497,-232.48892,846.0434,-170.95735,-157.02173,908.21863
72,0.592,-247.13522,-240.84161,908.84369,-186.19189,-230.89174,850.88623,-173.48132,-157.64619,916.35718
73,0.6,-247.76633,-239.93761,911.35956,-186.00734,-229.06401,855.58911,-175.20284,-156.47479,922.95905
74,0.608,-248.35262,-239.157,913.14929,-184.75336,-227.54115,860.38409,-177.81343,-155.97209,929.35461
75,0.617,-249.79152,-239.12781,915.41339,-184.52168,-225.53442,865.87646,-178.9272,-155.79919,936.15015
76,0.625,-250.36839,-239.31108,917.96466,-183.80722,-224.85548,870.08771,-181.3578,-156.69186,941.90228
77,0.633,-250.82994,-238.9843,920.36694,-184.285,-225.34792,873.78809,-181.91914,-156.37404,945.92914
78,0.642,-251.73219,-240.05798,921.27954,-183.36656,-226.74216,876.74799,-182.5898,-156.58849,948.49432
79,0.65,-251.94263,-240.62453,922.34711,-182.29369,-228.33247,878.10913,-181.83665,-157.5936,949.12378
80,0.658,-251.77771,-240.8311,922.35529,-181.38118,-229.05154,878.57886,-182.37494,-156.1877,946.67712
81,0.667,-251.70068,-242.70551,922.58508,-182.23596,-231.13472,877.58667,-180.01743,-157.90311,944.43042
82,0.675,-251.16107,-244.0983,920.84058,-181.49706,-232.4623,875.1972,-177.61555,-158.25049,939.16663
83,0.683,-249.58003,-245.54962,919.63123,-181.20734,-236.18185,871.98627,-174.89096,-157.89706,933.1369
84,0.692,-248.16193,-246.04057,918.16034,-180.71889,-236.91212,866.8728,-172.23386,-157.45352,925.17126
85,0.7,-246.218,-245.71596,914.6908,-179.26048,-239.27602,860.46063,-169.24582,-157.47676,916.42853
86,0.708,-244.86343,-245.01344,910.81897,-178.93863,-241.4684,854.28009,-165.72556,-156.96724,905.97888
87,0.717,-242.29237,-245.01596,906.62061,-178.47623,-242.95868,847.45264,-163.48959,-157.86143,895.43579
88,0.725,-238.29849,-245.35551,902.30011,-177.32831,-244.59059,839.63849,-161.42151,-156.04031,884.78564
89,0.733,-234.86861,-245.54903,897.74518,-177.21794,-246.65012,832.31805,-160.12196,-156.02328,876.42761
90,0.742,-232.07462,-244.14972,893.34863,-177.66402,-244.80769,827.01794,-158.54453,-155.37575,868.85901
91,0.75,-230.38966,-242.80031,888.59277,-178.67517,-246.02583,823.74658,-161.35034,-155.13641,864.4823
92,0.758,-230.01736,-241.1293,887.62823,-180.45494,-244.6059,822.19946,-163.08687,-153.36485,862.09442
93,0.767,-231.79158,-239.92978,887.61328,-182.71254,-243.33904,822.52655,-166.35591,-152.40419,863.73175
94,0.775,-234.40555,-240.1004,890.31183,-184.37814,-242.26154,824.37274,-167.77223,-152.27948,866.92963
95,0.783,-238.7563,-240.92378,892.37927,-186.69595,-239.57211,827.1156,-169.47026,-152.06409,873.96649
96,0.792,-242.59656,-239.72687,895.32886,-188.24284,-237.68416,829.92957,-173.6949,-153.20364,881.28424
97,0.8,-244.70267,-240.36075,898.00452,-189.59824,-234.97705,835.08649,-174.70943,-151.86258,888.70734
98,0.808,-247.46179,-239.81622,900.77496,-190.27887,-233.09883,838.87012,-176.65497,-152.44162,896.11456
99,0.817,-249.10223,-240.14468,904.63,-190.24982,-231.35979,844.31073,-178.23271,-152.03093,904.56726
100,0.825,-251.42734,-240.00557,906.54816,-190.78342,-229.4046,849.16888,-178.91644,-154.01767,912.10199
101,0.833,-252.82414,-239.63426,908.90973,-190.13441,-227.10458,853.15619,-179.76991,-153.82843,920.05658
102,0.842,-253.70438,-239.21724,911.14929,-189.81908,-226.82761,858.68304,-179.60966,-155.46902,927.38123
103,0.85,-255.08961,-239.58533,913.39288,-189.13574,-226.49878,863.70911,-184.00038,-156.60355,933.05908
104,0.858,-255.64871,-239.82025,914.45776,-189.17934,-227.54573,866.72052,-183.28474,-158.03105,938.26764
105,0.867,-256.30826,-241.11469,916.78461,-187.91109,-228.67624,870.46771,-183.58089,-158.79355,941.83386
106,0.875,-256.31674,-241.96127,917.45996,-187.41124,-231.09888,872.41589,-184.35686,-159.83243,942.99951
107,0.883,-256.66132,-243.17488,917.79102,-187.66475,-231.83846,872.85065,-181.29292,-159.75253,941.53418
108,0.892,-256.66132,-243.17488,917.79102,-187.54504,-232.41991,871.70673,-181.10735,-160.91754,938.32196
109,0.9,-255.83824,-244.09702,917.29846,-186.16225,-234.11243,870.49969,-180.20956,-160.04321,933.58282
110,0.908,-252.64806,-244.5295,916.59686,-185.22662,-237.12291,867.27002,-176.91605,-156.88312,927.59167
111,0.917,-251.24301,-245.4948,914.22766,-183.68942,-236.99791,863.90833,-175.77853,-155.74936,920.58679
112,0.925,-249.25536,-244.97375,912.58527,-182.3898,-237.34901,858.46344,-171.44345,-154.23732,912.38086
113,0.933,-246.72305,-243.96274,909.6803,-181.12376,-238.52866,851.95856,-170.62347,-153.00809,902.71802
114,0.942,-244.05359,-243.04022,905.17578,-180.23897,-240.97797,846.78638,-167.78185,-152.10732,893.18103
115,0.95,-240.248,-241.53513,900.26532,-179.52603,-241.37415,839.19244,-165.16452,-149.68764,881.51019
116,0.958,-237.37622,-241.25404,894.35651,-178.10973,-241.35507,831.1601,-164.79593,-149.51709,873.17578
117,0.967,-233.49846,-240.10062,889.62567,-180.22983,-240.97812,824.99152,-163.96306,-150.46008,866.42389
118,0.975,-233.33296,-239.57672,885.53156,-180.87965,-241.74965,820.36371,-164.2556,-150.34918,861.05969
119,0.983,-232.85397,-239.186,882.98755,-183.21213,-241.55908,817.27942,-165.94717,-150.0892,858.39294
120,0.992,-234.09209,-239.47528,882.13873,-185.78996,-241.47919,815.98975,-168.45139,-150.73062,858.24353
121,1,-237.86732,-239.69402,882.79309,-189.15913,-239.69705,815.69263,-170.9567,-151.28391,860.41675
122,1.008,-241.92763,-240.22672,883.90112,-191.08183,-239.5869,817.78943,-172.87415,-153.04788,863.6886
123,1.017,-245.44481,-240.94746,886.6358,-192.79478,-238.76689,820.10089,-175.5966,-153.0179,868.492
124,1.025,-248.62083,-241.78654,888.63702,-194.89642,-239.77209,824.5932,-177.00398,-154.07347,875.07458
125,1.033,-251.86699,-242.00285,890.96545,-196.53809,-238.79193,828.30457,-179.32033,-155.71652,881.69031
126,1.042,-254.78435,-241.53105,893.6344,-197.50423,-237.19336,830.91876,-180.08788,-156.91049,888.94012
127,1.05,-258.11102,-243.15437,895.8819,-198.03625,-237.02293,836.21393,-180.9043,-158.93607,895.78711
128,1.058,-259.26752,-244.21498,898.14746,-198.59151,-235.914,839.96637,-181.98959,-160.30792,902.18011
129,1.067,-260.61093,-243.57991,900.98932,-198.97603,-236.09828,843.9397,-182.91048,-160.64027,907.09174
130,1.075,-261.88733,-245.10774,902.92932,-198.82776,-235.92622,847.41992,-184.34972,-160.29639,911.38422
131,1.083,-261.67563,-245.70406,904.43591,-198.7379,-236.16032,849.66016,-186.07298,-161.14413,914.77545
132,1.092,-262.02289,-245.25414,905.44904,-197.40819,-237.71791,853.34082,-185.69975,-159.33293,915.4624
133,1.1,-261.6781,-245.53304,906.37701,-196.37099,-237.16519,854.07001,-186.77609,-157.87601,914.28369
134,1.108,-260.33087,-245.28726,906.45844,-194.75902,-236.72519,854.63647,-186.83537,-157.52904,913.40515
135,1.117,-258.70526,-243.84163,906.00952,-193.30357,-238.24876,854.75079,-184.45418,-153.08563,908.95355
136,1.125,-256.49039,-244.13184,905.43188,-191.29987,-239.53006,853.02454,-182.53281,-152.77689,906.20233
137,1.133,-253.36296,-243.63933,904.8208,-188.59468,-238.68265,850.51782,-179.92601,-150.99083,900.8653
138,1.142,-250.18121,-242.22957,903.2558,-187.25851,-237.81544,847.26447,-178.30418,-149.09695,895.60358
139,1.15,-247.14207,-241.60938,900.36603,-185.87335,-238.51477,842.75317,-174.38455,-150.23566,889.51154
140,1.158,-244.06989,-240.78772,897.57159,-184.8927,-239.35037,838.11328,-171.94196,-147.64175,879.99133
141,1.167,-241.16109,-241.11708,893.93683,-182.99838,-240.02873,833.34912,-169.30682,-149.67705,873.76257
142,1.175,-238.18781,-241.25487,890.83875,-183.30498,-240.47975,827.09576,-167.50902,-149.77264,868.20776
143,1.183,-235.58905,-240.81572,886.24127,-183.37624,-241.24854,821.17462,-167.36597,-151.39812,864.42566
144,1.192,-234.66971,-241.92767,883.15594,-184.35619,-242.28574,816.93652,-166.20592,-152.14441,860.14709
145,1.2,-234.85632,-241.89886,881.02234,-185.74126,-241.4131,813.98401,-167.48924,-153.33197,858.79553
146,1.208,-237.26099,-241.51791,879.76703,-187.95811,-242.125,813.40436,-169.00395,-152.46399,858.98987
147,1.217,-240.08025,-242.53491,880.73895,-191.11946,-242.44827,813.64832,-171.34895,-153.52013,860.08295
148,1.225,-244.25327,-243.25142,882.06995,-193.5833,-243.22777,816.96869,-173.36826,-155.57249,862.7384
149,1.233,-247.91318,-244.00407,883.34351,-195.58473,-242.02269,817.79309,-174.87383,-157.03464,867.82593
150,1.242,-251.5625,-244.57478,885.94104,-197.4594,-242.56386,820.69434,-177.64169,-158.98286,871.30981
151,1.25,-254.89728,-245.72612,888.21637,-200.0471,-244.29866,824.22949,-178.88858,-159.52928,875.78033
152,1.258,-257.51385,-245.70627,890.25372,-200.57224,-244.04587,826.36292,-179.53748,-161.05849,881.82471
153,1.267,-260.17392,-247.06264,891.97925,-202.23402,-244.29208,829.84247,-179.86232,-164.41188,887.27423
154,1.275,-261.72598,-248.51205,894.27258,-202.68767,-244.47949,832.47137,-180.44446,-164.5715,891.58051
155,1.283,-262.83716,-248.56454,896.13104,-202.07033,-244.40771,835.66144,-182.55011,-164.95506,896.75891
156,1.292,-262.7269,-248.39819,897.7616,-201.85062,-243.26411,838.11438,-183.04916,-163.59212,898.59808
157,1.3,-261.948,-248.30699,899.14099,-199.70688,-243.87721,841.17914,-182.69427,-163.50645,900.51794
158,1.308,-261.69147,-247.99313,900.11414,-198.51012,-243.07552,842.89697,-182.7787,-162.55927,902.23907
159,1.317,-259.74179,-248.86273,901.63135,-196.6432,-242.07599,844.6593,-182.60521,-161.55859,902.54364
160,1.325,-257.56564,-247.12204,902.2218,-194.39201,-242.28828,845.12524,-180.73297,-159.65298,901.29742
161,1.333,-256.31494,-246.55876,900.70087,-193.06998,-241.45535,845.18555,-179.71587,-159.28827,899.92645
162,1.342,-252.98398,-245.31589,900.05975,-191.50571,-240.92989,844.47528,-177.64087,-158.04807,897.87238
163,1.35,-251.1474,-244.89101,899.69794,-189.72679,-241.55481,842.18317,-174.99481,-156.85309,895.17853
164,1.358,-248.6335,-244.60637,898.49664,-186.86719,-240.366,839.82062,-172.95215,-157.26546,890.64008
165,1.367,-245.47533,-244.27832,896.31714,-186.71513,-240.85378,837.06329,-169.73593,-156.73969,887.39911
166,1.375,-243.78308,-243.16223,893.38123,-185.00423,-242.02295,832.01666,-167.34886,-158.21867,882.38531
167,1.383,-241.26015,-243.98952,890.13934,-185.25645,-240.69281,827.10034,-165.53226,-157.93283,876.93256
168,1.392,-239.45976,-243.05937,886.40387,-184.14943,-241.55528,820.93457,-164.41386,-157.66995,871.9267
169,1.4,-238.39789,-244.31677,883.29626,-185.93738,-241.92267,817.08893,-164.91571,-156.68472,866.82526
170,1.408,-238.40805,-243.64624,881.02014,-187.06891,-241.07933,813.74286,-166.17226,-154.88004,861.84729
171,1.417,-239.78175,-242.3513,879.15253,-188.94795,-242.52498,812.45776,-168.44559,-153.24702,858.72168
172,1.425,-241.73471,-241.52562,877.84326,-190.86766,-241.73959,812.79724,-170.02734,-152.31133,856.78033
173,1.433,-243.99428,-240.73067,877.67004,-192.63234,-241.88629,812.97534,-173.53801,-151.31038,855.27893
174,1.442,-247.45207,-240.20247,877.77777,-194.85344,-242.29991,814.10986,-174.75635,-150.80582,856.4516
175,1.45,-251.00096,-240.39911,879.64429,-197.15381,-241.97902,815.55951,-177.34909,-151.91675,859.43463
176,1.458,-253.41774,-240.75009,880.41699,-197.46823,-241.60962,817.00934,-177.87302,-156.08891,861.88751
177,1.467,-255.31189,-241.73367,882.47437,-200.16663,-243.28435,818.78162,-178.90244,-158.1857,867.57489
178,1.475,-256.42731,-243.15065,884.43909,-200.41321,-242.37949,820.2995,-178.14651,-159.47504,872.12976
179,1.483,-256.83167,-244.72911,886.54572,-201.11768,-243.24481,822.93463,-177.92924,-160.19585,877.15546
180,1.492,-256.45926,-245.20523,888.84106,-200.00598,-242.99828,825.33441,-177.86079,-161.77171,882.20392
181,1.5,-256.89954,-245.29083,889.73328,-199.51253,-241.43935,826.5061,-177.48483,-161.35693,886.54303
182,1.508,-256.71472,-246.31982,891.29437,-197.35727,-239.93672,829.32849,-177.99294,-161.92931,889.99713
183,1.517,-255.05489,-245.43913,893.12427,-195.76595,-239.83894,832.58307,-176.86375,-159.71275,893.78192
184,1.525,-251.62781,-246.88379,895.17926,-194.93622,-239.7122,834.36401,-176.48428,-159.79579,895.22375
185,1.533,-252.7388,-245.76514,896.5802,-191.79976,-238.45273,836.83075,-175.74315,-158.72105,895.93188
186,1.542,-251.8795,-245.12587,897.00732,-190.80321,-238.24399,838.05566,-175.39261,-159.11533,896.31848
187,1.55,-250.15756,-245.15244,897.4621,-189.48564,-238.45132,838.53735,-174.56561,-158.61107,896.36285
188,1.558,-248.91122,-244.52194,896.64154,-187.64015,-238.1796,838.32172,-173.29607,-158.72701,895.45099
189,1.567,-247.61028,-244.49359,896.46655,-186.30106,-239.05582,837.50513,-171.93555,-156.66501,894.01471
190,1.575,-245.9032,-243.42712,895.06702,-186.06055,-238.67766,834.76605,-170.54123,-157.15851,889.88879
