Frame#,Time,L.Forearm.x,L.Forearm.y,L.Forearm.z,L.Ulna.x,L.Ulna.y,L.Ulna.z,L.Radius.x,L.Radius.y,L.Radius.z
1,0,563.13184,224.71815,1478.82898,650.09912,268.68933,1434.31897,697.38257,180.35899,1444.93188
2,0.008,563.09167,224.59605,1478.93359,650.09912,268.68933,1434.31897,697.38257,180.35899,1444.93188
3,0.017,563.09167,224.59605,1478.93359,649.73242,268.88458,1434.51672,697.27399,178.50919,1444.9541
4,0.025,563.09167,224.59605,1478.93359,650.25531,268.15436,1434.27258,697.27399,178.50919,1444.9541
5,0.033,563.09167,224.59605,1478.93359,650.09912,268.68933,1434.31897,697.38257,180.35899,1444.93188
6,0.042,563.09167,224.59605,1478.93359,650.25531,268.15436,1434.27258,697.25012,180.19827,1445.10474
7,0.05,561.65344,223.54373,1479.30872,649.95935,267.83096,1434.50061,697.33319,180.5452,1445.45679
8,0.058,562.09186,223.44875,1479.3291,649.39716,268.40543,1434.95215,697.25012,180.19827,1445.10474
9,0.067,563.09167,224.59605,1478.93359,649.39716,268.40543,1434.95215,697.25012,180.19827,1445.10474
10,0.075,562.89655,224.6071,1478.88245,649.69885,267.79675,1434.34827,697.03766,178.44495,1445.35461
11,0.083,562.23688,224.66722,1478.81604,649.34735,267.95953,1434.49597,697.15601,180.29187,1445.36255
12,0.092,561.56036,223.73982,1479.44287,649.45483,267.88312,1434.59058,697.07294,179.94505,1445.01038
13,0.1,561.56036,223.73982,1479.44287,649.34735,267.95953,1434.49597,697.07294,179.94505,1445.01038
14,0.108,562.82172,224.6154,1478.8551,649.11627,268.04932,1435.13013,696.96521,179.74969,1445.36243
15,0.117,562.27148,224.89812,1478.99902,648.63074,267.1214,1435.1322,697.15601,180.29187,1445.36255
16,0.125,562.09027,224.86737,1479.03223,649.11627,268.04932,1435.13013,697.15601,180.29187,1445.36255
17,0.133,562.05725,225.02174,1479.11243,649.33276,267.48746,1435.22815,697.07294,179.94505,1445.01038
18,0.142,561.91125,224.83177,1479.03589,649.33276,267.48746,1435.22815,697.07294,179.94505,1445.01038
19,0.15,562.53094,224.36209,1478.6781,649.26373,267.46768,1435.27222,697.07294,179.94505,1445.01038
20,0.158,562.46143,224.54897,1478.89209,649.17206,267.5368,1435.18579,697.00476,179.48804,1445.11877
21,0.167,561.23083,223.58803,1479.26318,648.95563,268.09863,1435.08777,696.65717,180.28902,1445.0625
22,0.175,561.98077,224.64474,1478.8219,648.5437,266.62555,1435.19092,696.65717,180.28902,1445.0625
23,0.183,561.91125,224.83177,1479.03589,648.77814,266.5394,1435.27429,696.91815,180.40575,1445.07312
24,0.192,561.91125,224.83177,1479.03589,648.5437,266.62555,1435.19092,697.07294,179.94505,1445.01038
25,0.2,561.23083,223.58803,1479.26318,649.0293,267.5538,1435.18884,697.07294,179.94505,1445.01038
26,0.208,561.23083,223.58803,1479.26318,649.04382,268.02591,1434.45667,696.23828,179.76437,1445.29993
27,0.217,560.98694,223.62637,1479.32727,649.0293,267.5538,1435.18884,696.39313,179.30368,1445.23706
28,0.225,561.98077,224.64474,1478.8219,648.26923,267.25809,1434.99792,696.63171,179.46245,1444.78394
29,0.233,561.91125,224.83177,1479.03589,648.26923,267.25809,1434.99792,696.59216,179.72414,1445.02771
30,0.242,561.71899,224.65956,1478.89819,648.26923,267.25809,1434.99792,696.43738,180.18498,1445.09058
31,0.25,561.98077,224.64474,1478.8219,648.26923,267.25809,1434.99792,696.47687,179.92317,1444.8468
32,0.258,561.98077,224.64474,1478.8219,648.06274,267.27502,1435.01416,696.43738,180.18498,1445.09058
33,0.267,561.70471,224.81288,1479.06384,648.13531,267.31696,1434.93591,695.83636,179.9034,1445.50452
34,0.275,561.54767,224.70181,1478.98291,648.06274,267.27502,1435.01416,695.88501,179.72784,1445.04541
35,0.283,561.53345,224.5555,1478.83142,648.06274,267.27502,1435.01416,695.9245,179.46608,1444.80176
36,0.292,561.45599,224.53816,1478.85388,647.67633,267.41336,1434.93237,695.88501,179.72784,1445.04541
37,0.3,561.90332,224.62743,1478.84448,647.48279,267.58389,1434.94519,695.42932,179.75653,1445.00476
38,0.308,561.62726,224.79555,1479.08643,647.54059,267.31296,1435.11206,695.45483,180.58369,1445.28333
39,0.317,561.47021,224.68448,1479.00537,647.41956,267.52548,1435.04663,695.5686,179.52245,1444.94861
40,0.325,561.45599,224.53816,1478.85388,647.41956,267.52548,1435.04663,695.65424,179.33861,1444.76172
41,0.333,561.47021,224.68448,1479.00537,647.41956,267.52548,1435.04663,695.38983,180.01851,1445.24854
42,0.342,561.31042,224.45784,1479.05676,647.41956,267.52548,1435.04663,695.07343,179.81323,1445.15173
43,0.35,561.47021,224.68448,1479.00537,647.41956,267.52548,1435.04663,695.07343,179.81323,1445.15173
44,0.358,561.47021,224.68448,1479.00537,647.41956,267.52548,1435.04663,695.20422,180.2522,1445.44263
45,0.367,561.31042,224.45784,1479.05676,647.41956,267.52548,1435.04663,695.88501,179.72784,1445.04541
46,0.375,561.31042,224.45784,1479.05676,647.54059,267.31296,1435.11206,695.41882,180.98749,1445.49084
47,0.383,561.31042,224.45784,1479.05676,647.54059,267.31296,1435.11206,694.81238,180.71298,1445.79712
48,0.392,561.20392,224.44679,1479.06299,647.54059,267.31296,1435.11206,694.74744,180.14775,1445.76221
49,0.4,561.20392,224.44679,1479.06299,647.60852,267.24234,1435.20557,694.74744,180.14775,1445.76221
50,0.408,561.31042,224.45784,1479.05676,647.44586,267.23273,1435.2533,694.62262,180.37857,1445.79102
51,0.417,561.20392,224.44679,1479.06299,647.37555,267.75171,1435.2229,694.62262,180.37857,1445.79102
52,0.425,561.15039,224.47342,1479.23572,647.44586,267.23273,1435.2533,694.62262,180.37857,1445.79102
53,0.433,561.20392,224.44679,1479.06299,647.44586,267.23273,1435.2533,694.62262,180.37857,1445.79102
54,0.442,561.15039,224.47342,1479.23572,647.53754,267.15695,1435.34985,694.55768,179.81339,1445.7561
55,0.45,561.15039,224.47342,1479.23572,647.55304,267.10889,1435.45142,694.62262,180.37857,1445.79102
56,0.458,561.15039,224.47342,1479.23572,647.62317,266.5899,1435.48181,694.55768,179.81339,1445.7561
57,0.467,561.0307,224.34302,1479.3175,647.53809,267.03961,1435.56006,694.55768,179.81339,1445.7561
58,0.475,561.0307,224.34302,1479.3175,647.53809,267.03961,1435.56006,694.55768,179.81339,1445.7561
59,0.483,561.0307,224.34302,1479.3175,647.53809,267.03961,1435.56006,694.55768,179.81339,1445.7561
60,0.492,561.02362,224.51042,1479.60876,647.53809,267.03961,1435.56006,694.4502,179.56537,1445.84131
61,0.5,561.02362,224.51042,1479.60876,647.53809,267.03961,1435.56006,694.51514,180.13052,1445.87622
62,0.508,561.28656,224.18173,1479.8147,647.53809,267.03961,1435.56006,694.43933,179.77113,1445.98364
63,0.517,560.53302,224.61716,1479.94287,647.53809,267.03961,1435.56006,694.43933,179.77113,1445.98364
64,0.525,561.28656,224.18173,1479.8147,647.53809,267.03961,1435.56006,694.15369,179.60324,1446.40906
65,0.533,560.24316,224.10687,1479.85046,647.53809,267.03961,1435.56006,694.32294,179.48549,1446.47498
66,0.542,560.99646,223.67142,1479.72229,647.53809,267.03961,1435.56006,694.14502,179.51384,1446.54846
67,0.55,560.38428,224.05537,1479.76318,647.43658,266.68048,1435.94153,694.32294,179.48549,1446.47498
68,0.558,560.24316,224.10687,1479.85046,647.45709,265.98163,1436.16296,693.90063,179.40266,1446.56897
69,0.567,560.24316,224.10687,1479.85046,647.34277,266.41589,1436.06714,693.90063,179.40266,1446.56897
70,0.575,560.24316,224.10687,1479.85046,647.44427,266.77505,1435.68579,693.9278,179.78827,1446.65771
71,0.583,560.24316,224.10687,1479.85046,647.44427,266.77505,1435.68579,693.90063,179.40266,1446.56897
72,0.592,560.99646,223.67142,1479.72229,647.34277,266.41589,1436.06714,693.90063,179.40266,1446.56897
73,0.6,560.24316,224.10687,1479.85046,647.36322,265.71695,1436.2887,693.90063,179.40266,1446.56897
74,0.608,560.24316,224.10687,1479.85046,647.34277,266.41589,1436.06714,693.70618,179.06801,1446.61462
75,0.617,560.24316,224.10687,1479.85046,647.34277,266.41589,1436.06714,693.70618,179.06801,1446.61462
76,0.625,560.27118,224.06644,1479.98047,647.34277,266.41589,1436.06714,693.70618,179.06801,1446.61462
77,0.633,560.27118,224.06644,1479.98047,647.36322,265.71695,1436.2887,693.70618,179.06801,1446.61462
78,0.642,560.23175,224.12903,1480.12268,647.34277,266.41589,1436.06714,693.60687,179.3537,1446.78345
79,0.65,560.23114,223.94434,1480.08508,647.34277,266.41589,1436.06714,693.49438,179.67455,1446.87622
80,0.658,560.19171,224.00693,1480.22729,647.36322,265.71695,1436.2887,693.60687,179.3537,1446.78345
81,0.667,560.27118,224.06644,1479.98047,647.34277,266.41589,1436.06714,693.49438,179.67455,1446.87622
82,0.675,560.04779,223.77591,1480.10449,647.34277,266.41589,1436.06714,693.60687,179.3537,1446.78345
83,0.683,560.27118,224.06644,1479.98047,647.36322,265.71695,1436.2887,693.47687,179.25456,1446.78442
84,0.692,559.91132,223.6424,1480.42847,647.34277,266.41589,1436.06714,693.37646,179.44504,1446.78381
85,0.7,560.04779,223.77591,1480.10449,647.34277,266.41589,1436.06714,693.38855,179.37639,1446.7981
86,0.708,559.91376,223.66022,1479.90076,647.36322,265.71695,1436.2887,693.38855,179.37639,1446.7981
87,0.717,559.79688,223.58928,1480.19019,647.34277,266.41589,1436.06714,693.37646,179.44504,1446.78381
88,0.725,558.90131,222.14673,1480.70007,646.88361,266.51242,1436.06372,693.37646,179.44504,1446.78381
89,0.733,558.92706,222.24931,1480.60461,647.34277,266.41589,1436.06714,693.37646,179.44504,1446.78381
90,0.742,559.07379,222.31247,1480.19177,647.34277,266.41589,1436.06714,693.37646,179.44504,1446.78381
91,0.75,558.91382,222.29124,1480.13623,647.34277,266.41589,1436.06714,693.37646,179.44504,1446.78381
92,0.758,558.92706,222.24931,1480.60461,646.83331,266.33273,1436.25464,693.37646,179.44504,1446.78381
93,0.767,558.92706,222.24931,1480.60461,646.88361,266.51242,1436.06372,693.37646,179.44504,1446.78381
94,0.775,559.70294,223.59569,1479.88159,646.7052,266.52661,1436.07861,693.37646,179.44504,1446.78381
95,0.783,559.83691,223.71138,1480.08545,646.7052,266.52661,1436.07861,693.37646,179.44504,1446.78381
96,0.792,559.7005,223.57791,1480.4093,646.7052,266.52661,1436.07861,693.37646,179.44504,1446.78381
97,0.8,559.63342,223.62477,1480.30151,646.7052,266.52661,1436.07861,693.37646,179.44504,1446.78381
98,0.808,559.7005,223.57791,1480.4093,646.7052,266.52661,1436.07861,693.48743,179.72488,1446.86035
99,0.817,558.92706,222.24931,1480.60461,646.7052,266.52661,1436.07861,693.15906,179.27509,1446.69177
100,0.825,558.90131,222.14673,1480.70007,646.52899,266.86893,1436.38806,693.37646,179.44504,1446.78381
101,0.833,558.92706,222.24931,1480.60461,646.7052,266.52661,1436.07861,693.37646,179.44504,1446.78381
102,0.842,559.52649,223.34019,1480.31018,646.57928,267.04861,1436.19714,693.36835,180.09673,1446.93738
103,0.85,559.66046,223.45589,1480.51404,646.57928,267.04861,1436.19714,693.27002,179.5549,1446.76831
104,0.858,558.66455,222.595,1480.54956,646.57928,267.04861,1436.19714,692.54694,180.01109,1447.16663
105,0.867,558.76892,222.81828,1480.18445,646.57928,267.04861,1436.19714,692.82367,180.0183,1447.09778
106,0.875,558.81702,222.55247,1480.45361,646.10126,268.0954,1436.24817,692.82367,180.0183,1447.09778
107,0.883,558.74091,222.65254,1480.5769,646.45837,267.2612,1436.13159,693.19043,180.12498,1447.01086
108,0.892,558.63184,222.54019,1480.86572,646.10126,268.0954,1436.24817,692.54694,180.01109,1447.16663
109,0.9,559.40186,223.90529,1480.71692,645.97992,268.17227,1436.15601,692.54694,180.01109,1447.16663
110,0.908,559.40186,223.90529,1480.71692,645.83667,268.26944,1436.44678,692.54694,180.01109,1447.16663
111,0.917,558.52899,222.67374,1480.71851,645.83667,268.26944,1436.44678,692.70502,180.34392,1447.4198
112,0.925,558.57239,222.51883,1480.9115,646.10126,268.0954,1436.24817,693.03229,180.25212,1447.16736
113,0.933,559.47076,224.0071,1480.4447,645.47284,268.43082,1436.58728,692.70502,180.34392,1447.4198
114,0.942,559.30731,224.04266,1480.55603,645.47284,268.43082,1436.58728,692.6391,180.1524,1447.53174
115,0.95,559.33435,223.87372,1480.76868,645.42249,268.2511,1436.77832,692.48108,179.81961,1447.27856
116,0.958,559.37347,223.85471,1480.89771,645.26935,268.55252,1436.62073,692.6391,180.1524,1447.53174
117,0.967,559.37347,223.85471,1480.89771,645.42249,268.2511,1436.77832,692.6391,180.1524,1447.53174
118,0.975,559.33435,223.87372,1480.76868,645.42249,268.2511,1436.77832,692.50018,179.95757,1447.61572
119,0.983,559.2583,223.84515,1480.81348,645.42249,268.2511,1436.77832,692.50018,179.95757,1447.61572
120,0.992,559.33435,223.87372,1480.76868,645.30511,268.21765,1436.85327,692.50018,179.95757,1447.61572
121,1,558.57239,222.51883,1480.9115,645.15198,268.5191,1436.69568,692.50018,179.95757,1447.61572
122,1.008,559.29749,223.82613,1480.9425,645.15198,268.5191,1436.69568,692.50018,179.95757,1447.61572
123,1.017,559.43384,223.95944,1480.61865,645.15198,268.5191,1436.69568,692.53021,179.71355,1447.70361
124,1.025,559.29749,223.82613,1480.9425,645.30511,268.21765,1436.85327,692.53021,179.71355,1447.70361
125,1.033,559.1059,223.78764,1480.94666,645.02112,268.61584,1436.79785,692.7674,179.82924,1447.74207
126,1.042,559.29749,223.82613,1480.9425,644.92725,268.7558,1436.77991,692.53021,179.71355,1447.70361
127,1.05,559.29749,223.82613,1480.9425,644.82001,268.81769,1436.88647,692.53021,179.71355,1447.70361
128,1.058,558.54596,222.47423,1481.06653,644.82001,268.81769,1436.88647,692.53021,179.71355,1447.70361
129,1.067,559.29749,223.82613,1480.9425,644.82001,268.81769,1436.88647,692.53021,179.71355,1447.70361
130,1.075,559.29749,223.82613,1480.9425,644.82001,268.81769,1436.88647,692.53021,179.71355,1447.70361
131,1.083,559.29749,223.82613,1480.9425,644.80756,268.97284,1437.14417,692.53021,179.71355,1447.70361
132,1.092,559.29749,223.82613,1480.9425,644.80756,268.97284,1437.14417,692.53021,179.71355,1447.70361
133,1.1,559.29749,223.82613,1480.9425,644.80756,268.97284,1437.14417,692.53021,179.71355,1447.70361
134,1.108,559.1059,223.78764,1480.94666,644.80756,268.97284,1437.14417,692.53021,179.71355,1447.70361
135,1.117,558.13507,222.64711,1481.3208,644.80756,268.97284,1437.14417,692.53021,179.71355,1447.70361
136,1.125,559.2486,223.88179,1481.01563,644.80756,268.97284,1437.14417,692.53021,179.71355,1447.70361
137,1.133,559.2486,223.88179,1481.01563,644.80756,268.97284,1437.14417,692.53021,179.71355,1447.70361
138,1.142,558.67108,223.95406,1481.24414,644.80756,268.97284,1437.14417,692.53021,179.71355,1447.70361
139,1.15,558.67108,223.95406,1481.24414,644.80756,268.97284,1437.14417,692.47089,179.87611,1447.86462
140,1.158,558.88635,224.12787,1481.17664,644.80756,268.97284,1437.14417,692.47089,179.87611,1447.86462
141,1.167,558.67108,223.95406,1481.24414,644.80756,268.97284,1437.14417,692.47089,179.87611,1447.86462
142,1.175,558.86261,223.99246,1481.23999,644.80756,268.97284,1437.14417,692.47089,179.87611,1447.86462
143,1.183,558.86261,223.99246,1481.23999,644.80756,268.97284,1437.14417,692.47089,179.87611,1447.86462
144,1.192,558.5755,223.95638,1481.22607,644.80756,268.97284,1437.14417,692.14355,179.96759,1448.11707
145,1.2,558.19702,224.29503,1481.729,644.80756,268.97284,1437.14417,692.53021,179.71355,1447.70361
146,1.208,558.67108,223.95406,1481.24414,644.80756,268.97284,1437.14417,692.53021,179.71355,1447.70361
147,1.217,558.67108,223.95406,1481.24414,644.80756,268.97284,1437.14417,692.47089,179.87611,1447.86462
148,1.225,558.86261,223.99246,1481.23999,644.80756,268.97284,1437.14417,692.47089,179.87611,1447.86462
149,1.233,558.59595,224.23639,1481.41895,644.80756,268.97284,1437.14417,692.47089,179.87611,1447.86462
150,1.242,558.78754,224.2748,1481.41479,644.80756,268.97284,1437.14417,692.47089,179.87611,1447.86462
151,1.25,558.86261,223.99246,1481.23999,644.80756,268.97284,1437.14417,692.47089,179.87611,1447.86462
152,1.258,559.05707,223.84331,1481.01978,644.80756,268.97284,1437.14417,692.47089,179.87611,1447.86462
153,1.267,558.67108,223.95406,1481.24414,644.80756,268.97284,1437.14417,692.47089,179.87611,1447.86462
154,1.275,558.78754,224.2748,1481.41479,644.80756,268.97284,1437.14417,692.47089,179.87611,1447.86462
155,1.283,558.64954,224.35876,1481.53589,644.96069,268.67136,1437.30176,692.47089,179.87611,1447.86462
156,1.292,558.04871,222.88181,1481.4679,644.96069,268.67136,1437.30176,692.53021,179.71355,1447.70361
157,1.3,559.2486,223.88179,1481.01563,644.96069,268.67136,1437.30176,692.58594,179.85744,1447.9707
158,1.308,558.86261,223.99246,1481.23999,644.96069,268.67136,1437.30176,692.47089,179.87611,1447.86462
159,1.317,558.96527,224.1469,1481.37952,644.96069,268.67136,1437.30176,692.53021,179.71355,1447.70361
160,1.325,558.86261,223.99246,1481.23999,644.96069,268.67136,1437.30176,692.64526,179.69489,1447.80957
161,1.333,558.96527,224.1469,1481.37952,644.96069,268.67136,1437.30176,692.74237,179.95677,1448.02869
162,1.342,559.2486,223.88179,1481.01563,644.96069,268.67136,1437.30176,692.7674,179.82924,1447.74207
163,1.35,558.4118,222.75702,1481.27649,644.96069,268.67136,1437.30176,692.53021,179.71355,1447.70361
164,1.358,558.9115,223.93678,1481.16687,644.96069,268.67136,1437.30176,692.88239,179.81056,1447.84802
165,1.367,559.29749,223.82613,1480.9425,644.96069,268.67136,1437.30176,692.64526,179.69489,1447.80957
166,1.375,559.29749,223.82613,1480.9425,644.96069,268.67136,1437.30176,692.88239,179.81056,1447.84802
167,1.383,559.29749,223.82613,1480.9425,644.96069,268.67136,1437.30176,692.88239,179.81056,1447.84802
168,1.392,559.29749,223.82613,1480.9425,645.09058,268.54965,1436.96912,693.0213,180.00545,1447.76392
169,1.4,558.61383,222.49174,1481.02686,645.42249,268.2511,1436.77832,692.90631,180.02412,1447.65796
170,1.408,558.61383,222.49174,1481.02686,645.30511,268.21765,1436.85327,693.0213,180.00545,1447.76392
171,1.417,559.37347,223.85471,1480.89771,645.42249,268.2511,1436.77832,693.16248,179.94646,1447.6731
172,1.425,559.55737,224.20776,1480.91589,645.92932,267.85721,1436.69055,693.16248,179.94646,1447.6731
173,1.433,559.55737,224.20776,1480.91589,645.78638,268.08975,1436.6377,693.04749,179.96515,1447.56714
174,1.442,559.55737,224.20776,1480.91589,645.92932,267.85721,1436.69055,693.16248,179.94646,1447.6731
175,1.45,558.81982,222.78561,1480.99072,646.13885,267.56516,1436.7052,693.34479,180.11751,1447.22681
176,1.458,558.81982,222.78561,1480.99072,645.97961,268.03693,1436.49951,693.34479,180.11751,1447.22681
177,1.467,559.80737,223.90854,1480.80457,646.36755,267.73071,1436.49939,693.01752,180.20914,1447.47925
178,1.475,560.19171,224.00693,1480.22729,646.6322,267.55652,1436.30078,693.41071,180.30908,1447.11487
179,1.483,559.98083,223.94238,1480.20825,647.09119,267.45993,1436.3042,693.36835,180.09673,1446.93738
180,1.492,559.15704,222.53165,1480.4209,647.09119,267.45993,1436.3042,693.68188,180.05956,1446.8147
181,1.5,559.35004,222.56024,1480.43884,647.09119,267.45993,1436.3042,693.68188,180.05956,1446.8147
182,1.508,559.35004,222.56024,1480.43884,647.09119,267.45993,1436.3042,693.80835,180.15942,1446.7345
183,1.517,560.1637,224.04736,1480.09741,647.09119,267.45993,1436.3042,693.80835,180.15942,1446.7345
184,1.525,560.20374,224.16946,1479.9928,647.21674,266.93787,1436.18567,693.80835,180.15942,1446.7345
185,1.533,560.20374,224.16946,1479.9928,647.21674,266.93787,1436.18567,693.80835,180.15942,1446.7345
186,1.542,560.24316,224.10687,1479.85046,647.21674,266.93787,1436.18567,693.80835,180.15942,1446.7345
187,1.55,560.24316,224.10687,1479.85046,647.31049,267.20236,1436.06006,693.80835,180.15942,1446.7345
188,1.558,560.1441,224.34518,1479.80237,647.31049,267.20236,1436.06006,693.80835,180.15942,1446.7345
189,1.567,560.53302,224.61716,1479.94287,647.31049,267.20236,1436.06006,693.9278,179.78827,1446.65771
190,1.575,560.47339,224.79294,1479.75244,647.31049,267.20236,1436.06006,694.17218,179.8994,1446.63708
191,1.583,561.28656,224.18173,1479.8147,647.43658,266.68048,1435.94153,694.17218,179.8994,1446.63708
192,1.592,560.47339,224.79294,1479.75244,647.31049,267.20236,1436.06006,694.3501,179.87103,1446.5636
193,1.6,560.53302,224.61716,1479.94287,647.31049,267.20236,1436.06006,694.17218,179.8994,1446.63708
194,1.608,561.16479,224.45905,1479.52136,647.43658,266.68048,1435.94153,694.3501,179.87103,1446.5636
195,1.617,561.4278,224.13039,1479.72742,647.31049,267.20236,1436.06006,694.58881,179.92322,1446.63623
196,1.625,561.28656,224.18173,1479.8147,647.31049,267.20236,1436.06006,694.58881,179.92322,1446.63623
