Frame#,Time,R.Forearm.x,R.Forearm.y,R.Forearm.z,R.Ulna.x,R.Ulna.y,R.Ulna.z,R.Radius.x,R.Radius.y,R.Radius.z
1,0,1657.52832,850.45105,1026.03418,1701.16296,886.41217,942.1322,1612.81543,854.89258,906.64685
2,0.008,1648.70105,853.69818,1028.86145,1688.08154,887.27484,942.15173,1601.03882,855.30701,908.24945
3,0.017,1635.00671,851.62738,1026.81616,1676.56934,889.20209,942.10901,1590.36035,855.56775,910.08948
4,0.025,1628.89917,853.0946,1027.7616,1661.39197,888.51807,942.24249,1578.33252,854.12598,910.14502
5,0.033,1614.99951,853.93933,1028.25891,1652.34485,891.01184,942.52637,1566.6427,857.4057,911.72131
6,0.042,1603.67578,854.77814,1032.12769,1640.69287,891.70941,943.10797,1553.70483,857.21582,915.54718
7,0.05,1593.23413,854.47955,1030.80151,1628.30554,891.29901,942.42291,1546.12512,853.3739,916.25812
8,0.058,1582.98145,851.83917,1030.19678,1617.51331,891.7215,944.97394,1532.72314,854.55048,917.79578
9,0.067,1575.90027,852.87427,1030.89709,1608.62,893.69757,945.52228,1522.65027,855.31091,918.60126
10,0.075,1564.46399,852.29272,1030.25427,1595.04468,893.38715,944.56677,1507.81873,854.83966,919.39758
11,0.083,1555.00696,856.32544,1034.35095,1583.7699,893.56323,945.60693,1498.82727,855.45679,920.18219
12,0.092,1544.28918,853.20886,1032.50098,1574.43945,893.59949,944.11176,1490.51123,854.16235,920.10791
13,0.1,1535.17444,852.80963,1032.86926,1563.51636,894.15143,945.07703,1481.12524,852.01855,919.49585
14,0.108,1526.70972,851.90308,1032.33362,1553.68445,894.03717,944.84003,1469.27808,851.61932,921.0777
15,0.117,1515.43762,850.63818,1031.58313,1542.31592,893.26355,946.07471,1458.76965,850.88153,921.93433
16,0.125,1508.83032,851.29785,1031.62598,1532.70728,893.76886,944.96918,1450.01709,849.44952,922.81824
17,0.133,1499.77002,849.24329,1031.25659,1522.75525,893.6062,945.41602,1440.00159,848.15552,922.8042
18,0.142,1488.43933,849.73535,1031.63794,1512.18762,891.62531,944.33252,1430.64526,847.70612,923.07947
19,0.15,1482.93835,849.11145,1032.11902,1504.02209,892.53052,944.87115,1421.53601,845.76062,923.46588
20,0.158,1472.04785,848.56628,1031.49084,1493.31531,891.15479,943.89178,1411.58789,845.7627,924.74323
21,0.167,1464.17578,849.7655,1031.97778,1483.06921,889.87683,943.67108,1401.95276,844.80701,924.66187
22,0.175,1457.0199,846.8877,1031.52576,1475.67883,890.04199,943.26843,1394.73511,844.44287,924.08252
23,0.183,1447.68713,845.91748,1030.974,1467.59924,888.08252,942.44482,1385.37122,843.19,924.45544
24,0.192,1441.16309,844.9386,1030.99829,1458.59265,887.64429,942.22479,1375.25916,842.0014,922.50879
25,0.2,1432.16931,843.07214,1029.56445,1450.18176,886.69208,941.75378,1368.07715,838.44153,922.89227
26,0.208,1424.32739,840.86627,1029.00537,1443.58411,884.63556,941.22717,1359.98035,839.83447,922.59814
27,0.217,1416.81982,841.07507,1028.66296,1436.07312,884.2298,941.11884,1352.01343,837.55969,922.96295
28,0.225,1410.71399,837.03735,1029.07263,1427.96899,882.49927,940.60675,1344.09473,838.16376,921.93054
29,0.233,1401.47693,836.18823,1028.85803,1421.04932,879.77747,940.20959,1338.17798,834.78339,922.08075
30,0.242,1396.58667,832.63269,1027.84363,1414.72046,879.5694,940.30865,1330.35974,833.30396,921.18427
31,0.25,1387.96729,832.43024,1027.72534,1407.61572,877.13519,940.0719,1324.43042,832.20428,921.06079
32,0.258,1382.00903,828.84375,1028.18811,1402.13464,873.69446,939.37323,1317.50073,828.80743,919.50629
33,0.267,1376.18225,827.39355,1027.6803,1395.2406,873.56104,939.51312,1312.05615,825.42395,919.88586
34,0.275,1368.28979,826.98883,1027.17468,1390.15808,870.27155,939.51984,1306.06836,826.09406,919.74567
35,0.283,1362.349,824.02295,1026.38196,1383.79382,869.01422,939.91925,1299.53833,823.94153,919.77954
36,0.292,1355.16394,824.54456,1025.99475,1378.85974,866.9115,940.01807,1293.4856,824.75452,918.59296
37,0.3,1349.45044,821.39337,1027.3064,1373.00293,863.38214,940.82733,1288.45752,821.36176,918.86127
38,0.308,1343.74463,818.83563,1028.31396,1368.10205,861.94586,941.02655,1283.09717,818.70758,918.11462
39,0.317,1336.91101,820.26178,1029.02515,1363.50671,859.82532,941.19275,1278.75757,818.383,918.41626
40,0.325,1331.64514,816.89001,1029.86194,1358.31372,856.64948,941.71826,1273.15491,816.53748,918.92688
41,0.333,1325.8783,815.99469,1030.50415,1354.13428,855.84766,942.33997,1267.91736,816.79944,917.56586
42,0.342,1318.32385,815.27698,1029.46582,1349.59167,853.1333,942.49884,1264.05444,813.73962,917.77258
43,0.35,1315.48083,811.68988,1029.62256,1346.24622,852.06219,942.5025,1259.05493,813.84448,917.94049
44,0.358,1308.45667,811.43756,1031.50122,1340.96533,849.56061,944.13892,1255.20715,812.34729,917.58569
45,0.367,1303.28711,809.42065,1031.33484,1336.44971,848.78064,945.0788,1250.55847,811.82507,917.58826
46,0.375,1298.93945,808.77991,1032.26758,1332.11792,846.33502,945.28259,1245.48743,812.31647,918.01544
47,0.383,1292.92383,808.74664,1032.90369,1327.94604,846.31329,945.43469,1241.60034,809.35999,917.64099
48,0.392,1288.52991,806.96436,1033.09216,1323.60828,843.96844,945.7146,1236.91931,810.28174,917.07141
49,0.4,1282.90112,808.4325,1033.1405,1319.42712,844.03503,945.85406,1232.48071,811.16357,917.03406
50,0.408,1277.47974,807.99158,1032.59167,1314.81311,842.94653,946.13733,1228.1377,808.18231,918.09552
51,0.417,1273.38696,806.71985,1032.33105,1310.87646,841.22211,946.27856,1222.68445,809.97906,916.92407
52,0.425,1268.24536,807.66748,1033.4176,1306.66675,842.07263,946.94025,1219.07458,809.16809,917.79297
53,0.433,1262.08496,805.2547,1033.59656,1301.83972,842.17859,948.11395,1214.70764,806.99603,917.0575
54,0.442,1256.85547,806.05518,1033.80237,1296.30798,841.11865,948.99615,1210.22009,808.22498,916.81549
55,0.45,1251.86328,805.12689,1034.15051,1292.43188,841.18439,949.39899,1207.14319,808.74493,915.35809
56,0.458,1247.73096,803.87091,1033.33752,1288.5304,840.42816,949.48309,1202.77332,806.3465,915.2301
57,0.467,1241.65442,803.65131,1034.36914,1283.08325,840.26538,949.69702,1198.3938,807.2572,916.05011
58,0.475,1235.61511,802.89636,1033.87378,1278.87573,840.42145,950.31952,1195.15955,807.6076,915.38141
59,0.483,1231.24243,803.37787,1033.61292,1274.29395,841.35974,950.09906,1188.83813,811.60773,913.64917
60,0.492,1225.89807,804.02405,1033.61279,1270.10107,840.80841,950.22223,1185.2373,810.55878,913.68439
61,0.5,1220.36462,803.67023,1033.64307,1266.32825,840.32208,950.19135,1181.38257,809.50684,913.37909
62,0.508,1214.49817,804.99054,1032.90186,1261.25305,841.61597,949.90784,1177.20715,810.23206,913.02069
63,0.517,1210.2439,803.43567,1032.33057,1256.88232,842.01978,949.59576,1172.93628,811.05304,911.99377
64,0.525,1204.27087,804.82892,1032.09143,1252.19434,840.63654,949.80475,1169.33398,810.44019,911.09381
65,0.533,1200.84961,804.73517,1032.17615,1247.96094,840.79987,950.11884,1163.72266,813.05646,910.6543
66,0.542,1194.39697,805.22021,1031.1936,1243.33472,841.77466,948.96332,1160.19043,812.34235,910.63391
67,0.55,1190.16064,805.28143,1031.10962,1239.08801,840.03198,948.36157,1154.3103,814.59149,909.70099
68,0.558,1183.30615,806.39172,1029.49719,1234.81091,840.39661,948.86218,1149.97217,815.68317,908.90521
69,0.567,1179.59644,806.74591,1029.323,1230.61047,840.57904,947.92725,1145.61414,814.6062,908.65814
70,0.575,1174.2085,806.89679,1028.48645,1225.84375,840.13983,947.29559,1142.68762,813.52612,907.95569
71,0.583,1169.75537,806.98859,1027.89343,1220.97815,839.84772,946.64178,1137.58777,814.23749,906.47217
72,0.592,1164.26282,807.65485,1026.91357,1217.2832,840.04211,946.33051,1129.99255,819.67889,904.70428
73,0.6,1158.8053,807.34625,1026.60156,1212.84521,839.73285,945.43329,1125.05859,819.83685,903.87927
74,0.608,1153.46741,807.01392,1025.1554,1207.80603,838.91534,945.21863,1123.16345,817.11609,903.40796
75,0.617,1148.33264,807.82751,1024.13831,1202.3158,839.93604,943.93134,1118.1062,817.67847,901.85956
76,0.625,1141.29492,809.20068,1023.39844,1197.22375,840.08997,943.73981,1113.14551,819.38806,900.54254
77,0.633,1136.73657,808.25793,1023.11096,1192.09692,839.4646,943.32202,1108.25366,816.62268,900.3053
78,0.642,1129.79431,809.31897,1020.61194,1187.42798,840.66949,942.88306,1102.69885,817.74536,897.7926
79,0.65,1124.1593,809.60687,1019.77612,1181.13281,840.24658,941.44244,1097.74414,820.37671,895.8551
80,0.658,1118.12854,809.34546,1018.82489,1175.4751,840.27594,941.367,1092.65747,819.13721,895.22974
81,0.667,1111.74011,809.12494,1017.2854,1169.34985,841.67529,940.67474,1085.4397,822.10895,893.79871
82,0.675,1105.52612,808.59125,1016.36346,1164.55896,840.05103,939.27521,1081.37817,821.45062,892.7594
83,0.683,1099.13574,808.08051,1015.03387,1158.96021,841.11176,939.0152,1075.09241,821.4209,891.39539
84,0.692,1092.03455,808.73883,1013.17035,1152.10962,841.74194,937.40204,1070.47888,820.51184,889.82263
85,0.7,1085.58484,809.03662,1011.91376,1145.99683,840.47656,936.22614,1063.84851,823.052,887.6424
86,0.708,1078.82739,809.91931,1010.68109,1140.77124,841.15521,935.37506,1058.63306,822.48993,886.38464
87,0.717,1071.83203,810.10663,1009.3009,1134.06384,841.67029,933.73474,1051.64087,822.61023,884.80658
88,0.725,1065.27539,811.09784,1007.95514,1127.00391,842.00519,932.93378,1044.83826,823.55829,883.81189
89,0.733,1058.31311,810.68457,1006.38318,1120.69824,841.54059,931.57635,1038.57202,823.46582,882.28687
90,0.742,1050.85767,811.75348,1005.37982,1113.72229,841.76019,930.39911,1032.14307,824.66162,880.39478
91,0.75,1043.06958,813.06641,1003.62152,1106.06104,843.06775,928.93463,1026.12085,824.04895,878.85284
92,0.758,1035.4502,812.69971,1002.87256,1098.56104,841.95361,927.36597,1018.39471,825.52289,877.5929
93,0.767,1027.55237,813.1355,1001.05048,1091.68799,843.07129,925.98572,1010.24286,825.50598,875.58905
94,0.775,1019.1004,814.5921,999.5498,1083.98669,842.13684,924.32037,1002.52362,826.85278,874.21021
95,0.783,1011.77332,814.43298,999.18182,1076.37341,842.27905,923.31354,996.00854,824.90363,872.92511
96,0.792,1002.92169,815.909,997.7655,1068.57166,843.0379,922.45947,987.94751,826.30334,871.28094
97,0.8,995.05707,815.60199,997.11346,1060.3158,843.38318,921.66357,979.37885,826.16431,870.86682
98,0.808,986.48706,815.55261,996.11932,1051.04553,843.74048,921.10754,970.86426,826.46759,868.73639
99,0.817,977.64838,816.4989,994.97839,1042.62659,842.87604,920.33197,961.8006,827.55371,868.82513
100,0.825,968.17822,816.70416,994.93762,1033.93628,844.46881,919.68317,952.67902,826.32776,868.08588
101,0.833,959.4718,817.46747,994.9408,1024.40735,843.23889,919.47418,944.34686,826.24152,867.54315
102,0.842,949.66431,816.83124,994.94452,1015.61395,842.74066,919.20569,936.15442,824.47321,867.21423
103,0.85,940.17371,817.22308,994.29541,1005.6991,843.65497,919.39691,926.46729,825.86316,867.80994
104,0.858,930.25549,817.992,995.12231,996.33783,843.52716,920.12573,916.68518,824.70349,868.24054
105,0.867,920.21967,816.55212,996.28076,986.48004,842.76147,921.17914,906.18152,826.18945,868.85608
106,0.875,911.16797,816.97803,996.9613,976.78094,843.15015,921.88501,895.45349,825.19153,870.42908
107,0.883,901.24066,816.12177,997.93457,966.65179,842.85358,921.71509,886.27539,824.89923,871.21881
108,0.892,890.44788,814.35284,998.78705,956.47009,843.42084,923.664,875.81396,824.07495,872.67914
109,0.9,880.37274,815.82715,1000.25488,945.99725,842.23553,924.87476,865.05853,823.52087,874.63971
110,0.908,870.92676,816.1167,1001.95239,934.93091,842.39819,925.81952,854.28143,824.25952,876.32275
111,0.917,860.53662,815.05194,1001.69812,924.57935,842.10706,926.92981,843.55756,822.66754,877.87811
112,0.925,850.54156,815.82404,1003.87579,913.14258,842.71539,927.88031,831.71869,821.53217,879.34613
113,0.933,840.50818,817.47089,1006.30951,902.81757,843.73895,928.7533,821.15723,821.34973,880.37396
114,0.942,830.66876,817.1236,1007.03387,891.25739,843.71655,929.50305,809.84406,822.11713,882.57379
115,0.95,820.51563,816.25653,1007.93042,880.8197,845.1037,930.55768,798.58521,820.71997,883.74365
116,0.958,810.91168,817.36603,1009.77704,868.63562,845.64252,930.8299,786.633,821.18567,885.86157
117,0.967,800.07117,818.28406,1011.35999,857.77661,845.29663,931.29065,775.08344,820.60553,887.11438
118,0.975,789.81152,818.32843,1013.81781,846.96698,846.9306,932.28387,763.41211,820.20197,889.1463
119,0.983,780.30164,817.59705,1014.03473,834.51996,847.47736,933.57416,751.8338,818.78845,890.68433
120,0.992,769.638,817.71893,1016.31055,823.62842,848.34381,934.17413,739.77563,819.68671,892.85046
121,1,759.87646,817.09711,1017.14557,812.05688,849.05585,935.26416,729.35297,818.9079,894.58893
122,1.008,749.2948,817.08221,1018.21973,800.67737,848.29822,936.26349,716.60016,819.14551,896.79541
123,1.017,739.58405,817.02936,1020.59131,789.02094,849.99707,937.29181,706.05731,817.97192,898.59064
124,1.025,730.66681,816.72626,1021.71265,777.13983,850.77722,938.37939,694.63129,816.2973,901.11884
125,1.033,720.85956,816.37024,1023.44098,766.69067,851.89032,939.69623,682.99207,816.65649,904.21704
126,1.042,712.05957,815.28076,1025.04163,755.92444,850.62476,941.59668,671.9859,815.79114,906.24292
127,1.05,702.25928,814.82208,1027.32385,745.60693,851.12006,942.62689,660.4975,815.61713,908.37347
128,1.058,693.85974,814.57349,1028.85706,734.64752,850.80444,943.84863,650.14868,813.33472,911.93134
129,1.067,685.61218,814.23773,1031.41919,723.5116,850.03046,944.95319,639.75531,811.4682,915.12189
130,1.075,676.98633,814.5592,1032.66553,713.64264,849.52557,946.69763,626.51111,812.98224,917.57214
131,1.083,668.43719,813.52551,1035.34448,703.67291,848.02832,947.60248,621.44067,808.92694,919.46375
132,1.092,660.54352,811.60022,1036.6665,693.22687,847.60895,949.43347,607.46814,809.39838,923.1347
133,1.1,651.68164,811.38593,1038.25696,684.1958,846.88092,950.15955,599.18188,806.89191,925.10724
134,1.108,645.21405,810.41669,1039.87451,675.3891,846.06714,951.58813,590.66064,805.55029,927.76434
135,1.117,636.84827,810.10516,1040.40112,666.63,845.13812,952.04669,580.3382,804.09576,928.80609
136,1.125,628.47565,810.66241,1042.48291,657.5412,843.65332,952.88348,572.71759,800.65027,930.36707
137,1.133,620.48157,807.98236,1043.56995,647.51935,843.73761,952.94708,562.76801,799.4964,933.09753
138,1.142,612.97473,807.79761,1043.87964,638.63623,842.50885,953.90247,553.54987,797.34875,935.15442
139,1.15,604.16241,806.47247,1045.27454,630.0979,841.21033,954.71246,545.62732,794.87122,936.50958
140,1.158,597.42065,805.35297,1045.70483,621.40009,839.2569,955.17029,537.8175,792.84741,936.74536
141,1.167,590.26086,803.60284,1046.23376,613.73633,837.90302,955.80963,529.57654,791.74506,938.14325
142,1.175,582.8656,801.6748,1046.00684,605.37061,836.68054,956.07758,521.71484,790.2868,938.7713
143,1.183,575.50256,799.26447,1046.23132,597.33118,835.40479,956.56067,514.17871,787.12457,938.85248
144,1.192,568.09668,797.91699,1045.17383,589.67773,834.09125,956.6532,505.36725,786.59698,939.46045
145,1.2,560.58398,796.61078,1045.55933,581.52686,833.4079,956.65485,498.51291,784.28656,939.42493
146,1.208,554.46844,794.3288,1046.0896,574.35992,830.82239,955.87915,490.61359,783.27039,940.0484
147,1.217,547.11255,793.0116,1045.54163,568.02948,830.46838,955.43634,483.8952,781.54547,939.79889
148,1.225,540.43042,790.55994,1045.07715,560.75519,829.76031,954.9245,477.53088,780.74091,938.91461
149,1.233,533.27325,789.245,1043.65247,553.67548,828.15918,954.46295,470.93399,779.19684,937.49921
150,1.242,526.84991,788.85999,1042.69714,546.4577,826.91919,953.34467,464.04285,778.23315,937.11865
151,1.25,520.74579,786.94104,1041.97058,539.64368,824.59326,952.78503,457.79111,776.46198,936.76917
152,1.258,513.81476,785.95203,1040.4071,534.13214,823.92505,951.92987,449.57788,775.29395,936.57739
153,1.267,508.06003,784.61157,1039.22351,527.40155,822.73474,950.47614,443.91855,774.09723,934.70422
154,1.275,501.931,782.64764,1037.62207,522.047,821.12286,948.74658,437.45468,771.90936,931.81012
155,1.283,495.71719,783.47919,1036.65784,516.3017,818.88794,947.59845,432.19083,771.67871,931.22833
156,1.292,489.4913,781.26807,1035.65344,510.24835,816.71472,945.50305,427.0213,770.23419,930.41272
157,1.3,483.52176,779.39471,1033.64514,504.60065,814.61603,944.10101,419.80829,768.33612,928.60944
158,1.308,478.66782,777.25513,1032.33618,499.83215,813.76349,942.80804,414.82855,766.60925,926.3537
159,1.317,471.37579,775.32556,1030.83545,494.94266,811.29333,941.51282,408.35233,764.67615,924.01941
160,1.325,465.86606,772.82373,1029.9021,489.61603,808.67365,940.14813,406.09879,762.6795,922.20288
161,1.333,460.9884,770.67987,1028.52832,483.61005,806.52014,938.22388,399.27255,760.89801,921.12555
162,1.342,455.07693,768.65509,1026.76343,479.00742,803.79803,937.61267,394.05423,759.65826,919.07642
163,1.35,450.07156,766.03656,1026.04065,474.06711,800.99335,936.58154,388.18933,757.29053,916.15942
164,1.358,443.75644,763.29419,1023.90454,469.83847,799.93591,935.92767,383.38354,756.63965,915.34131
165,1.367,438.04532,759.5752,1022.61163,465.0351,797.29285,934.60449,378.41913,755.07202,913.23828
166,1.375,432.43808,757.72699,1021.52155,460.56888,794.63538,933.60931,374.8154,751.87024,910.62128
167,1.383,426.59485,755.49396,1020.0047,455.62277,792.5968,932.24487,369.85126,749.35974,909.60217
168,1.392,421.95279,752.1319,1019.44092,450.40863,788.97723,931.54816,364.71851,746.77557,908.49683
169,1.4,416.34686,748.66162,1018.43817,445.54205,787.02014,931.69739,360.41949,746.50562,907.28986
170,1.408,410.52573,745.90698,1018.33276,442.36078,783.29578,930.95392,356.11859,743.92133,904.52924
171,1.417,405.06104,743.70142,1018.00946,438.51196,781.33557,930.64337,352.44815,741.39929,904.36157
172,1.425,400.32736,741.12994,1017.74408,433.80957,777.53558,931.25427,349.6622,738.25616,903.52826
173,1.433,395.02795,737.71484,1017.8877,430.27881,775.43781,932.07111,344.104,735.75043,903.3623
174,1.442,389.96326,735.08075,1018.44928,425.82452,771.19678,932.7691,339.74512,735.07776,903.13385
175,1.45,383.75079,732.12579,1019.633,421.52527,768.86548,933.8783,335.79495,733.16718,902.88287
176,1.458,378.71936,730.11963,1020.73499,417.64474,764.30206,934.79114,331.75513,729.56781,903.26648
177,1.467,372.73557,727.8338,1022.00983,413.75385,762.06195,936.26691,328.47183,726.27069,904.29224
178,1.475,368.8335,724.23358,1023.43768,409.93466,759.44586,937.97626,323.74323,724.89038,905.74817
179,1.483,363.43082,721.47717,1024.5144,405.5488,757.43091,939.04889,319.62903,724.75623,906.78174
180,1.492,358.13257,719.95795,1025.67334,400.9772,754.22253,940.33258,315.56915,721.79834,907.60791
181,1.5,353.78021,718.42999,1026.45691,396.22815,751.93707,941.52002,310.57571,719.44867,908.49219
182,1.508,347.92538,717.06323,1028.2666,392.06488,749.39301,943.03607,306.25504,718.47296,909.55994
183,1.517,343.29065,714.76038,1029.28491,387.51758,747.24261,944.52399,300.89084,718.0246,909.92841
184,1.525,338.47299,712.69427,1029.81812,382.90665,745.52893,945.27924,295.37607,717.06354,911.10004
185,1.533,333.16351,711.64355,1030.75476,378.70526,744.20386,946.19678,290.92862,715.08563,912.3703
186,1.542,328.08386,709.76892,1031.68347,373.84106,741.55469,947.01282,285.84683,715.48438,913.62988
187,1.55,323.08716,708.68921,1032.39441,368.02426,741.45538,948.0152,280.7254,714.03485,914.40845
188,1.558,317.49103,706.24768,1032.83899,363.73929,739.8775,948.70258,275.13599,712.24969,914.91949
189,1.567,312.32645,705.14868,1033.64929,357.77798,738.80835,949.91711,271.15112,712.12134,915.09155
190,1.575,307.05484,704.08295,1034.19702,352.67303,736.96307,950.07025,264.77609,710.90631,915.60144
191,1.583,302.07654,703.59119,1035.27551,347.94586,736.91132,950.71503,259.78534,710.25494,916.86774
192,1.592,295.65811,701.60028,1035.42712,342.33301,734.82867,951.23596,254.53745,709.60284,916.67163
193,1.6,289.9649,699.39569,1034.95789,335.90363,733.72729,952.28632,249.91667,708.61749,916.99744
194,1.608,284.20505,698.81665,1035.50525,330.53534,733.41211,953.63251,244.31265,706.35431,916.58264
195,1.617,278.84927,697.58801,1035.45642,325.69009,733.02539,953.84174,238.47049,705.73181,916.30255
196,1.625,273.1134,695.6424,1036.42371,319.92297,730.94672,954.12323,233.69897,706.0033,916.34473
197,1.633,266.72198,694.42444,1035.91553,313.99716,730.09131,954.23657,228.1124,704.15924,916.78741
