Frame#,Time,L.Forearm.x,L.Forearm.y,L.Forearm.z,L.Ulna.x,L.Ulna.y,L.Ulna.z,L.Radius.x,L.Radius.y,L.Radius.z
1,0,143.12602,161.39606,1065.84045,243.5645,189.99695,1070.1333,294.30035,99.78106,1047.74365
2,0.008,143.12602,161.39606,1065.84045,243.54356,191.25266,1070.28955,294.55835,100.22952,1048.28503
3,0.017,143.151,161.54361,1066.03174,243.46645,191.23277,1070.0083,294.79352,100.83561,1048.33508
4,0.025,143.38297,161.75111,1066.12061,243.64832,191.83575,1070.24219,294.89664,101.0649,1048.68176
5,0.033,143.55688,161.94266,1066.26721,243.64832,191.83575,1070.24219,294.89664,101.0649,1048.68176
6,0.042,143.55688,161.94266,1066.26721,243.64832,191.83575,1070.24219,294.00845,101.31657,1049.58789
7,0.05,143.76189,162.24258,1066.22729,243.64832,191.83575,1070.24219,295.2757,101.95603,1048.60352
8,0.058,143.76189,162.24258,1066.22729,243.64832,191.83575,1070.24219,294.27216,102.51719,1049.30139
9,0.067,143.76189,162.24258,1066.22729,243.59138,192.03723,1070.1936,295.02362,102.20764,1048.32336
10,0.075,143.84697,162.53874,1065.99451,243.59138,192.03723,1070.1936,295.24359,102.1311,1048.0553
11,0.083,143.84697,162.53874,1065.99451,243.57143,192.3728,1069.93127,294.62152,103.45061,1048.59192
12,0.092,143.82806,162.68077,1065.47986,243.45483,192.53448,1069.68591,293.79413,103.67706,1047.74768
13,0.1,144.15482,163.28731,1065.28247,243.51587,192.72687,1069.55933,294.26981,103.96619,1048.01221
14,0.108,144.18802,163.2299,1065.25366,243.39977,193.03175,1069.32312,294.26981,103.96619,1048.01221
15,0.117,144.10724,163.40288,1064.63062,243.78287,193.16666,1068.88782,293.9791,104.2104,1046.99341
16,0.125,144.10724,163.40288,1064.63062,243.64294,193.77287,1068.54053,293.9791,104.2104,1046.99341
17,0.133,144.01775,163.79137,1064.45178,243.40271,193.74908,1068.36841,293.61276,105.74184,1046.14771
18,0.142,144.09871,163.86618,1063.92944,243.40271,193.74908,1068.36841,293.79446,105.3204,1045.78357
19,0.15,143.26863,164.72426,1063.7345,243.13135,194.1855,1067.92346,293.79446,105.3204,1045.78357
20,0.158,143.28049,164.79999,1063.18665,242.99467,194.1593,1068.17896,293.79446,105.3204,1045.78357
21,0.167,143.28049,164.79999,1063.18665,243.40948,194.32607,1067.5575,293.52576,105.76787,1045.60864
22,0.175,143.28049,164.79999,1063.18665,243.34937,194.38867,1067.49402,293.52576,105.76787,1045.60864
23,0.183,142.97548,164.61014,1063.06299,243.31015,194.5616,1067.14819,293.8299,106.45646,1045.49268
24,0.192,142.25095,165.28259,1062.92554,243.0797,194.3535,1067.63477,293.77542,106.03377,1044.93579
25,0.2,142.32137,165.58568,1062.88464,243.07907,194.48082,1067.49329,293.77542,106.03377,1044.93579
26,0.208,142.32137,165.58568,1062.88464,242.79391,194.56659,1067.2605,293.50656,106.481,1044.76086
27,0.217,142.56139,165.83655,1062.50671,243.02905,194.76616,1066.71716,293.29697,106.59513,1044.4613
28,0.225,142.65271,165.90074,1062.3916,243.00569,195.17218,1067.09802,293.29697,106.59513,1044.4613
29,0.233,142.65271,165.90074,1062.3916,243.21921,194.9127,1065.77747,293.49133,107.39113,1043.26184
30,0.242,142.9192,166.0161,1062.23364,243.29839,195.28502,1065.57849,293.49133,107.39113,1043.26184
31,0.25,143.00839,166.22121,1062.17676,243.55913,196.19322,1064.86475,293.68448,108.18433,1042.06238
32,0.258,143.00839,166.22121,1062.17676,243.38371,196.62802,1064.68201,294.21854,109.35851,1041.79199
33,0.267,143.15634,166.31673,1062.27637,243.57533,197.97246,1064.8175,294.21854,109.35851,1041.79199
34,0.275,142.77409,167.13184,1061.88916,243.8623,197.92383,1064.68408,294.21854,109.35851,1041.79199
35,0.283,142.6534,167.47942,1061.82007,243.61644,198.0085,1064.61462,294.21854,109.35851,1041.79199
36,0.292,142.60942,167.56015,1061.69312,243.58565,198.10741,1064.36084,293.96631,109.61108,1041.51111
37,0.3,142.44154,167.58749,1061.70459,243.50751,198.26768,1064.15759,293.96631,109.61108,1041.51111
38,0.308,142.53299,167.85091,1061.57568,243.36099,198.50282,1064.01367,293.96631,109.61108,1041.51111
39,0.317,142.6671,167.86638,1061.5188,242.94121,197.97466,1064.35388,294.80847,110.59293,1040.97998
40,0.325,142.69737,168.06395,1061.29724,243.30112,198.32755,1063.54602,294.80847,110.59293,1040.97998
41,0.333,142.69737,168.06395,1061.29724,243.30112,198.32755,1063.54602,294.73111,110.42002,1040.71985
42,0.342,142.65494,168.13339,1061.22034,243.30112,198.32755,1063.54602,294.73111,110.42002,1040.71985
43,0.35,142.69737,168.06395,1061.29724,242.97658,197.7019,1063.8877,294.59198,110.06094,1040.41223
44,0.358,142.69737,168.06395,1061.29724,242.97658,197.7019,1063.8877,294.59198,110.06094,1040.41223
45,0.367,142.63148,167.99544,1061.1084,243.66171,198.13162,1063.18982,294.59198,110.06094,1040.41223
46,0.375,142.63148,167.99544,1061.1084,243.8985,198.12141,1063.13965,294.59198,110.06094,1040.41223
47,0.383,142.63148,167.99544,1061.1084,243.65993,198.18883,1062.93848,294.59198,110.06094,1040.41223
48,0.392,142.90349,167.98584,1060.89209,243.26961,197.64058,1063.04187,294.59198,110.06094,1040.41223
49,0.4,142.63148,167.99544,1061.1084,243.65993,198.18883,1062.93848,294.59198,110.06094,1040.41223
50,0.408,142.90349,167.98584,1060.89209,243.42313,198.19902,1062.98865,294.59198,110.06094,1040.41223
51,0.417,142.73935,167.99741,1060.92261,243.62036,198.02167,1063.02441,294.59198,110.06094,1040.41223
52,0.425,142.90349,167.98584,1060.89209,243.68359,197.96643,1063.07971,294.59198,110.06094,1040.41223
53,0.433,142.63148,167.99544,1061.1084,243.10593,197.49249,1063.20007,294.59198,110.06094,1040.41223
54,0.442,142.63148,167.99544,1061.1084,243.59576,197.9743,1063.20227,294.21246,109.1664,1040.49207
55,0.45,142.63148,167.99544,1061.1084,243.35893,197.98447,1063.25244,294.21246,109.1664,1040.49207
56,0.458,142.73935,167.99741,1060.92261,243.14735,197.66342,1063.40588,294.21246,109.1664,1040.49207
57,0.467,142.73935,167.99741,1060.92261,243.18269,197.7444,1063.74231,294.21246,109.1664,1040.49207
58,0.475,142.73935,167.99741,1060.92261,242.96246,197.45506,1063.87573,294.21246,109.1664,1040.49207
59,0.483,142.73935,167.99741,1060.92261,243.25146,197.27571,1063.73767,294.21246,109.1664,1040.49207
60,0.492,142.90349,167.98584,1060.89209,243.43584,197.33566,1063.59387,294.21246,109.1664,1040.49207
61,0.5,142.90349,167.98584,1060.89209,243.32494,197.32114,1063.45386,294.21246,109.1664,1040.49207
62,0.508,143.03976,167.77127,1060.86279,243.62204,197.16911,1063.45007,294.21246,109.1664,1040.49207
63,0.517,143.0426,167.94612,1060.90454,243.77737,197.48135,1063.06287,294.21246,109.1664,1040.49207
64,0.525,143.0426,167.94612,1060.90454,243.77737,197.48135,1063.06287,294.21246,109.1664,1040.49207
65,0.533,143.0426,167.94612,1060.90454,243.77737,197.48135,1063.06287,294.21246,109.1664,1040.49207
66,0.542,143.17963,167.82442,1060.61621,243.77737,197.48135,1063.06287,294.21246,109.1664,1040.49207
67,0.55,143.1785,167.67836,1060.45251,243.77737,197.48135,1063.06287,294.21246,109.1664,1040.49207
68,0.558,143.1785,167.67836,1060.45251,243.7863,197.80614,1063.02844,294.21246,109.1664,1040.49207
69,0.567,143.1785,167.67836,1060.45251,243.77737,197.48135,1063.06287,294.43295,109.08914,1040.22351
70,0.575,143.1785,167.67836,1060.45251,243.77737,197.48135,1063.06287,294.43295,109.08914,1040.22351
71,0.583,143.17735,167.53218,1060.28894,243.77737,197.48135,1063.06287,294.43295,109.08914,1040.22351
72,0.592,143.17735,167.53218,1060.28894,243.56578,196.88506,1063.02515,294.91272,109.35782,1040.15039
73,0.6,143.37082,167.67332,1059.35034,244.01724,197.50433,1063.23486,294.91272,109.35782,1040.15039
74,0.608,143.67128,167.31094,1059.8031,243.7113,197.03546,1063.13525,294.91272,109.35782,1040.15039
75,0.617,143.75076,167.33844,1059.73157,244.12413,197.33511,1062.6853,294.83527,109.18484,1039.89038
76,0.625,143.75076,167.33844,1059.73157,243.91643,196.87296,1062.97644,295.21487,110.0795,1039.8103
77,0.633,143.50764,167.85809,1059.10559,243.62827,197.1834,1062.94653,295.38101,109.63474,1039.80225
78,0.642,143.74008,168.04585,1059.19324,244.13672,197.72356,1062.61597,295.38101,109.63474,1039.80225
79,0.65,143.60786,168.08383,1059.00586,244.23227,198.25845,1062.25037,295.21487,110.0795,1039.8103
80,0.658,143.5307,168.3011,1058.92139,244.20392,198.15247,1062.3844,295.21487,110.0795,1039.8103
81,0.667,143.75981,168.25227,1058.75146,244.48581,198.7948,1062.0127,295.21487,110.0795,1039.8103
82,0.675,143.96393,168.52324,1058.71594,244.23523,198.7093,1062.0553,295.21487,110.0795,1039.8103
83,0.683,144.11263,168.44296,1058.57886,244.75005,199.00021,1061.78247,295.21487,110.0795,1039.8103
84,0.692,144.11263,168.44296,1058.57886,244.75005,199.00021,1061.78247,295.69479,110.34818,1039.73706
85,0.7,144.11263,168.44296,1058.57886,245.00429,199.43686,1061.47693,295.69479,110.34818,1039.73706
86,0.708,144.30426,168.39537,1058.46509,244.78009,199.23383,1061.95483,295.69479,110.34818,1039.73706
87,0.717,144.30426,168.39537,1058.46509,245.13292,199.36095,1061.90881,295.69479,110.34818,1039.73706
88,0.725,144.30426,168.39537,1058.46509,245.13292,199.36095,1061.90881,295.69479,110.34818,1039.73706
89,0.733,144.71437,168.25117,1058.22192,245.42583,199.66013,1061.41113,295.69479,110.34818,1039.73706
90,0.742,144.71437,168.25117,1058.22192,245.42583,199.66013,1061.41113,295.91534,110.27031,1039.46875
91,0.75,144.71437,168.25117,1058.22192,245.42583,199.66013,1061.41113,295.91534,110.27031,1039.46875
92,0.758,144.71437,168.25117,1058.22192,245.21957,199.73126,1061.83154,295.91534,110.27031,1039.46875
93,0.767,145.1209,168.61208,1058.22961,245.21957,199.73126,1061.83154,296.11267,110.52144,1039.03198
94,0.775,144.9911,168.83072,1058.02258,245.28375,199.7327,1061.60815,296.11267,110.52144,1039.03198
95,0.783,144.86949,169.31871,1057.73511,245.40157,199.92,1061.01733,296.11267,110.52144,1039.03198
96,0.792,144.90775,169.52788,1057.65759,245.21298,199.78743,1061.56165,296.11267,110.52144,1039.03198
97,0.8,144.98962,169.58199,1057.56775,245.21298,199.78743,1061.56165,296.11267,110.52144,1039.03198
98,0.808,144.96617,169.59509,1057.25122,245.21298,199.78743,1061.56165,296.11267,110.52144,1039.03198
99,0.817,145.23685,169.7854,1057.33667,245.10374,199.93564,1061.60315,296.11267,110.52144,1039.03198
100,0.825,145.11867,169.60843,1057.1897,245.02911,200.11208,1061.56067,296.35574,110.93313,1038.68445
101,0.833,144.94432,169.7037,1056.94409,245.02911,200.11208,1061.56067,296.35574,110.93313,1038.68445
102,0.842,144.97589,169.67747,1057.14905,245.34486,200.12132,1060.96912,296.35574,110.93313,1038.68445
103,0.85,144.77405,169.86458,1056.92505,245.24202,200.28168,1061.02051,296.35574,110.93313,1038.68445
104,0.858,144.65227,170.36618,1056.83923,245.29643,200.35091,1060.94409,296.35574,110.93313,1038.68445
105,0.867,144.56441,170.82428,1056.73816,245.26152,200.59329,1060.8252,296.35574,110.93313,1038.68445
106,0.875,144.56441,170.82428,1056.73816,245.00526,200.43373,1061.32532,296.35574,110.93313,1038.68445
107,0.883,144.43718,170.96434,1056.84436,244.82637,200.93097,1061.09082,296.35574,110.93313,1038.68445
108,0.892,144.45978,171.40569,1056.96411,244.84955,200.90157,1060.85498,296.11267,110.52144,1039.03198
109,0.9,144.47641,171.54698,1056.78894,245.15021,201.24324,1060.47131,295.89212,110.59917,1039.30029
110,0.908,144.37155,171.91125,1056.68872,244.64371,201.09683,1060.51196,295.41214,110.33032,1039.37354
111,0.917,144.52394,172.33461,1056.40686,244.64371,201.09683,1060.51196,295.41214,110.33032,1039.37354
112,0.925,144.13208,173.0415,1056.21558,244.9146,201.81677,1060.02429,295.41214,110.33032,1039.37354
113,0.933,144.54868,173.38873,1055.99243,244.66438,202.2939,1059.7926,294.96249,110.33128,1039.52954
114,0.942,144.45316,174.13962,1056.04004,244.59152,203.22055,1059.46704,295.00507,110.58966,1039.7854
115,0.95,143.99017,174.5809,1056.14319,244.40535,204.07449,1059.00623,294.83636,110.73638,1040.09302
116,0.958,143.70314,174.83145,1056.26758,244.03401,204.5027,1058.33752,292.10065,113.94868,1039.17139
117,0.967,142.57265,176.09937,1056.14734,243.50294,204.66017,1057.78784,292.23975,114.30891,1039.47937
118,0.975,142.76431,177.16951,1055.63623,243.57712,205.87294,1057.19482,291.47855,114.90283,1039.56091
119,0.983,143.02284,178.42561,1055.89771,243.55449,207.19212,1056.65186,291.47855,114.90283,1039.56091
120,0.992,142.75266,179.90814,1054.5376,243.33673,207.58377,1056.40723,291.2684,115.41363,1039.53625
121,1,142.41644,180.35623,1054.09033,242.82246,209.20822,1055.90845,290.84796,115.29827,1039.74194
122,1.008,141.97107,181.42133,1053.27979,242.36687,210.10733,1055.25549,290.98703,115.65814,1040.05042
123,1.017,141.95125,182.65408,1052.61768,241.78558,210.72672,1053.86938,290.45511,115.31875,1040.08484
124,1.025,140.77313,185.39931,1051.43066,242.14548,211.97815,1052.8446,288.1615,119.1393,1039.6748
125,1.033,139.64922,187.16974,1050.96741,241.55064,213.13251,1051.37622,286.92166,119.84436,1039.66858
126,1.042,139.67657,189.01254,1049.91602,240.53314,214.8866,1049.77502,285.93213,119.3837,1039.89758
127,1.05,139.64088,191.1731,1049.13904,239.75172,216.5936,1047.93286,284.67297,119.41589,1039.64343
128,1.058,138.29355,194.34131,1046.77844,239.26695,217.65907,1045.52991,282.04935,121.13198,1041.11389
129,1.067,136.59456,196.30847,1044.75293,238.36151,219.41743,1042.80774,280.36996,122.15112,1040.82886
130,1.075,135.55095,201.06857,1044.04834,237.87645,220.15619,1040.27625,277.80939,121.13696,1043.77502
131,1.083,134.52284,203.75896,1042.73206,237.50841,222.95964,1037.84644,276.6283,122.83132,1042.40833
132,1.092,134.08228,205.15984,1039.53662,237.22122,223.64529,1033.68237,273.22455,125.04058,1043.23608
133,1.1,132.22188,209.10373,1037.98938,235.62877,225.84142,1031.26965,271.30765,124.02313,1043.23108
134,1.108,131.37288,210.44374,1035.58301,234.59924,226.91283,1028.64465,267.88455,125.84698,1043.39917
135,1.117,130.87685,213.17143,1032.85242,233.65079,227.21539,1025.42798,266.07996,127.32915,1042.99097
136,1.125,129.09412,216.66942,1030.4812,232.08542,230.34163,1022.54456,262.44571,129.02583,1042.2627
137,1.133,127.37422,217.90517,1026.43848,230.50362,230.8886,1019.19275,260.49554,131.25911,1041.18982
138,1.142,125.53784,222.01221,1024.24805,229.43008,232.50348,1015.96979,256.92657,133.09192,1041.35742
139,1.15,124.2717,223.99585,1019.83704,227.20467,234.53874,1012.46625,252.64539,132.87234,1041.29004
140,1.158,121.46352,227.5206,1016.47278,225.37967,235.70381,1008.03656,249.40855,135.27927,1038.13171
141,1.167,120.27658,229.92212,1012.02692,223.46899,236.13594,1003.62726,244.98651,138.21086,1038.30029
142,1.175,117.87834,232.97032,1007.42053,221.44208,236.80495,999.2229,242.0945,139.18715,1036.97449
143,1.183,115.35385,234.94496,1003.24847,219.44194,238.37939,994.88306,237.41783,141.5603,1035.13684
144,1.192,112.53503,237.81352,997.89703,215.61632,239.73024,988.88995,232.0766,143.2487,1034.29382
145,1.2,109.87107,240.78429,993.5498,212.22501,240.51906,985.1474,227.08792,148.18745,1032.28931
146,1.208,107.4604,243.48854,988.50403,211.06381,241.29996,979.38135,223.17717,146.51004,1031.98767
147,1.217,103.76748,245.56244,983.11017,206.85074,242.29518,974.40894,218.94316,151.49789,1029.3689
148,1.225,100.7134,248.95326,977.5451,204.13274,242.74295,969.0705,214.67795,153.76688,1027.96631
149,1.233,98.47372,251.02437,972.53619,200.45766,242.72968,963.76086,209.32472,156.70749,1025.71387
150,1.242,94.62711,253.68578,967.71863,196.93095,244.3849,958.60663,203.7901,159.808,1024.19617
151,1.25,90.73105,255.80772,961.60895,193.99425,244.74132,953.3819,198.38171,163.28378,1022.29846
152,1.258,87.92881,257.63104,955.86896,190.11279,245.48045,948.40381,193.63449,167.44489,1019.10309
153,1.267,84.06145,260.29999,950.20923,186.41811,245.75908,943.39264,188.54115,169.38768,1016.44885
154,1.275,80.05672,262.39459,945.62183,181.65346,247.31111,938.55243,183.44533,170.28459,1013.60266
155,1.283,77.0601,263.42542,940.11731,178.26596,246.77483,933.30664,177.95509,173.66704,1010.83527
156,1.292,72.61781,265.55478,934.46179,173.89099,247.00386,928.30658,172.86528,176.43523,1006.883
157,1.3,68.28748,266.45798,928.59534,170.20731,245.8632,923.0108,166.29344,178.25081,1003.92096
158,1.308,63.96938,267.9086,922.93329,164.91528,247.00406,918.60779,161.28581,180.76581,999.85803
159,1.317,59.84294,268.76971,918.25128,159.54607,248.08311,914.56079,155.07794,182.07123,997.54431
160,1.325,55.17775,270.68063,912.93225,155.08488,247.49362,910.10162,149.44513,184.48956,993.6153
161,1.333,50.60182,271.46573,907.56696,150.70261,247.26776,905.49402,144.03482,186.87004,991.16412
162,1.342,45.46975,272.70044,902.59247,145.47852,246.86446,901.16022,137.92784,187.90981,988.16888
163,1.35,41.82486,273.08673,897.18451,140.05165,247.06636,896.34198,131.94749,191.28459,984.44623
164,1.358,37.656,273.46811,891.89551,135.08755,247.16896,891.83344,126.41299,191.81807,982.19324
165,1.367,32.17832,275.0004,886.9342,130.20934,247.14232,887.49432,121.38332,194.3336,979.3595
166,1.375,27.89532,276.56259,881.33118,125.55723,245.47293,882.96246,114.13641,196.57794,975.1723
167,1.383,22.29176,276.36832,877.49677,120.89584,245.46935,878.92255,109.1477,198.64296,972.46887
168,1.392,18.04357,277.39432,872.77429,115.69205,245.0154,874.90417,104.37077,198.68683,969.21667
169,1.4,13.54086,277.78195,867.6217,110.99166,244.53036,870.60156,99.84111,201.05688,966.00958
170,1.408,8.9336,278.56833,863.33429,105.95536,243.82137,867.0155,93.58441,202.10828,963.13794
171,1.417,3.88806,277.61285,858.7171,101.40327,242.75407,862.922,87.67503,203.8838,959.23236
172,1.425,-0.30395,278.54279,855.27295,96.36914,242.96532,859.46753,81.75152,203.83249,957.15997
173,1.433,-4.76252,278.25894,851.6842,91.51593,241.46458,857.17352,77.75501,205.67133,955.22217
174,1.442,-8.77159,277.78888,848.56,86.5683,241.74124,853.8089,72.09944,204.92726,951.47418
175,1.45,-14.17099,279.18201,844.5932,81.87234,241.42743,851.3797,66.52912,206.03503,949.00073
176,1.458,-18.56243,277.91168,841.3363,76.85367,241.41415,848.96167,60.38479,206.90088,946.39404
177,1.467,-22.87594,277.41873,838.7522,71.99374,241.16631,846.21942,55.1958,206.89359,944.38257
178,1.475,-26.67053,277.60754,836.14557,67.70129,240.03143,843.93243,50.94925,206.40401,942.30054
179,1.483,-31.21745,277.17896,833.28406,63.7314,240.28914,841.75891,45.68872,206.39624,940.15466
180,1.492,-35.24157,276.86401,831.11383,61.35381,239.31218,839.46497,41.82867,207.77972,937.58954
181,1.5,-38.59376,276.3338,828.96338,56.68029,238.7059,837.29608,36.91081,206.65881,935.97308
182,1.508,-42.23427,277.49127,826.00964,52.05522,238.58893,835.49762,32.31311,207.95776,934.33905
183,1.517,-45.37942,278.55026,824.45911,48.56604,237.76956,832.88379,29.74501,208.08023,931.92786
184,1.525,-47.94683,278.39648,822.39911,45.91784,238.19025,832.07355,25.78888,210.45769,930.31482
185,1.533,-50.82267,279.15958,821.29028,42.12939,237.2648,829.35052,23.02552,210.03171,929.19415
186,1.542,-53.31523,279.17654,818.77905,39.49723,236.64764,828.0813,19.96405,209.86937,928.12622
187,1.55,-55.90119,279.25778,818.42511,36.47589,236.70886,827.04504,17.30853,209.99046,926.70642
188,1.558,-58.59062,279.78415,816.9671,33.81593,236.25133,825.4201,13.78044,210.42723,925.01367
189,1.567,-60.93293,279.78262,816.17114,30.22444,236.40742,824.39948,11.60683,209.43324,924.44678
190,1.575,-63.41686,279.80511,815.36584,28.35112,236.07745,823.66534,7.56485,209.19385,924.44403
191,1.583,-65.36974,280.24335,814.75623,25.78471,236.31784,823.42432,4.58634,209.82495,925.42059
192,1.592,-67.50957,279.42545,813.66095,23.82597,236.29327,823.47937,2.06398,211.20206,925.33704
193,1.6,-69.19675,279.02328,813.22241,20.39843,236.37576,823.49835,-1.34165,208.56288,922.56934
194,1.608,-71.93471,280.49771,813.46832,18.83119,236.35442,823.69531,-2.97345,208.23079,922.74249
195,1.617,-73.83353,280.31616,813.14099,17.77576,236.71057,823.51038,-6.84716,208.63556,922.28003
196,1.625,-74.50853,280.21539,813.11572,15.49953,235.8857,823.81219,-8.42594,207.66933,922.28412
197,1.633,-75.93128,281.02829,812.73926,13.78455,235.62003,823.42212,-9.64247,208.52422,922.17358
198,1.642,-77.2174,281.17828,813.03125,12.84783,235.7886,823.56342,-11.6115,208.47368,922.11566
199,1.65,-78.08282,281.13254,812.77271,10.77065,235.55887,823.46326,-13.90001,208.32396,922.28174
