Frame#,Time,R.Forearm.x,R.Forearm.y,R.Forearm.z,R.Ulna.x,R.Ulna.y,R.Ulna.z,R.Radius.x,R.Radius.y,R.Radius.z
1,0,-52.56896,-143.39655,688.39392,2.44461,-151.11815,599.24408,41.64503,-52.81456,594.75549
2,0.008,-52.56896,-143.39655,688.39392,2.85641,-151.22137,599.70172,41.64503,-52.81456,594.75549
3,0.017,-52.779,-142.97957,688.36029,2.55608,-150.73622,598.9776,41.49678,-52.86502,593.40723
4,0.025,-52.56896,-143.39655,688.39392,2.55608,-150.73622,598.9776,42.19002,-53.71671,592.57568
5,0.033,-52.70147,-143.35156,688.77386,2.55608,-150.73622,598.9776,41.99985,-53.04114,595.00018
6,0.042,-52.91149,-142.93463,688.74023,2.55608,-150.73622,598.9776,41.99985,-53.04114,595.00018
7,0.05,-52.91149,-142.93463,688.74023,2.69477,-150.02672,598.99451,42.09223,-53.40098,595.14856
8,0.058,-52.70147,-143.35156,688.77386,2.83174,-150.39926,598.94446,42.21296,-53.73078,594.29016
9,0.067,-52.91149,-142.93463,688.74023,2.64066,-150.51872,599.08783,42.21296,-53.73078,594.29016
10,0.075,-52.70147,-143.35156,688.77386,2.64066,-150.51872,599.08783,42.21296,-53.73078,594.29016
11,0.083,-52.91149,-142.93463,688.74023,2.55608,-150.73622,598.9776,42.21296,-53.73078,594.29016
12,0.092,-52.91149,-142.93463,688.74023,2.91629,-150.18173,599.05469,42.37353,-53.59287,595.44836
13,0.1,-52.91149,-142.93463,688.74023,2.83174,-150.39926,598.94446,42.21296,-53.73078,594.29016
14,0.108,-52.91149,-142.93463,688.74023,2.91629,-150.18173,599.05469,42.21296,-53.73078,594.29016
15,0.117,-52.91149,-142.93463,688.74023,2.83174,-150.39926,598.94446,42.37353,-53.59287,595.44836
16,0.125,-52.70147,-143.35156,688.77386,2.55608,-150.73622,598.9776,42.21296,-53.73078,594.29016
17,0.133,-52.91149,-142.93463,688.74023,2.55608,-150.73622,598.9776,42.21296,-53.73078,594.29016
18,0.142,-52.91149,-142.93463,688.74023,2.41848,-150.39224,599.21521,42.49061,-53.91557,592.927
19,0.15,-52.91149,-142.93463,688.74023,3.22182,-150.67314,599.79962,42.15739,-53.25301,594.09802
20,0.158,-52.91149,-142.93463,688.74023,3.01868,-150.31129,599.65076,41.49678,-52.86502,593.40723
21,0.167,-52.91149,-142.93463,688.74023,3.01868,-150.31129,599.65076,41.49678,-52.86502,593.40723
22,0.175,-52.91149,-142.93463,688.74023,3.22,-150.48668,600.03796,41.49678,-52.86502,593.40723
23,0.183,-52.91149,-142.93463,688.74023,2.74305,-150.64833,599.68396,41.49678,-52.86502,593.40723
24,0.192,-52.91149,-142.93463,688.74023,2.74305,-150.64833,599.68396,41.11034,-52.22432,593.4491
25,0.2,-52.91149,-142.93463,688.74023,2.89774,-150.26825,599.94202,41.42149,-52.95203,592.28839
26,0.208,-52.91149,-142.93463,688.74023,2.79719,-150.15631,599.59064,41.73251,-53.11068,592.10266
27,0.217,-52.91149,-142.93463,688.74023,2.79719,-150.15631,599.59064,41.49678,-52.86502,593.40723
28,0.225,-52.91149,-142.93463,688.74023,3.22818,-150.16208,599.95117,41.44135,-52.38741,593.21521
29,0.233,-53.02156,-142.77061,688.89886,2.63396,-150.44131,599.87085,41.16583,-52.70196,593.64111
30,0.242,-52.86794,-142.41766,689.12134,3.07564,-150.79398,600.39301,41.5081,-53.33508,592.46759
31,0.25,-52.86794,-142.41766,689.12134,2.75341,-150.57564,600.29712,41.16583,-52.70196,593.64111
32,0.258,-52.86794,-142.41766,689.12134,3.15605,-150.1604,600.32886,41.16583,-52.70196,593.64111
33,0.267,-52.86794,-142.41766,689.12134,3.15605,-150.1604,600.32886,41.16583,-52.70196,593.64111
34,0.275,-52.86794,-142.41766,689.12134,2.85544,-150.59625,599.93091,41.16583,-52.70196,593.64111
35,0.283,-52.86794,-142.41766,689.12134,2.75341,-150.57564,600.29712,41.29891,-53.78564,592.66791
36,0.292,-52.86794,-142.41766,689.12134,2.29441,-150.63504,600.31506,41.29891,-53.78564,592.66791
37,0.3,-52.86794,-142.41766,689.12134,2.85544,-150.59625,599.93091,41.16583,-52.70196,593.64111
38,0.308,-53.007,-142.59969,689.24005,2.85544,-150.59625,599.93091,41.16583,-52.70196,593.64111
39,0.317,-53.007,-142.59969,689.24005,2.29441,-150.63504,600.31506,41.34674,-53.53831,592.71045
40,0.325,-53.007,-142.59969,689.24005,2.63396,-150.44131,599.87085,41.16583,-52.70196,593.64111
41,0.333,-52.87449,-142.64453,688.86023,2.48592,-150.70885,599.9599,41.16583,-52.70196,593.64111
42,0.342,-52.73545,-142.46252,688.74158,2.63396,-150.44131,599.87085,41.5081,-53.33508,592.46759
43,0.35,-52.73545,-142.46252,688.74158,2.63396,-150.44131,599.87085,41.5081,-53.33508,592.46759
44,0.358,-52.86794,-142.41766,689.12134,2.63396,-150.44131,599.87085,40.85861,-52.32677,593.22009
45,0.367,-52.86794,-142.41766,689.12134,2.64859,-149.32553,599.44019,41.11034,-52.22432,593.4491
46,0.375,-52.86794,-142.41766,689.12134,2.73208,-149.63663,599.84283,41.11034,-52.22432,593.4491
47,0.383,-53.28998,-142.27957,689.10864,2.64859,-149.32553,599.44019,40.85861,-52.32677,593.22009
48,0.392,-53.25928,-142.13594,688.95825,2.35538,-149.09068,599.54602,41.17205,-52.71534,592.26208
49,0.4,-53.28998,-142.27957,689.10864,2.3163,-148.88388,599.84741,41.41261,-52.6827,592.47369
50,0.408,-53.06912,-141.81493,688.86322,2.3163,-148.88388,599.84741,41.11034,-52.22432,593.4491
51,0.417,-53.23774,-141.67885,688.76367,2.35538,-149.09068,599.54602,40.85861,-52.32677,593.22009
52,0.425,-52.73801,-141.59308,688.58844,2.3688,-148.76501,599.98059,41.11034,-52.22432,593.4491
53,0.433,-52.56937,-141.72926,688.68799,2.03304,-148.77319,600.18591,41.11034,-52.22432,593.4491
54,0.442,-52.61813,-141.78104,688.35461,2.11048,-148.99142,599.81573,41.41261,-52.6827,592.47369
55,0.45,-52.64718,-141.95303,688.87585,2.11048,-148.99142,599.81573,41.11034,-52.22432,593.4491
56,0.458,-53.09982,-141.95854,689.01361,2.11048,-148.99142,599.81573,41.11034,-52.22432,593.4491
57,0.467,-53.09982,-141.95854,689.01361,2.35538,-149.09068,599.54602,41.11034,-52.22432,593.4491
58,0.475,-53.06912,-141.81493,688.86322,2.53428,-149.30128,599.70972,41.41261,-52.6827,592.47369
59,0.483,-53.09982,-141.95854,689.01361,2.64859,-149.32553,599.44019,41.42149,-52.95203,592.28839
60,0.492,-53.21209,-142.05583,688.92078,2.64859,-149.32553,599.44019,41.16583,-52.70196,593.64111
61,0.5,-53.28998,-142.27957,689.10864,2.27897,-149.43814,599.46918,41.16583,-52.70196,593.64111
62,0.508,-52.86794,-142.41766,689.12134,2.36253,-149.74925,599.87183,41.16583,-52.70196,593.64111
63,0.517,-53.28998,-142.27957,689.10864,1.9897,-150.18341,599.85162,41.16583,-52.70196,593.64111
64,0.525,-53.28998,-142.27957,689.10864,2.29441,-150.63504,600.31506,41.5081,-53.33508,592.46759
65,0.533,-53.4291,-142.46162,689.22736,2.42767,-150.26894,599.61963,41.16583,-52.70196,593.64111
66,0.542,-53.4291,-142.46162,689.22736,2.42767,-150.26894,599.61963,41.16583,-52.70196,593.64111
67,0.55,-53.28998,-142.27957,689.10864,2.15202,-150.60594,599.65283,41.16583,-52.70196,593.64111
68,0.558,-53.4291,-142.46162,689.22736,1.87725,-150.23547,599.60455,40.85861,-52.32677,593.22009
69,0.567,-53.4291,-142.46162,689.22736,1.87725,-150.23547,599.60455,40.85861,-52.32677,593.22009
70,0.575,-53.28998,-142.27957,689.10864,1.87725,-150.23547,599.60455,41.18091,-52.98468,592.07678
71,0.583,-53.28998,-142.27957,689.10864,1.87725,-150.23547,599.60455,40.85861,-52.32677,593.22009
72,0.592,-53.4291,-142.46162,689.22736,2.06929,-149.58731,599.16864,40.85861,-52.32677,593.22009
73,0.6,-53.28998,-142.27957,689.10864,1.85966,-149.66359,599.67719,41.11034,-52.22432,593.4491
74,0.608,-53.28998,-142.27957,689.10864,2.06929,-149.58731,599.16864,40.85861,-52.32677,593.22009
75,0.617,-53.28998,-142.27957,689.10864,2.06929,-149.58731,599.16864,41.11034,-52.22432,593.4491
76,0.625,-53.28998,-142.27957,689.10864,2.27897,-149.43814,599.46918,41.11034,-52.22432,593.4491
77,0.633,-53.28998,-142.27957,689.10864,1.776,-149.35245,599.27441,41.42149,-52.95203,592.28839
78,0.642,-53.44048,-142.1429,689.00452,2.06929,-149.58731,599.16864,41.11034,-52.22432,593.4491
79,0.65,-53.28998,-142.27957,689.10864,2.06929,-149.58731,599.16864,41.44135,-52.38741,593.21521
80,0.658,-53.42792,-141.99986,688.8587,2.43895,-149.47472,599.13971,41.44135,-52.38741,593.21521
81,0.667,-53.25928,-142.13594,688.95825,1.81646,-149.4684,599.34058,41.16583,-52.70196,593.64111
82,0.675,-53.25928,-142.13594,688.95825,1.81646,-149.4684,599.34058,41.5081,-53.33508,592.46759
83,0.683,-53.28998,-142.27957,689.10864,1.52397,-149.79655,599.37854,41.5081,-53.33508,592.46759
84,0.692,-53.28998,-142.27957,689.10864,1.81646,-149.4684,599.34058,41.81908,-53.49371,592.28186
85,0.7,-53.28998,-142.27957,689.10864,2.24997,-149.937,599.43353,41.49678,-52.86502,593.40723
86,0.708,-53.28998,-142.27957,689.10864,2.34408,-149.95779,599.21692,41.49678,-52.86502,593.40723
87,0.717,-53.28998,-142.27957,689.10864,2.34408,-149.95779,599.21692,41.49678,-52.86502,593.40723
88,0.725,-53.28998,-142.27957,689.10864,2.06845,-150.29482,599.25006,41.49678,-52.86502,593.40723
89,0.733,-53.28998,-142.27957,689.10864,1.95755,-150.26512,599.4715,41.81908,-53.49371,592.28186
90,0.742,-53.28998,-142.27957,689.10864,1.95755,-150.26512,599.4715,41.5081,-53.33508,592.46759
91,0.75,-53.28998,-142.27957,689.10864,2.7091,-149.87759,599.41565,41.81908,-53.49371,592.28186
92,0.758,-53.25928,-142.13594,688.95825,2.24997,-149.937,599.43353,41.81908,-53.49371,592.28186
93,0.767,-53.28998,-142.27957,689.10864,1.81646,-149.4684,599.34058,41.81908,-53.49371,592.28186
94,0.775,-53.58165,-142.35283,688.63617,2.0751,-149.36066,599.7276,41.42149,-52.95203,592.28839
95,0.783,-53.42792,-141.99986,688.8587,1.52397,-149.79655,599.37854,41.42149,-52.95203,592.28839
96,0.792,-53.42792,-141.99986,688.8587,2.0751,-149.36066,599.7276,41.18091,-52.98468,592.07678
97,0.8,-53.4063,-142.00848,688.55243,1.81646,-149.4684,599.34058,41.18091,-52.98468,592.07678
98,0.808,-53.50378,-142.12914,688.44824,1.81646,-149.4684,599.34058,41.17205,-52.71534,592.26208
99,0.817,-53.13828,-141.4637,688.26953,2.27572,-149.40904,599.32275,41.49193,-53.14335,591.89099
100,0.825,-53.4063,-142.00848,688.55243,2.43895,-149.47472,599.13971,41.18091,-52.98468,592.07678
101,0.833,-53.21613,-141.68748,688.45746,2.27572,-149.40904,599.32275,41.72367,-52.84143,592.28796
102,0.842,-53.21613,-141.68748,688.45746,2.27572,-149.40904,599.32275,41.93269,-52.95914,593.72437
103,0.85,-53.21613,-141.68748,688.45746,2.53428,-149.30128,599.70972,41.72367,-52.84143,592.28796
104,0.858,-52.64718,-141.95303,688.87585,2.27572,-149.40904,599.32275,41.73251,-53.11068,592.10266
105,0.867,-53.35004,-141.77612,688.67084,2.96757,-149.76981,599.80255,41.44135,-52.38741,593.21521
106,0.875,-52.96966,-141.59978,688.36902,2.96757,-149.76981,599.80255,41.81908,-53.49371,592.28186
107,0.883,-52.73545,-142.46252,688.74158,2.96757,-149.76981,599.80255,41.81908,-53.49371,592.28186
108,0.892,-52.73545,-142.46252,688.74158,2.96757,-149.76981,599.80255,41.81908,-53.49371,592.28186
109,0.9,-52.73545,-142.46252,688.74158,2.96757,-149.76981,599.80255,41.49678,-52.86502,593.40723
110,0.908,-52.86794,-142.41766,689.12134,3.15605,-150.1604,600.32886,41.81908,-53.49371,592.28186
111,0.917,-52.86794,-142.41766,689.12134,3.22,-150.48668,600.03796,41.81908,-53.49371,592.28186
112,0.925,-52.86794,-142.41766,689.12134,3.22,-150.48668,600.03796,41.81908,-53.49371,592.28186
113,0.933,-52.86794,-142.41766,689.12134,3.15605,-150.1604,600.32886,41.81908,-53.49371,592.28186
114,0.942,-52.86794,-142.41766,689.12134,3.47827,-150.37881,600.42474,41.81908,-53.49371,592.28186
115,0.95,-52.86794,-142.41766,689.12134,3.15605,-150.1604,600.32886,41.81908,-53.49371,592.28186
116,0.958,-52.86794,-142.41766,689.12134,3.47827,-150.37881,600.42474,41.49678,-52.86502,593.40723
117,0.967,-52.86794,-142.41766,689.12134,3.15605,-150.1604,600.32886,41.81908,-53.49371,592.28186
118,0.975,-53.28998,-142.27957,689.10864,3.0067,-150.0071,599.89105,41.73251,-53.11068,592.10266
119,0.983,-53.28998,-142.27957,689.10864,2.73208,-149.63663,599.84283,41.73251,-53.11068,592.10266
120,0.992,-53.25928,-142.13594,688.95825,2.72288,-149.69189,600.23608,41.11034,-52.22432,593.4491
121,1,-53.44048,-142.1429,689.00452,2.11048,-148.99142,599.81573,40.85861,-52.32677,593.22009
122,1.008,-53.23774,-141.67885,688.76367,2.03304,-148.77319,600.18591,41.17205,-52.71534,592.26208
123,1.017,-53.35004,-141.77612,688.67084,1.94662,-148.99644,599.8764,40.85861,-52.32677,593.22009
124,1.025,-53.15988,-141.45505,688.57574,1.99911,-148.87761,600.00958,41.17205,-52.71534,592.26208
125,1.033,-53.35004,-141.77612,688.67084,1.99911,-148.87761,600.00958,40.38151,-52.11585,593.17261
126,1.042,-53.15988,-141.45505,688.57574,1.94662,-148.99644,599.8764,40.85861,-52.32677,593.22009
127,1.05,-53.72943,-141.28194,688.3598,1.94662,-148.99644,599.8764,41.11034,-52.22432,593.4491
128,1.058,-53.9976,-141.8268,688.64276,1.31515,-148.94026,599.81677,41.41261,-52.6827,592.47369
129,1.067,-53.9976,-141.8268,688.64276,1.776,-149.35245,599.27441,41.11034,-52.22432,593.4491
130,1.075,-54.15143,-142.17979,688.42017,1.776,-149.35245,599.27441,40.95937,-51.56501,595.13647
131,1.083,-54.07352,-141.9561,688.23224,1.59974,-149.32925,599.15015,41.42254,-52.16933,595.60217
132,1.092,-54.2906,-142.36182,688.53888,1.59974,-149.32925,599.15015,41.16583,-52.70196,593.64111
133,1.1,-54.59118,-142.49652,688.52802,0.95434,-149.7789,599.21228,39.93145,-52.63857,593.55817
134,1.108,-54.9652,-143.03886,687.93524,0.71718,-150.14784,599.20746,40.18318,-52.53599,593.78711
135,1.117,-54.9652,-143.03886,687.93524,0.57799,-150.41223,599.14441,39.72575,-52.61488,593.97516
136,1.125,-55.00165,-143.02843,687.64624,0.39192,-150.71048,598.83093,39.95208,-53.53712,592.88715
137,1.133,-55.00165,-143.02843,687.64624,0.39192,-150.71048,598.83093,39.72575,-52.61488,593.97516
138,1.142,-55.09615,-143.32619,687.5658,0.96036,-151.31583,598.7735,39.72575,-52.61488,593.97516
139,1.15,-55.09615,-143.32619,687.5658,0.96036,-151.31583,598.7735,39.72575,-52.61488,593.97516
140,1.158,-55.91541,-144.15874,687.38556,0.96036,-151.31583,598.7735,40.18667,-53.24285,594.3996
141,1.167,-55.71984,-144.36894,687.55341,0.96036,-151.31583,598.7735,39.98022,-52.22494,595.19348
142,1.175,-55.54446,-144.49075,687.41132,0.96036,-151.31583,598.7735,40.18667,-53.24285,594.3996
143,1.183,-55.54446,-144.49075,687.41132,0.73141,-151.51782,598.66132,39.72575,-52.61488,593.97516
144,1.192,-55.54446,-144.49075,687.41132,0.96036,-151.31583,598.7735,39.95208,-53.53712,592.88715
145,1.2,-55.54446,-144.49075,687.41132,0.96036,-151.31583,598.7735,40.18667,-53.24285,594.3996
146,1.208,-55.54446,-144.49075,687.41132,0.96036,-151.31583,598.7735,40.17773,-52.29653,594.86664
147,1.217,-55.54446,-144.49075,687.41132,0.45639,-151.14734,598.61292,40.17773,-52.29653,594.86664
148,1.225,-55.54446,-144.49075,687.41132,0.45639,-151.14734,598.61292,40.0854,-51.93672,594.71838
149,1.233,-55.54446,-144.49075,687.41132,0.45639,-151.14734,598.61292,39.93145,-52.63857,593.55817
150,1.242,-55.54446,-144.49075,687.41132,0.45639,-151.14734,598.61292,40.1301,-53.5634,592.53235
151,1.25,-55.54446,-144.49075,687.41132,0.37659,-151.15179,598.3374,39.93145,-52.63857,593.55817
152,1.258,-55.54446,-144.49075,687.41132,0.36559,-151.05603,597.74908,39.93145,-52.63857,593.55817
153,1.267,-55.59127,-144.43648,687.08075,1.03847,-151.33179,597.74023,40.1301,-53.5634,592.53235
154,1.275,-55.59127,-144.43648,687.08075,1.03847,-151.33179,597.74023,40.1301,-53.5634,592.53235
155,1.283,-55.78551,-144.65132,686.95862,1.16853,-151.53033,597.49591,40.5931,-53.7931,592.60144
156,1.292,-56.19494,-144.4868,686.716,1.13494,-151.18283,597.19495,40.32223,-53.56498,592.87201
157,1.3,-56.19494,-144.4868,686.716,1.16853,-151.53033,597.49591,40.32223,-53.56498,592.87201
158,1.308,-56.19494,-144.4868,686.716,1.16853,-151.53033,597.49591,41.20159,-54.45771,593.3457
159,1.317,-56.543,-144.72321,687.02979,0.6369,-151.77176,597.45959,40.52879,-54.37706,592.70148
160,1.325,-56.46051,-144.67232,686.63562,0.6369,-151.77176,597.45959,40.52879,-54.37706,592.70148
161,1.333,-56.46051,-144.67232,686.63562,0.46067,-151.74855,597.33533,40.05129,-54.16605,592.65393
162,1.342,-56.46051,-144.67232,686.63562,0.60324,-151.42424,597.15863,40.05129,-54.16605,592.65393
163,1.35,-55.12472,-144.63492,686.31134,0.60324,-151.42424,597.15863,40.52879,-54.37706,592.70148
164,1.358,-56.11498,-143.84818,685.73822,0.60324,-151.42424,597.15863,41.20159,-54.45771,593.3457
165,1.367,-56.46051,-144.67232,686.63562,1.13494,-151.18283,597.19495,40.75262,-54.19646,593.28876
166,1.375,-56.46051,-144.67232,686.63562,1.13494,-151.18283,597.19495,40.07657,-52.84026,594.5813
167,1.383,-56.18117,-144.67763,686.58014,0.60324,-151.42424,597.15863,39.93145,-52.63857,593.55817
168,1.392,-56.23822,-144.82909,686.07379,0.95868,-151.15964,597.07068,39.87598,-52.16101,593.36615
169,1.4,-56.23822,-144.82909,686.07379,0.78514,-151.26807,597.00134,40.0435,-53.18044,592.35315
170,1.408,-56.23822,-144.82909,686.07379,1.27934,-150.2973,596.74292,39.58048,-52.95037,592.28394
171,1.417,-56.23822,-144.82909,686.07379,1.95597,-149.77107,596.31921,39.39874,-51.94959,593.31854
172,1.425,-56.45435,-144.39389,685.50793,1.65326,-149.59334,596.20184,39.45529,-51.05478,594.31409
173,1.433,-56.28715,-144.6841,685.45319,1.80781,-149.54373,595.96375,39.45529,-51.05478,594.31409
174,1.442,-56.85713,-144.91199,685.57666,1.80781,-149.54373,595.96375,39.45529,-51.05478,594.31409
175,1.45,-57.35626,-144.15071,685.01697,1.80781,-149.54373,595.96375,39.45529,-51.05478,594.31409
176,1.458,-56.10089,-144.08517,684.987,1.98414,-149.567,596.0882,39.45529,-51.05478,594.31409
177,1.467,-55.5164,-143.01523,684.82019,2.60663,-149.11258,596.2998,39.20285,-51.54122,593.45801
178,1.475,-55.09681,-143.19221,685.13629,2.19923,-149.26312,596.3056,39.57969,-51.8974,592.37451
179,1.483,-54.63659,-143.17616,685.03198,2.60663,-149.11258,596.2998,39.70855,-51.49605,593.26447
180,1.492,-54.63659,-143.17616,685.03198,2.87734,-149.12477,596.18567,40.0452,-51.92256,592.22937
181,1.5,-54.63659,-143.17616,685.03198,2.87734,-149.12477,596.18567,40.18566,-51.70737,593.31207
182,1.508,-54.36478,-143.46802,684.92004,3.17078,-149.35922,596.08014,41.15905,-50.82974,593.13159
183,1.517,-54.36478,-143.46802,684.92004,3.1404,-149.53876,595.91522,40.18566,-51.70737,593.31207
184,1.525,-54.19993,-143.36377,684.53839,3.1404,-149.53876,595.91522,40.18566,-51.70737,593.31207
185,1.533,-54.1876,-143.5878,684.76868,3.1404,-149.53876,595.91522,40.66271,-51.91812,593.3595
186,1.542,-53.87107,-143.70721,683.85339,3.17946,-149.74522,595.61377,41.60734,-51.09086,593.18848
187,1.55,-53.88351,-143.48323,683.62305,3.17946,-149.74522,595.61377,41.60734,-51.09086,593.18848
188,1.558,-53.88351,-143.48323,683.62305,3.17946,-149.74522,595.61377,40.66271,-51.91812,593.3595
189,1.567,-54.22987,-143.39153,683.82123,3.17946,-149.74522,595.61377,41.02933,-50.07973,592.7464
190,1.575,-54.22987,-143.39153,683.82123,3.17946,-149.74522,595.61377,40.55259,-49.8693,592.69904
191,1.583,-54.40224,-143.73454,683.5918,3.17946,-149.74522,595.61377,40.78859,-50.63103,591.73529
192,1.592,-54.05584,-143.82628,683.39355,3.17946,-149.74522,595.61377,40.78859,-50.63103,591.73529
193,1.6,-54.40224,-143.73454,683.5918,3.17946,-149.74522,595.61377,40.78437,-49.55434,592.78638
194,1.608,-54.40224,-143.73454,683.5918,3.1404,-149.53876,595.91522,41.00298,-49.09357,592.85547
195,1.617,-54.82189,-143.55775,683.27551,2.87734,-149.12477,596.18567,40.32499,-49.32687,593.6579
196,1.625,-54.82189,-143.55775,683.27551,2.79391,-148.8134,595.78271,40.32499,-49.32687,593.6579
197,1.633,-54.82189,-143.55775,683.27551,2.79391,-148.8134,595.78271,40.23432,-48.09517,592.50244
198,1.642,-55.05266,-143.24014,683.29187,2.51953,-148.44258,595.73438,39.32401,-47.98391,592.58923
199,1.65,-54.88019,-142.89706,683.52142,2.07965,-148.18932,595.73224,39.66235,-47.8952,592.88599
200,1.658,-54.88019,-142.89706,683.52142,1.32181,-147.11607,594.98627,38.92244,-47.98487,592.83441
201,1.667,-54.88019,-142.89706,683.52142,1.32181,-147.11607,594.98627,39.66235,-47.8952,592.88599
202,1.675,-54.88019,-142.89706,683.52142,1.32181,-147.11607,594.98627,39.82659,-46.30225,594.17426
203,1.683,-54.85947,-142.89255,683.51245,1.32181,-147.11607,594.98627,39.10336,-47.21449,592.35254
204,1.692,-54.72623,-142.56039,683.315,1.32181,-147.11607,594.98627,38.92244,-47.98487,592.83441
