Frame#,Time,L.Forearm.x,L.Forearm.y,L.Forearm.z,L.Ulna.x,L.Ulna.y,L.Ulna.z,L.Radius.x,L.Radius.y,L.Radius.z
1,0,451.54306,231.59383,1237.3302,542.72455,260.0679,1212.38489,585.96838,187.76932,1216.28735
2,0.008,451.54306,231.59383,1237.3302,542.72455,260.0679,1212.38489,585.96838,187.76932,1216.28735
3,0.017,451.54306,231.59383,1237.3302,542.72455,260.0679,1212.38489,585.73718,187.95227,1216.43262
4,0.025,451.54306,231.59383,1237.3302,542.69855,260.42023,1212.77588,585.96838,187.76932,1216.28735
5,0.033,451.54306,231.59383,1237.3302,542.91467,260.13895,1212.52148,585.73718,187.95227,1216.43262
6,0.042,451.54306,231.59383,1237.3302,542.28357,258.36642,1212.56689,585.96838,187.76932,1216.28735
7,0.05,451.54306,231.59383,1237.3302,542.28357,258.36642,1212.56689,585.73718,187.95227,1216.43262
8,0.058,451.54306,231.59383,1237.3302,542.28357,258.36642,1212.56689,585.96838,187.76932,1216.28735
9,0.067,451.54306,231.59383,1237.3302,542.28357,258.36642,1212.56689,585.96838,187.76932,1216.28735
10,0.075,451.54306,231.59383,1237.3302,542.49146,258.51901,1212.72339,585.73718,187.95227,1216.43262
11,0.083,451.54306,231.59383,1237.3302,542.28357,258.36642,1212.56689,585.73718,187.95227,1216.43262
12,0.092,451.54306,231.59383,1237.3302,542.53442,257.62717,1213.06836,585.96838,187.76932,1216.28735
13,0.1,451.61475,231.53996,1237.23047,542.53442,257.62717,1213.06836,585.73718,187.95227,1216.43262
14,0.108,451.71561,231.58824,1237.17664,542.53442,257.62717,1213.06836,585.73718,187.95227,1216.43262
15,0.117,451.71561,231.58824,1237.17664,542.53442,257.62717,1213.06836,585.96838,187.76932,1216.28735
16,0.125,451.64392,231.64212,1237.27637,543.11243,258.66022,1212.66064,585.96838,187.76932,1216.28735
17,0.133,451.71561,231.58824,1237.17664,542.92584,258.83215,1212.64038,585.96838,187.76932,1216.28735
18,0.142,451.71561,231.58824,1237.17664,542.92322,258.76682,1212.46484,585.96838,187.76932,1216.28735
19,0.15,451.56882,231.43355,1237.05286,543.01508,258.58176,1212.52295,585.96838,187.76932,1216.28735
20,0.158,451.56882,231.43355,1237.05286,543.01801,258.77994,1212.42688,585.96838,187.76932,1216.28735
21,0.167,451.71561,231.58824,1237.17664,542.92322,258.76682,1212.46484,585.73718,187.95227,1216.43262
22,0.175,451.71561,231.58824,1237.17664,542.92322,258.76682,1212.46484,585.96838,187.76932,1216.28735
23,0.183,451.28314,231.4081,1236.93494,543.01801,258.77994,1212.42688,585.73718,187.95227,1216.43262
24,0.192,451.71561,231.58824,1237.17664,543.20441,258.84662,1212.54492,585.73718,187.95227,1216.43262
25,0.2,451.73239,232.05583,1237.04834,542.98956,259.0831,1212.33472,585.73718,187.95227,1216.43262
26,0.208,451.44681,232.03046,1236.93042,542.98956,259.0831,1212.33472,585.96838,187.76932,1216.28735
27,0.217,452.13425,231.50139,1237.08691,542.93488,259.16183,1212.26111,585.73718,187.95227,1216.43262
28,0.225,452.37027,232.31136,1237.0459,543.1933,259.10931,1212.29297,585.96838,187.76932,1216.28735
29,0.233,452.15091,231.96896,1236.95874,542.93488,259.16183,1212.26111,585.96838,187.76932,1216.28735
30,0.242,452.01395,232.51289,1236.57983,542.93488,259.16183,1212.26111,585.96838,187.76932,1216.28735
31,0.25,452.57587,232.73921,1236.76892,543.1933,259.10931,1212.29297,585.96838,187.76932,1216.28735
32,0.258,451.70654,231.86255,1236.69739,543.43823,259.09647,1212.42102,585.96838,187.76932,1216.28735
33,0.267,452.09341,231.82179,1236.80273,543.43823,259.09647,1212.42102,585.96838,187.76932,1216.28735
34,0.275,452.09341,231.82179,1236.80273,543.52936,259.25876,1211.80737,585.96838,187.76932,1216.28735
35,0.283,451.58588,231.74277,1236.58655,543.14453,259.40536,1211.94299,585.96838,187.76932,1216.28735
36,0.292,451.58588,231.74277,1236.58655,543.59204,259.19998,1211.69165,585.96838,187.76932,1216.28735
37,0.3,451.58588,231.74277,1236.58655,543.59204,259.19998,1211.69165,586.0863,188.06673,1216.12341
38,0.308,451.97278,231.70204,1236.69202,543.59204,259.19998,1211.69165,586.0863,188.06673,1216.12341
39,0.317,451.59256,232.02365,1236.28406,543.68707,259.28268,1211.59021,586.0863,188.06673,1216.12341
40,0.325,451.9794,231.98293,1236.38953,543.68707,259.28268,1211.59021,586.0863,188.06673,1216.12341
41,0.333,451.9794,231.98293,1236.38953,543.68707,259.28268,1211.59021,586.0863,188.06673,1216.12341
42,0.342,451.33691,232.00992,1236.1355,543.76337,259.23016,1211.51172,585.96906,188.07959,1215.88464
43,0.35,451.42212,232.37946,1235.96277,543.90448,259.02478,1211.50232,585.96906,188.07959,1215.88464
44,0.358,451.42212,232.37946,1235.96277,543.90448,259.02478,1211.50232,585.80219,187.98788,1215.7052
45,0.367,451.42212,232.37946,1235.96277,544.08075,258.28204,1211.58484,585.88464,187.82292,1216.0592
46,0.375,451.41757,232.45303,1235.89282,544.08075,258.28204,1211.58484,585.87415,187.22806,1215.79626
47,0.383,451.41757,232.45303,1235.89282,544.19977,258.06479,1211.63208,585.95862,187.48466,1215.62158
48,0.392,451.41757,232.45303,1235.89282,544.08075,258.28204,1211.58484,585.95862,187.48466,1215.62158
49,0.4,451.41757,232.45303,1235.89282,544.22894,257.90317,1211.55908,585.87415,187.22806,1215.79626
50,0.408,451.41757,232.45303,1235.89282,544.22894,257.90317,1211.55908,585.63391,186.84959,1215.67517
51,0.417,451.41757,232.45303,1235.89282,544.22894,257.90317,1211.55908,585.81567,186.99829,1215.84277
52,0.425,451.41757,232.45303,1235.89282,544.4245,257.79651,1211.4491,585.63391,186.84959,1215.67517
53,0.433,451.46616,232.73433,1235.79028,544.4245,257.79651,1211.4491,585.63391,186.84959,1215.67517
54,0.442,451.59915,232.64687,1235.68909,544.4245,257.79651,1211.4491,585.63391,186.84959,1215.67517
55,0.45,451.59915,232.64687,1235.68909,544.4245,257.79651,1211.4491,585.63391,186.84959,1215.67517
56,0.458,452.02957,232.58725,1235.78015,544.4245,257.79651,1211.4491,585.81567,186.99829,1215.84277
57,0.467,451.59915,232.64687,1235.68909,544.82507,257.72061,1211.37622,585.63391,186.84959,1215.67517
58,0.475,452.07916,232.55719,1235.64563,544.82507,257.72061,1211.37622,585.81567,186.99829,1215.84277
59,0.483,452.14542,232.5798,1235.62659,544.82507,257.72061,1211.37622,585.43518,188.55708,1215.84668
60,0.492,452.35724,232.61247,1235.78931,544.82507,257.72061,1211.37622,585.43518,188.55708,1215.84668
61,0.5,452.55878,232.99583,1235.61755,544.82507,257.72061,1211.37622,585.51898,188.5034,1216.07483
62,0.508,452.61374,232.84625,1235.78516,544.82507,257.72061,1211.37622,585.51898,188.5034,1216.07483
63,0.517,452.79117,233.19873,1236.10767,544.7998,257.89764,1211.45728,585.51898,188.5034,1216.07483
64,0.525,453.06705,233.61775,1236.13306,544.7998,257.89764,1211.45728,585.9176,188.68874,1216.39343
65,0.533,453.06705,233.61775,1236.13306,544.7998,257.89764,1211.45728,585.9176,188.68874,1216.39343
66,0.542,453.27481,233.52167,1236.17175,544.34174,256.85941,1211.54822,586.35339,188.35051,1216.58459
67,0.55,453.27481,233.52167,1236.17175,544.44275,256.88901,1211.51489,586.70966,186.74268,1216.67053
68,0.558,453.27481,233.52167,1236.17175,545.15601,256.96518,1211.70459,586.70966,186.74268,1216.67053
69,0.567,453.41437,233.64325,1236.28577,545.26215,257.04861,1211.88232,586.70966,186.74268,1216.67053
70,0.575,453.41437,233.64325,1236.28577,545.26215,257.04861,1211.88232,587.2937,186.86478,1217.01611
71,0.583,453.3399,233.74945,1236.20251,545.3559,256.77576,1211.93433,587.2937,186.86478,1217.01611
72,0.592,453.44351,233.53828,1236.37976,545.88409,256.84296,1212.13391,587.2937,186.86478,1217.01611
73,0.6,453.53815,233.61243,1236.28357,545.88409,256.84296,1212.13391,587.90656,186.21754,1217.08826
74,0.608,453.63034,233.62743,1236.10156,546.03857,256.84695,1212.12439,587.96906,186.09248,1217.36523
75,0.617,453.74313,233.4257,1236.26746,546.34644,256.67194,1212.25525,587.65186,187.49947,1217.30334
76,0.625,453.89355,233.61006,1236.35999,546.34644,256.67194,1212.25525,588.14514,185.86494,1217.51147
77,0.633,453.89355,233.61006,1236.35999,546.65436,256.76999,1212.46484,587.60992,187.14703,1217.44055
78,0.642,453.89355,233.61006,1236.35999,546.65436,256.76999,1212.46484,587.7796,186.95981,1217.57825
79,0.65,454.03006,233.35471,1236.33142,546.44623,257.01239,1212.78662,587.93848,187.07968,1217.72144
80,0.658,454.28546,233.47008,1236.27771,546.56836,256.95038,1212.84497,587.93848,187.07968,1217.72144
81,0.667,454.13596,233.79002,1236.51172,546.56836,256.95038,1212.84497,588.19824,186.68019,1217.66565
82,0.675,454.83847,233.13222,1236.44446,546.61475,256.90106,1213.04028,588.24011,187.0327,1217.52844
83,0.683,454.70728,233.38676,1236.48328,546.87714,257.36261,1213.37439,588.21539,186.51251,1217.84863
84,0.692,454.83847,233.13222,1236.44446,546.61475,256.90106,1213.04028,588.21539,186.51251,1217.84863
85,0.7,455.05719,233.13754,1236.42993,547.01196,257.23199,1213.16724,588.21539,186.51251,1217.84863
86,0.708,455.57599,232.99037,1236.72742,547.01196,257.23199,1213.16724,588.27435,186.69772,1217.89441
87,0.717,455.73795,232.53847,1236.99011,546.85693,256.96451,1213.31616,588.935,184.56613,1218.10205
88,0.725,455.83203,232.81778,1236.86414,546.94171,257.07849,1213.28613,588.935,184.56613,1218.10205
89,0.733,455.83203,232.81778,1236.86414,546.86237,257.05026,1213.52393,588.61139,186.59758,1217.85925
90,0.742,455.83203,232.81778,1236.86414,547.05884,256.78864,1213.70728,588.5697,186.4565,1218.11133
91,0.75,455.73795,232.53847,1236.99011,547.05884,256.78864,1213.70728,588.5697,186.4565,1218.11133
92,0.758,455.99484,232.52795,1237.09155,547.05884,256.78864,1213.70728,588.81458,186.4816,1218.18945
93,0.767,455.99484,232.52795,1237.09155,547.05884,256.78864,1213.70728,589.51831,184.53787,1218.53137
94,0.775,456.20953,232.92674,1237.07642,547.36121,256.76605,1213.7179,589.39789,184.7366,1218.69324
95,0.783,456.10623,232.80276,1237.36145,547.3988,256.92554,1213.80518,589.09308,186.50613,1218.6958
96,0.792,456.09698,232.95792,1237.52051,547.52112,256.98624,1213.91113,589.09308,186.50613,1218.6958
97,0.8,456.46188,232.85094,1237.73254,547.5553,257.04691,1214.11108,589.42639,184.88963,1218.84302
98,0.808,456.35388,232.94774,1237.62195,547.5553,257.04691,1214.11108,589.28162,186.377,1218.93469
99,0.817,456.46188,232.85094,1237.73254,547.5553,257.04691,1214.11108,589.22131,186.83017,1219.20996
100,0.825,456.46188,232.85094,1237.73254,547.40692,257.33484,1214.23596,589.56708,186.48293,1219.50012
101,0.833,456.45554,233.35728,1237.677,547.40692,257.33484,1214.23596,589.56708,186.48293,1219.50012
102,0.842,456.7691,233.50031,1237.61499,547.40692,257.33484,1214.23596,590.33472,186.56093,1219.41638
103,0.85,456.66873,233.7274,1237.68542,547.77393,257.47247,1214.54712,590.33472,186.56093,1219.41638
104,0.858,456.66873,233.7274,1237.68542,547.77393,257.47247,1214.54712,590.33472,186.56093,1219.41638
105,0.867,456.73593,233.55853,1237.73462,548.40112,257.44547,1214.54553,590.33472,186.56093,1219.41638
106,0.875,457.17337,233.05428,1237.81104,548.48767,257.49002,1214.4928,590.33472,186.56093,1219.41638
107,0.883,457.07294,233.28145,1237.88147,548.77423,257.35205,1214.73389,590.33472,186.56093,1219.41638
108,0.892,457.1763,232.96045,1237.90112,549.00757,257.39105,1214.53113,590.33472,186.56093,1219.41638
109,0.9,457.12451,233.38704,1238.01709,549.11896,257.28848,1214.6012,590.5639,186.52243,1219.75378
110,0.908,457.37112,233.29669,1238.2981,549.11896,257.28848,1214.6012,590.72076,186.60805,1219.9375
111,0.917,457.58862,233.39798,1238.40125,549.11896,257.28848,1214.6012,590.72076,186.60805,1219.9375
112,0.925,457.49179,233.41588,1238.40906,549.11896,257.28848,1214.6012,590.92255,186.59586,1219.86243
113,0.933,457.49179,233.41588,1238.40906,549.23163,257.17215,1214.68298,590.92255,186.59586,1219.86243
114,0.942,457.69617,233.39973,1238.20227,549.23163,257.17215,1214.68298,591.09192,186.67552,1219.98315
115,0.95,457.82498,233.01099,1238.21826,549.47046,257.16824,1214.78418,591.26239,187.00102,1219.88086
116,0.958,457.8103,233.50247,1238.10559,549.43579,257.0687,1214.56665,591.26239,187.00102,1219.88086
117,0.967,458.02197,233.53571,1238.26819,549.47046,257.16824,1214.78418,591.26239,187.00102,1219.88086
118,0.975,457.91074,233.27524,1238.03516,549.53833,257.05792,1214.28467,591.26239,187.00102,1219.88086
119,0.983,457.96024,233.24527,1237.90076,549.53833,257.05792,1214.28467,591.26239,187.00102,1219.88086
120,0.992,458.2876,233.22629,1238.08411,549.53833,257.05792,1214.28467,591.26239,187.00102,1219.88086
121,1,458.33893,232.99123,1238.2644,549.86603,257.03979,1214.29846,591.49115,186.96342,1220.21851
122,1.008,458.41492,232.97852,1238.05908,549.96185,257.12115,1214.224,591.26239,187.00102,1219.88086
123,1.017,458.51248,232.71143,1238.11389,549.96185,257.12115,1214.224,591.26239,187.00102,1219.88086
124,1.025,458.51248,232.71143,1238.11389,549.96185,257.12115,1214.224,591.47125,186.79239,1219.38013
125,1.033,458.51248,232.71143,1238.11389,549.96185,257.12115,1214.224,591.49347,186.81798,1219.73572
126,1.042,458.51248,232.71143,1238.11389,549.96185,257.12115,1214.224,591.47125,186.79239,1219.38013
127,1.05,458.51248,232.71143,1238.11389,549.96185,257.12115,1214.224,591.87823,186.95004,1219.79614
128,1.058,458.51248,232.71143,1238.11389,549.96185,257.12115,1214.224,591.99597,185.64362,1219.40881
129,1.067,458.51248,232.71143,1238.11389,549.96185,257.12115,1214.224,591.99597,185.64362,1219.40881
130,1.075,458.51248,232.71143,1238.11389,549.96185,257.12115,1214.224,591.87823,186.95004,1219.79614
131,1.083,458.51248,232.71143,1238.11389,549.96185,257.12115,1214.224,591.91766,186.811,1219.54272
132,1.092,458.94287,232.65424,1238.20471,549.96875,257.27133,1214.48877,592.37561,186.73466,1220.2179
133,1.1,458.94287,232.65424,1238.20471,549.96875,257.27133,1214.48877,592.552,186.57404,1220.37036
134,1.108,458.94287,232.65424,1238.20471,550.08881,257.27252,1214.47742,592.552,186.57404,1220.37036
135,1.117,458.94287,232.65424,1238.20471,550.75421,257.34189,1214.453,592.552,186.57404,1220.37036
136,1.125,459.0907,232.72545,1238.41797,550.8913,257.35287,1214.4325,592.552,186.57404,1220.37036
137,1.133,459.20639,232.6732,1238.43872,550.79095,257.19928,1214.56592,592.552,186.57404,1220.37036
138,1.142,459.57251,232.86896,1238.42603,550.91937,257.2168,1214.54077,592.552,186.57404,1220.37036
139,1.15,459.57251,232.86896,1238.42603,551.03644,257.18106,1214.55994,592.552,186.57404,1220.37036
140,1.158,459.7326,233.17473,1238.54858,551.22797,256.61255,1215.15869,592.63605,186.51982,1220.5979
141,1.167,459.82697,233.05952,1238.60669,551.39362,256.74026,1215.30933,592.63605,186.51982,1220.5979
142,1.175,459.69711,232.67415,1238.57153,551.39362,256.74026,1215.30933,592.63605,186.51982,1220.5979
143,1.183,459.83502,232.73882,1238.90894,551.58459,257.04715,1215.35437,592.80249,186.36121,1220.70532
144,1.192,459.65958,232.93307,1239.16663,551.51727,256.70807,1215.33801,592.80249,186.36121,1220.70532
145,1.2,459.75452,232.60815,1238.96033,551.70825,257.01495,1215.38293,593.02893,186.42615,1220.82251
146,1.208,459.89932,232.47441,1239.45068,551.57355,256.45883,1215.43799,593.29834,186.44098,1220.96997
147,1.217,459.39893,233.56679,1239.03406,551.76453,256.76575,1215.48291,592.9552,186.52982,1220.99072
148,1.225,459.80927,232.90926,1239.8988,551.69867,256.23163,1215.57666,593.29834,186.44098,1220.96997
149,1.233,459.77396,232.96773,1240.20483,551.69867,256.23163,1215.57666,593.29834,186.44098,1220.96997
150,1.242,459.77396,232.96773,1240.20483,551.75555,256.53439,1215.5918,593.29834,186.44098,1220.96997
151,1.25,459.77396,232.96773,1240.20483,551.88965,256.53854,1215.6217,593.29834,186.44098,1220.96997
152,1.258,459.77396,232.96773,1240.20483,551.69867,256.23163,1215.57666,593.29834,186.44098,1220.96997
153,1.267,459.78082,232.84256,1239.97046,551.69293,256.06387,1215.72144,593.29834,186.44098,1220.96997
154,1.275,459.99945,232.84695,1239.9563,551.85565,256.31561,1215.74988,593.29834,186.44098,1220.96997
155,1.283,459.99258,232.97211,1240.19055,551.69293,256.06387,1215.72144,593.29834,186.44098,1220.96997
156,1.292,459.99258,232.97211,1240.19055,551.84509,256.16327,1215.92859,593.6366,184.9861,1221.00769
157,1.3,459.77396,232.96773,1240.20483,551.69293,256.06387,1215.72144,593.71661,184.92134,1221.25122
158,1.308,459.99258,232.97211,1240.19055,551.9599,256.08853,1216.18176,593.6366,184.9861,1221.00769
159,1.317,460.35287,232.41975,1240.27014,551.9599,256.08853,1216.18176,593.97241,184.47816,1221.05469
160,1.325,459.9006,232.62221,1240.00415,551.9599,256.08853,1216.18176,593.6366,184.9861,1221.00769
161,1.333,460.34204,231.41931,1239.90393,552.15253,255.82741,1216.12952,593.97241,184.47816,1221.05469
162,1.342,460.19952,231.16722,1240.00537,552.28308,255.7583,1216.22583,593.52728,184.62498,1221.18799
163,1.35,459.98148,232.37793,1239.53772,552.12701,256.10559,1215.88452,593.86304,184.1172,1221.23499
164,1.358,460.53378,231.03148,1240.06311,552.28308,255.7583,1216.22583,593.86304,184.1172,1221.23499
165,1.367,460.53378,231.03148,1240.06311,552.15253,255.82741,1216.12952,593.86304,184.1172,1221.23499
166,1.375,460.4425,231.1349,1239.99744,552.28308,255.7583,1216.22583,593.86304,184.1172,1221.23499
167,1.383,460.4425,231.1349,1239.99744,552.28308,255.7583,1216.22583,593.94812,183.98965,1221.0531
168,1.392,460.4425,231.1349,1239.99744,552.28308,255.7583,1216.22583,593.94812,183.98965,1221.0531
169,1.4,460.4425,231.1349,1239.99744,552.15253,255.82741,1216.12952,593.69122,183.52332,1221.03943
170,1.408,460.25336,231.18761,1239.65491,552.15253,255.82741,1216.12952,593.45569,183.46446,1220.93469
171,1.417,460.4425,231.1349,1239.99744,552.15253,255.82741,1216.12952,593.36053,184.94528,1221.0022
172,1.425,460.48071,231.27736,1239.65381,552.32971,255.52853,1215.71973,593.0174,185.03404,1221.02295
173,1.433,460.2663,231.63011,1239.1825,552.24542,255.60777,1215.64246,593.12103,184.89767,1220.90027
174,1.442,460.33511,231.3932,1239.26758,552.24542,255.60777,1215.64246,592.79095,184.96921,1220.90576
175,1.45,460.2663,231.63011,1239.1825,552.31335,255.67204,1215.57544,593.12103,184.89767,1220.90027
176,1.458,460.4357,231.54292,1239.0791,552.23932,255.774,1215.37915,592.79095,184.96921,1220.90576
177,1.467,460.27765,231.5596,1238.84583,552.23932,255.774,1215.37915,593.12103,184.89767,1220.90027
178,1.475,460.4357,231.54292,1239.0791,552.02203,255.70886,1215.25049,592.79095,184.96921,1220.90576
179,1.483,460.51193,231.569,1239.0343,552.23932,255.774,1215.37915,593.12103,184.89767,1220.90027
180,1.492,460.27765,231.5596,1238.84583,552.34692,255.64708,1215.29028,593.40985,184.73528,1220.78967
181,1.5,460.14896,232.6561,1238.24963,552.10504,256.18451,1214.96631,593.12103,184.89767,1220.90027
182,1.508,460.48993,231.85887,1238.70764,552.02203,255.70886,1215.25049,593.40985,184.73528,1220.78967
183,1.517,460.48993,231.85887,1238.70764,552.23932,255.774,1215.37915,593.08215,185.10924,1220.55322
184,1.525,460.64795,231.84218,1238.94092,552.34692,255.64708,1215.29028,593.45544,184.67874,1220.71094
185,1.533,460.48993,231.85887,1238.70764,552.34692,255.64708,1215.29028,593.40985,184.73528,1220.78967
186,1.542,460.64795,231.84218,1238.94092,552.23932,255.774,1215.37915,593.45544,184.67874,1220.71094
187,1.55,460.64795,231.84218,1238.94092,552.23932,255.774,1215.37915,593.45544,184.67874,1220.71094
188,1.558,460.64795,231.84218,1238.94092,552.23932,255.774,1215.37915,593.65192,185.11147,1220.51868
189,1.567,460.64795,231.84218,1238.94092,552.23932,255.774,1215.37915,593.45544,184.67874,1220.71094
190,1.575,460.64795,231.84218,1238.94092,552.23932,255.774,1215.37915,593.70044,184.70294,1220.78918
191,1.583,460.63431,232.22997,1238.84216,552.23932,255.774,1215.37915,593.89691,185.13571,1220.59705
192,1.592,460.64795,231.84218,1238.94092,552.1441,255.95987,1215.79248,594.09338,185.38191,1220.64575
193,1.6,460.60376,232.52048,1238.6228,552.34692,255.64708,1215.29028,594.09338,185.38191,1220.64575
194,1.608,460.38266,232.97546,1238.32922,552.21942,255.98709,1214.87,594.09338,185.38191,1220.64575
195,1.617,460.63431,232.22997,1238.84216,552.34692,255.64708,1215.29028,594.09338,185.38191,1220.64575
196,1.625,460.63431,232.22997,1238.84216,552.33038,255.81856,1215.18213,594.09338,185.38191,1220.64575
