Frame#,Time,R.Forearm.x,R.Forearm.y,R.Forearm.z,R.Ulna.x,R.Ulna.y,R.Ulna.z,R.Radius.x,R.Radius.y,R.Radius.z
1,0,52.20955,-238.6803,894.07257,154.86661,-227.82292,837.12183,176.18246,-138.23909,893.85724
2,0.008,52.28621,-239.53191,893.72595,154.86661,-227.82292,837.12183,176.18246,-138.23909,893.85724
3,0.017,51.92515,-238.95691,893.67566,154.86661,-227.82292,837.12183,176.18246,-138.23909,893.85724
4,0.025,51.92515,-238.95691,893.67566,154.86661,-227.82292,837.12183,176.18246,-138.23909,893.85724
5,0.033,51.87964,-238.97099,893.10767,154.61272,-228.06235,836.99573,176.18246,-138.23909,893.85724
6,0.042,52.06639,-239.15169,893.1803,154.61272,-228.06235,836.99573,176.83815,-138.36591,893.87201
7,0.05,51.98005,-239.15846,893.06488,154.61272,-228.06235,836.99573,176.18246,-138.23909,893.85724
8,0.058,52.28621,-239.53191,893.72595,154.61272,-228.06235,836.99573,176.83815,-138.36591,893.87201
9,0.067,51.75086,-240.18359,893.30688,154.61272,-228.06235,836.99573,177.36562,-138.6019,893.729
10,0.075,52.04451,-240.46252,893.04364,154.39888,-228.32176,837.06628,177.36562,-138.6019,893.729
11,0.083,52.54077,-240.11993,893.64374,154.39888,-228.32176,837.06628,177.74274,-139.55159,894.06049
12,0.092,52.18904,-240.74124,893.42804,154.79564,-227.90663,836.84515,177.74274,-139.55159,894.06049
13,0.1,52.39064,-240.96666,893.42194,154.61272,-228.06235,836.99573,177.74274,-139.55159,894.06049
14,0.108,52.11509,-240.41969,893.1333,154.48344,-228.40424,836.78564,177.74274,-139.55159,894.06049
15,0.117,52.39064,-240.96666,893.42194,154.35251,-228.47711,836.94617,177.74274,-139.55159,894.06049
16,0.125,52.39064,-240.96666,893.42194,154.23117,-228.52481,836.7146,177.74274,-139.55159,894.06049
17,0.133,52.11509,-240.41969,893.1333,154.23117,-228.52481,836.7146,177.74274,-139.55159,894.06049
18,0.142,51.92692,-240.42567,892.57806,154.48344,-228.40424,836.78564,177.74274,-139.55159,894.06049
19,0.15,51.90214,-238.95995,891.70679,154.35251,-228.47711,836.94617,177.74274,-139.55159,894.06049
20,0.158,52.40704,-239.71864,892.46399,154.23117,-228.52481,836.7146,177.74274,-139.55159,894.06049
21,0.167,52.72704,-238.88925,892.14459,154.36209,-228.45192,836.55408,177.74274,-139.55159,894.06049
22,0.175,52.6087,-239.94424,892.45795,154.36209,-228.45192,836.55408,177.74274,-139.55159,894.06049
23,0.183,52.94761,-239.76025,892.03326,154.36209,-228.45192,836.55408,177.74274,-139.55159,894.06049
24,0.192,52.86811,-239.90649,892.35406,154.36209,-228.45192,836.55408,178.17096,-139.96333,893.64459
25,0.2,52.67236,-239.20291,891.35626,154.42081,-228.32019,835.97711,177.93024,-140.22151,893.13202
26,0.208,52.94761,-239.76025,892.03326,154.42081,-228.32019,835.97711,177.93024,-140.22151,893.13202
27,0.217,52.94761,-239.76025,892.03326,154.42081,-228.32019,835.97711,177.65398,-139.40198,892.72766
28,0.225,52.94761,-239.76025,892.03326,154.42081,-228.32019,835.97711,177.2047,-138.76166,892.29083
29,0.233,52.74639,-239.6898,891.89508,154.4384,-228.54359,835.68195,177.52621,-139.70656,892.75037
30,0.242,53.33139,-240.09021,891.36481,154.4384,-228.54359,835.68195,177.2047,-138.76166,892.29083
31,0.25,52.47215,-239.30046,890.97852,154.42081,-228.32019,835.97711,177.23233,-138.35838,891.88507
32,0.258,52.64487,-239.44281,890.8028,154.42081,-228.32019,835.97711,177.57407,-139.38309,892.40021
33,0.267,52.64487,-239.44281,890.8028,154.4384,-228.54359,835.68195,177.52621,-139.70656,892.75037
34,0.275,52.35731,-239.24016,890.64832,154.4384,-228.54359,835.68195,177.57407,-139.38309,892.40021
35,0.283,52.64487,-239.44281,890.8028,154.41336,-228.71974,835.49182,177.26917,-139.48798,892.19507
36,0.292,52.09719,-238.97556,890.55872,154.41336,-228.71974,835.49182,177.25961,-139.67796,891.95404
37,0.3,52.35731,-239.24016,890.64832,154.41545,-228.72041,834.96802,176.95724,-138.70753,891.41449
38,0.308,52.35731,-239.24016,890.64832,154.41545,-228.72041,834.96802,177.25961,-139.67796,891.95404
39,0.317,52.35731,-239.24016,890.64832,154.73351,-228.29688,834.53125,176.95724,-138.70753,891.41449
40,0.325,52.35731,-239.24016,890.64832,154.73351,-228.29688,834.53125,177.0786,-139.5144,891.5423
41,0.333,52.90553,-239.41685,890.68317,155.05042,-228.27446,834.43121,177.17249,-139.58926,891.32227
42,0.342,52.711,-238.4221,890.97382,155.05042,-228.27446,834.43121,176.88058,-138.58446,890.71222
43,0.35,52.55325,-239.75923,890.2356,155.40993,-228.46967,834.20599,176.88058,-138.58446,890.71222
44,0.358,52.55325,-239.75923,890.2356,155.40993,-228.46967,834.20599,176.88058,-138.58446,890.71222
45,0.367,52.55325,-239.75923,890.2356,155.39319,-228.85719,833.87317,176.88058,-138.58446,890.71222
46,0.375,52.58435,-239.89294,890.03406,155.39319,-228.85719,833.87317,176.88058,-138.58446,890.71222
47,0.383,52.86927,-240.07263,890.16119,155.39319,-228.85719,833.87317,176.88058,-138.58446,890.71222
48,0.392,52.58435,-239.89294,890.03406,155.39319,-228.85719,833.87317,176.88058,-138.58446,890.71222
49,0.4,52.58435,-239.89294,890.03406,155.16321,-229.04228,833.7663,177.15355,-139.05296,890.55878
50,0.408,53.10184,-240.20865,889.81451,155.31088,-228.59433,833.66351,177.81496,-138.67296,890.06152
51,0.417,52.92582,-239.78259,889.72748,155.08087,-228.77942,833.55658,177.81496,-138.67296,890.06152
52,0.425,53.44076,-240.35548,889.48541,155.08087,-228.77942,833.55658,177.81496,-138.67296,890.06152
53,0.433,53.58499,-240.55542,889.44501,155.08087,-228.77942,833.55658,177.81496,-138.67296,890.06152
54,0.442,53.58499,-240.55542,889.44501,155.08087,-228.77942,833.55658,177.81496,-138.67296,890.06152
55,0.45,53.58499,-240.55542,889.44501,155.08087,-228.77942,833.55658,177.81496,-138.67296,890.06152
56,0.458,53.32508,-240.44238,889.34717,155.15826,-228.5396,833.16675,176.40273,-137.43918,890.17194
57,0.467,53.58499,-240.55542,889.44501,155.02335,-229.00215,833.04022,176.40273,-137.43918,890.17194
58,0.475,53.38529,-240.70218,889.35559,155.02335,-229.00215,833.04022,177.81496,-138.67296,890.06152
59,0.483,53.58499,-240.55542,889.44501,155.02335,-229.00215,833.04022,177.57205,-139.26817,890.41382
60,0.492,53.58499,-240.55542,889.44501,155.09904,-229.00243,833.26141,177.57205,-139.26817,890.41382
61,0.5,53.38529,-240.70218,889.35559,155.09904,-229.00243,833.26141,177.57205,-139.26817,890.41382
62,0.508,53.38529,-240.70218,889.35559,155.19431,-229.21239,833.17474,177.57205,-139.26817,890.41382
63,0.517,53.58499,-240.55542,889.44501,155.09904,-229.00243,833.26141,177.57205,-139.26817,890.41382
64,0.525,53.38529,-240.70218,889.35559,155.09904,-229.00243,833.26141,177.57205,-139.26817,890.41382
65,0.533,53.78942,-239.541,889.69434,155.20262,-229.27863,833.63934,177.57205,-139.26817,890.41382
66,0.542,53.78942,-239.541,889.69434,155.09904,-229.00243,833.26141,177.57205,-139.26817,890.41382
67,0.55,53.58499,-240.55542,889.44501,155.19431,-229.21239,833.17474,177.57205,-139.26817,890.41382
68,0.558,53.90955,-240.60223,889.44128,155.19431,-229.21239,833.17474,177.57205,-139.26817,890.41382
69,0.567,53.90955,-240.60223,889.44128,155.29787,-229.48856,833.55267,178.383,-140.46309,890.99298
70,0.575,53.90955,-240.60223,889.44128,155.29787,-229.48856,833.55267,178.383,-140.46309,890.99298
71,0.583,53.90955,-240.60223,889.44128,155.29787,-229.48856,833.55267,178.383,-140.46309,890.99298
72,0.592,53.90955,-240.60223,889.44128,155.29787,-229.48856,833.55267,178.383,-140.46309,890.99298
73,0.6,53.90955,-240.60223,889.44128,155.29787,-229.48856,833.55267,178.383,-140.46309,890.99298
74,0.608,53.90955,-240.60223,889.44128,155.29787,-229.48856,833.55267,178.383,-140.46309,890.99298
75,0.617,53.90955,-240.60223,889.44128,155.20262,-229.27863,833.63934,178.383,-140.46309,890.99298
76,0.625,53.90955,-240.60223,889.44128,155.29787,-229.48856,833.55267,178.383,-140.46309,890.99298
77,0.633,54.07246,-240.6427,889.56879,155.29787,-229.48856,833.55267,178.6261,-139.86818,890.64081
78,0.642,53.90955,-240.60223,889.44128,155.55614,-229.67157,833.63293,178.6261,-139.86818,890.64081
79,0.65,54.07246,-240.6427,889.56879,155.66371,-229.2809,833.79858,178.6261,-139.86818,890.64081
80,0.658,54.07246,-240.6427,889.56879,155.7861,-229.48653,833.73981,178.6261,-139.86818,890.64081
81,0.667,54.05218,-240.83696,889.9931,155.86246,-228.99342,833.64038,178.6261,-139.86818,890.64081
82,0.675,54.18296,-240.59225,890.03302,156.38846,-228.39235,833.60736,178.6261,-139.86818,890.64081
83,0.683,54.31561,-240.60538,890.13708,156.38846,-228.39235,833.60736,178.6261,-139.86818,890.64081
84,0.692,54.31561,-240.60538,890.13708,156.13016,-228.20918,833.5271,177.81496,-138.67296,890.06152
85,0.7,54.31561,-240.60538,890.13708,156.26605,-228.18658,833.66608,178.16167,-138.60587,890.2243
86,0.708,54.51264,-240.62457,890.03192,156.26605,-228.18658,833.66608,178.16167,-138.60587,890.2243
87,0.717,54.53649,-240.52788,890.27722,156.26605,-228.18658,833.66608,178.16167,-138.60587,890.2243
88,0.725,54.51264,-240.62457,890.03192,156.0349,-227.99905,833.61371,178.16167,-138.60587,890.2243
89,0.733,54.51264,-240.62457,890.03192,156.26605,-228.18658,833.66608,178.16167,-138.60587,890.2243
90,0.742,54.51264,-240.62457,890.03192,156.26605,-228.18658,833.66608,178.26775,-138.27852,890.25824
91,0.75,54.51264,-240.62457,890.03192,156.26605,-228.18658,833.66608,178.26775,-138.27852,890.25824
92,0.758,54.43663,-240.43916,889.48682,156.26605,-228.18658,833.66608,178.26775,-138.27852,890.25824
93,0.767,54.51264,-240.62457,890.03192,156.26605,-228.18658,833.66608,178.26775,-138.27852,890.25824
94,0.775,55.15155,-238.0957,889.60632,156.18375,-227.92374,833.45648,178.7955,-138.51505,890.11584
95,0.783,55.48563,-239.35387,889.21973,156.57005,-227.49301,833.47711,178.90939,-138.41777,890.25604
96,0.792,55.37296,-238.93172,889.33972,156.57005,-227.49301,833.47711,179.73898,-138.2532,889.8988
97,0.8,55.80524,-237.99147,889.53064,156.57005,-227.49301,833.47711,179.46657,-137.78503,890.05212
98,0.808,55.70672,-238.86635,889.31433,156.57005,-227.49301,833.47711,179.73898,-138.2532,889.8988
99,0.817,55.77805,-239.1013,890.01953,156.57005,-227.49301,833.47711,179.73898,-138.2532,889.8988
100,0.825,55.79771,-239.41335,889.80927,156.57005,-227.49301,833.47711,179.46657,-137.78503,890.05212
101,0.833,55.79771,-239.41335,889.80927,156.57005,-227.49301,833.47711,180.17395,-137.78734,889.92444
102,0.842,55.81635,-239.27881,889.19427,156.57005,-227.49301,833.47711,180.17395,-137.78734,889.92444
103,0.85,55.81635,-239.27881,889.19427,156.57005,-227.49301,833.47711,180.17395,-137.78734,889.92444
104,0.858,55.70672,-238.86635,889.31433,156.60071,-227.32866,833.63989,179.90154,-137.31911,890.07764
105,0.867,55.77805,-239.1013,890.01953,156.60071,-227.32866,833.63989,179.90154,-137.31911,890.07764
106,0.875,56.00702,-238.89551,890.10516,156.94624,-227.15292,833.69171,179.90154,-137.31911,890.07764
107,0.883,55.77805,-239.1013,890.01953,156.63596,-227.18724,833.78644,179.90154,-137.31911,890.07764
108,0.892,55.77805,-239.1013,890.01953,156.63596,-227.18724,833.78644,179.90154,-137.31911,890.07764
109,0.9,55.70672,-238.86635,889.31433,156.94624,-227.15292,833.69171,179.90154,-137.31911,890.07764
110,0.908,55.95731,-238.68486,889.41718,156.98149,-227.01146,833.83832,179.90154,-137.31911,890.07764
111,0.917,55.77805,-239.1013,890.01953,157.02849,-227.41576,833.90125,179.80502,-136.77861,889.60925
112,0.925,55.70672,-238.86635,889.31433,156.683,-227.59151,833.84943,179.90154,-137.31911,890.07764
113,0.933,55.77805,-239.1013,890.01953,156.683,-227.59151,833.84943,179.90154,-137.31911,890.07764
114,0.942,55.70672,-238.86635,889.31433,157.02849,-227.41576,833.90125,179.46657,-137.78503,890.05212
115,0.95,55.70672,-238.86635,889.31433,156.65234,-227.75584,833.68671,180.17395,-137.78734,889.92444
116,0.958,56.00702,-238.89551,890.10516,156.57005,-227.49301,833.47711,180.17395,-137.78734,889.92444
117,0.967,55.70672,-238.86635,889.31433,156.57005,-227.49301,833.47711,179.73898,-138.2532,889.8988
118,0.975,55.77805,-239.1013,890.01953,156.65234,-227.75584,833.68671,179.73898,-138.2532,889.8988
119,0.983,55.77805,-239.1013,890.01953,157.35721,-228.24002,833.81909,179.73898,-138.2532,889.8988
120,0.992,55.77805,-239.1013,890.01953,157.47964,-228.44574,833.76031,179.73898,-138.2532,889.8988
121,1,55.79771,-239.41335,889.80927,157.35721,-228.24002,833.81909,179.73898,-138.2532,889.8988
122,1.008,55.77805,-239.1013,890.01953,157.47964,-228.44574,833.76031,179.73898,-138.2532,889.8988
123,1.017,56.07638,-239.25818,890.26849,156.65234,-227.75584,833.68671,179.73898,-138.2532,889.8988
124,1.025,55.79771,-239.41335,889.80927,156.65234,-227.75584,833.68671,179.73898,-138.2532,889.8988
125,1.033,56.06655,-238.33702,890.24359,157.35721,-228.24002,833.81909,179.73898,-138.2532,889.8988
126,1.042,55.93784,-239.22908,890.14563,157.35721,-228.24002,833.81909,179.73898,-138.2532,889.8988
127,1.05,55.91743,-238.23572,890.13855,157.38788,-228.07578,833.98181,179.73898,-138.2532,889.8988
128,1.058,55.91659,-239.1304,890.14246,157.38788,-228.07578,833.98181,179.73898,-138.2532,889.8988
129,1.067,55.77805,-239.1013,890.01953,157.42313,-227.93439,834.12836,179.73898,-138.2532,889.8988
130,1.075,55.91659,-239.1304,890.14246,157.42313,-227.93439,834.12836,179.73898,-138.2532,889.8988
131,1.083,56.04511,-238.25829,890.24261,157.42313,-227.93439,834.12836,179.73898,-138.2532,889.8988
132,1.092,56.3295,-238.32213,890.82056,157.03677,-228.36508,834.10773,179.73898,-138.2532,889.8988
133,1.1,56.07638,-239.25818,890.26849,157.42313,-227.93439,834.12836,179.73898,-138.2532,889.8988
134,1.108,56.07638,-239.25818,890.26849,157.42313,-227.93439,834.12836,179.73898,-138.2532,889.8988
135,1.117,56.39032,-238.10954,890.99939,157.58505,-228.15605,834.09143,179.73898,-138.2532,889.8988
136,1.125,56.40449,-237.96193,890.64276,157.38788,-228.07578,833.98181,179.73898,-138.2532,889.8988
137,1.133,56.25508,-238.14706,890.52649,157.38788,-228.07578,833.98181,179.73898,-138.2532,889.8988
138,1.142,56.40449,-237.96193,890.64276,157.50562,-228.1971,834.33789,179.73898,-138.2532,889.8988
139,1.15,56.25508,-238.14706,890.52649,157.42313,-227.93439,834.12836,179.73898,-138.2532,889.8988
140,1.158,56.31864,-238.76262,890.60394,157.50562,-228.1971,834.33789,179.46657,-137.78503,890.05212
141,1.167,56.31864,-238.76262,890.60394,157.50562,-228.1971,834.33789,179.46657,-137.78503,890.05212
142,1.175,56.1589,-238.63483,890.47791,157.50562,-228.1971,834.33789,179.46657,-137.78503,890.05212
143,1.183,56.04041,-238.49669,890.64941,157.8511,-228.02129,834.38965,179.46657,-137.78503,890.05212
144,1.192,56.38995,-238.51204,890.79529,157.8511,-228.02129,834.38965,179.90154,-137.31911,890.07764
145,1.2,56.38995,-238.51204,890.79529,157.8511,-228.02129,834.38965,180.37955,-137.2924,890.22632
146,1.208,56.38995,-238.51204,890.79529,157.76868,-227.75861,834.18018,180.37955,-137.2924,890.22632
147,1.217,56.51734,-238.6189,890.64771,157.76868,-227.75861,834.18018,180.37955,-137.2924,890.22632
148,1.225,56.32174,-238.29944,890.87183,157.76868,-227.75861,834.18018,181.01303,-137.40053,890.25842
149,1.233,56.51734,-238.6189,890.64771,157.76868,-227.75861,834.18018,181.01303,-137.40053,890.25842
150,1.242,56.51734,-238.6189,890.64771,157.76868,-227.75861,834.18018,181.01303,-137.40053,890.25842
151,1.25,56.51734,-238.6189,890.64771,157.92485,-227.50981,834.2099,181.01303,-137.40053,890.25842
152,1.258,56.51734,-238.6189,890.64771,157.92485,-227.50981,834.2099,181.01303,-137.40053,890.25842
153,1.267,56.51734,-238.6189,890.64771,158.40726,-227.43787,834.09784,181.01303,-137.40053,890.25842
154,1.275,56.44914,-238.40633,890.72424,158.40726,-227.43787,834.09784,181.01303,-137.40053,890.25842
155,1.283,56.51734,-238.6189,890.64771,158.40726,-227.43787,834.09784,180.90054,-136.8372,889.79932
156,1.292,56.43319,-238.2608,890.17688,158.91837,-227.21286,834.13776,180.90054,-136.8372,889.79932
157,1.3,56.51734,-238.6189,890.64771,158.91837,-227.21286,834.13776,181.01303,-137.40053,890.25842
158,1.308,56.44914,-238.40633,890.72424,158.91837,-227.21286,834.13776,180.90054,-136.8372,889.79932
159,1.317,56.51734,-238.6189,890.64771,158.91837,-227.21286,834.13776,180.90054,-136.8372,889.79932
160,1.325,56.51734,-238.6189,890.64771,158.91837,-227.21286,834.13776,180.90054,-136.8372,889.79932
161,1.333,56.44914,-238.40633,890.72424,159.20558,-226.89142,834.00708,180.90054,-136.8372,889.79932
162,1.342,56.44914,-238.40633,890.72424,159.20558,-226.89142,834.00708,180.90054,-136.8372,889.79932
163,1.35,56.44914,-238.40633,890.72424,159.20558,-226.89142,834.00708,180.90054,-136.8372,889.79932
164,1.358,56.44914,-238.40633,890.72424,159.20558,-226.89142,834.00708,181.05397,-136.4989,889.54987
165,1.367,56.44914,-238.40633,890.72424,159.44041,-226.60657,833.69781,181.05397,-136.4989,889.54987
166,1.375,56.43319,-238.2608,890.17688,159.12354,-226.62872,833.79767,180.90054,-136.8372,889.79932
167,1.383,56.43319,-238.2608,890.17688,159.44041,-226.60657,833.69781,181.05397,-136.4989,889.54987
168,1.392,56.43319,-238.2608,890.17688,158.765,-225.93727,833.34351,181.05397,-136.4989,889.54987
169,1.4,56.43319,-238.2608,890.17688,158.765,-225.93727,833.34351,181.05397,-136.4989,889.54987
170,1.408,56.43319,-238.2608,890.17688,158.765,-225.93727,833.34351,181.05397,-136.4989,889.54987
171,1.417,56.7415,-238.45601,889.95215,159.47028,-226.42171,833.47589,181.05397,-136.4989,889.54987
172,1.425,56.62341,-238.19826,890.03571,159.47028,-226.42171,833.47589,181.05397,-136.4989,889.54987
173,1.433,56.45621,-238.1701,890.45044,159.88742,-225.82652,833.65918,181.05397,-136.4989,889.54987
174,1.442,57.00441,-236.79427,889.73767,159.88742,-225.82652,833.65918,181.05397,-136.4989,889.54987
175,1.45,57.41335,-236.8593,890.00452,159.18207,-225.34181,833.52679,181.05397,-136.4989,889.54987
176,1.458,57.16084,-237.56927,889.80292,159.18207,-225.34181,833.52679,181.36223,-136.1828,889.36273
177,1.467,57.50459,-237.69339,889.84186,159.18207,-225.34181,833.52679,181.36223,-136.1828,889.36273
178,1.475,57.76743,-237.68965,889.74969,159.18207,-225.34181,833.52679,181.36223,-136.1828,889.36273
179,1.483,57.38645,-237.43542,889.92542,159.18207,-225.34181,833.52679,181.75266,-136.3598,889.23456
180,1.492,57.85706,-236.55888,890.52588,159.88742,-225.82652,833.65918,182.1051,-136.30066,889.39374
181,1.5,57.43171,-237.07086,890.31573,159.88742,-225.82652,833.65918,181.70935,-136.08997,889.56305
182,1.508,57.89334,-237.17314,890.86176,159.88742,-225.82652,833.65918,182.1051,-136.30066,889.39374
183,1.517,57.89334,-237.17314,890.86176,159.88742,-225.82652,833.65918,181.70935,-136.08997,889.56305
184,1.525,57.89334,-237.17314,890.86176,159.88742,-225.82652,833.65918,181.70935,-136.08997,889.56305
185,1.533,57.89334,-237.17314,890.86176,159.88742,-225.82652,833.65918,182.05309,-135.85056,889.65527
186,1.542,58.14389,-236.99199,890.96472,159.88742,-225.82652,833.65918,182.18584,-135.58167,889.70172
187,1.55,57.88115,-236.99579,891.05688,159.88742,-225.82652,833.65918,182.15337,-135.37936,889.94824
188,1.558,58.11027,-236.73421,891.86823,160.12405,-225.92293,833.79083,182.33389,-135.54303,890.35992
189,1.567,58.36242,-237.94188,892.28149,160.09418,-226.10777,834.0127,182.33389,-135.54303,890.35992
190,1.575,58.16571,-237.86745,892.51624,159.99219,-226.30911,834.35913,182.33389,-135.54303,890.35992
191,1.583,58.16571,-237.86745,892.51624,159.99219,-226.30911,834.35913,182.28563,-135.86652,890.71014
192,1.592,58.80746,-237.37318,892.5437,160.41451,-226.01192,834.69757,182.2532,-135.6644,890.95673
193,1.6,58.66582,-236.86665,892.77155,160.53577,-225.96437,834.92889,182.6002,-135.57182,891.15717
194,1.608,58.54862,-237.39484,892.625,160.63959,-226.24005,835.30615,182.37987,-135.77075,891.31598
195,1.617,58.71925,-237.21077,893.12573,160.63959,-226.24005,835.30615,182.74577,-135.61267,891.5351
196,1.625,58.9735,-237.69104,893.70648,160.9196,-226.51054,835.33514,182.70618,-135.95068,892.06525
197,1.633,58.73239,-237.64427,893.83002,161.14445,-226.35306,835.4151,182.61264,-135.80786,892.31641
198,1.642,58.73239,-237.64427,893.83002,161.14445,-226.35306,835.4151,182.61264,-135.80786,892.31641
