Frame#,Time,L.Forearm.x,L.Forearm.y,L.Forearm.z,L.Ulna.x,L.Ulna.y,L.Ulna.z,L.Radius.x,L.Radius.y,L.Radius.z
1,0,-234.91563,312.13208,771.81836,-144.66716,326.76453,696.76282,-108.80151,232.9072,732.56055
2,0.008,-234.91563,312.13208,771.81836,-144.66716,326.76453,696.76282,-109.21972,232.96106,732.58545
3,0.017,-234.69565,311.99094,772.19861,-144.66716,326.76453,696.76282,-108.80151,232.9072,732.56055
4,0.025,-234.69565,311.99094,772.19861,-144.66716,326.76453,696.76282,-109.21972,232.96106,732.58545
5,0.033,-234.69565,311.99094,772.19861,-144.66716,326.76453,696.76282,-109.21972,232.96106,732.58545
6,0.042,-234.84492,311.81058,772.4472,-144.6322,326.47141,697.091,-109.21972,232.96106,732.58545
7,0.05,-235.06993,312.09146,772.90253,-144.43202,326.36969,697.11377,-108.93641,233.46024,733.09869
8,0.058,-235.06993,312.09146,772.90253,-144.09056,326.65567,697.24847,-108.92368,233.28522,733.29016
9,0.067,-235.06993,312.09146,772.90253,-144.03299,326.54233,697.33124,-108.92368,233.28522,733.29016
10,0.075,-235.06993,312.09146,772.90253,-143.98036,325.87042,697.42468,-108.92368,233.28522,733.29016
11,0.083,-235.06993,312.09146,772.90253,-143.98036,325.87042,697.42468,-108.62099,233.02444,733.3587
12,0.092,-234.87874,312.09799,773.02563,-143.98036,325.87042,697.42468,-108.15496,232.91336,733.28674
13,0.1,-234.7729,311.83966,773.09985,-143.98036,325.87042,697.42468,-108.15496,232.91336,733.28674
14,0.108,-234.7729,311.83966,773.09985,-143.98036,325.87042,697.42468,-108.15496,232.91336,733.28674
15,0.117,-234.7729,311.83966,773.09985,-143.98036,325.87042,697.42468,-108.15496,232.91336,733.28674
16,0.125,-234.7729,311.83966,773.09985,-143.77347,325.87451,697.83765,-108.13619,233.04486,733.12122
17,0.133,-234.54892,311.52478,772.66669,-143.98036,325.87042,697.42468,-108.15496,232.91336,733.28674
18,0.142,-234.33983,311.30481,772.52484,-143.98036,325.87042,697.42468,-108.13619,233.04486,733.12122
19,0.15,-234.33983,311.30481,772.52484,-143.30577,325.65234,697.8717,-107.87061,232.94377,733.03473
20,0.158,-234.54892,311.52478,772.66669,-143.30577,325.65234,697.8717,-107.87061,232.94377,733.03473
21,0.167,-234.57768,311.98315,773.13507,-143.30577,325.65234,697.8717,-107.17931,231.85114,733.12946
22,0.175,-234.36858,311.76315,772.99329,-142.97498,325.44403,697.6969,-107.17931,231.85114,733.12946
23,0.183,-233.88065,312.31122,773.71844,-142.97498,325.44403,697.6969,-106.89281,231.99591,733.27026
24,0.192,-234.09105,312.53143,773.83356,-142.97498,325.44403,697.6969,-107.23435,231.75209,733.2854
25,0.2,-234.09105,312.53143,773.83356,-142.97498,325.44403,697.6969,-106.89281,231.99591,733.27026
26,0.208,-233.95207,312.62738,774.10382,-142.97498,325.44403,697.6969,-106.94785,231.89687,733.42621
27,0.217,-233.66766,311.79785,774.14502,-142.97498,325.44403,697.6969,-106.94785,231.89687,733.42621
28,0.225,-233.7429,312.20395,774.53235,-142.97498,325.44403,697.6969,-106.77734,231.65347,733.57587
29,0.233,-233.56042,312.1423,775.00598,-142.97498,325.44403,697.6969,-106.66216,231.2395,733.97357
30,0.242,-233.49849,312.05899,775.42053,-142.82829,325.32153,697.75696,-106.66216,231.2395,733.97357
31,0.25,-233.5275,311.86157,775.32764,-142.82829,325.32153,697.75696,-106.65387,231.07735,734.15393
32,0.258,-233.5275,311.86157,775.32764,-142.82829,325.32153,697.75696,-106.65387,231.07735,734.15393
33,0.267,-233.5275,311.86157,775.32764,-142.82829,325.32153,697.75696,-106.65387,231.07735,734.15393
34,0.275,-233.5275,311.86157,775.32764,-142.82829,325.32153,697.75696,-106.24164,230.71306,734.258
35,0.283,-233.5275,311.86157,775.32764,-142.82829,325.32153,697.75696,-106.24164,230.71306,734.258
36,0.292,-233.45212,311.45544,774.94049,-142.82829,325.32153,697.75696,-106.24164,230.71306,734.258
37,0.3,-233.78735,310.59998,774.32184,-142.82829,325.32153,697.75696,-106.24164,230.71306,734.258
38,0.308,-233.24174,311.23523,774.82538,-142.82829,325.32153,697.75696,-106.24164,230.71306,734.258
39,0.317,-233.78735,310.59998,774.32184,-142.82829,325.32153,697.75696,-106.24164,230.71306,734.258
40,0.325,-233.24174,311.23523,774.82538,-142.82829,325.32153,697.75696,-106.24164,230.71306,734.258
41,0.333,-232.65399,310.80313,774.98053,-142.82829,325.32153,697.75696,-106.24164,230.71306,734.258
42,0.342,-232.65399,310.80313,774.98053,-142.82829,325.32153,697.75696,-106.24164,230.71306,734.258
43,0.35,-232.65399,310.80313,774.98053,-142.82829,325.32153,697.75696,-106.24164,230.71306,734.258
44,0.358,-232.65399,310.80313,774.98053,-142.82829,325.32153,697.75696,-106.24164,230.71306,734.258
45,0.367,-232.25778,310.51401,775.16681,-142.82829,325.32153,697.75696,-106.24164,230.71306,734.258
46,0.375,-232.25778,310.51401,775.16681,-142.25032,325.13596,698.14014,-106.24164,230.71306,734.258
47,0.383,-232.25778,310.51401,775.16681,-142.25032,325.13596,698.14014,-106.24164,230.71306,734.258
48,0.392,-232.25778,310.51401,775.16681,-142.25032,325.13596,698.14014,-106.24164,230.71306,734.258
49,0.4,-232.24437,310.51025,775.41559,-142.12334,324.74673,698.38141,-106.24164,230.71306,734.258
50,0.408,-232.21542,310.70758,775.50842,-142.12334,324.74673,698.38141,-106.24164,230.71306,734.258
51,0.417,-232.21542,310.70758,775.50842,-142.12334,324.74673,698.38141,-106.24164,230.71306,734.258
52,0.425,-232.68878,310.15176,775.13361,-141.96254,324.75662,698.53937,-106.24164,230.71306,734.258
53,0.433,-232.68604,309.8551,775.42389,-141.96254,324.75662,698.53937,-106.24164,230.71306,734.258
54,0.442,-232.18225,310.45197,775.74915,-141.86913,324.97293,698.93445,-106.24164,230.71306,734.258
55,0.45,-232.68604,309.8551,775.42389,-141.75066,325.18152,699.31873,-106.24164,230.71306,734.258
56,0.458,-232.68604,309.8551,775.42389,-141.79865,324.96655,699.43225,-105.93641,230.46783,734.58276
57,0.467,-232.71497,310.31259,775.89227,-141.91713,324.75797,699.04797,-105.93641,230.46783,734.58276
58,0.475,-232.68604,309.8551,775.42389,-141.92493,324.88892,699.02997,-106.24164,230.71306,734.258
59,0.483,-232.68604,309.8551,775.42389,-141.86913,324.97293,698.93445,-106.24164,230.71306,734.258
60,0.492,-232.68604,309.8551,775.42389,-141.86913,324.97293,698.93445,-106.24164,230.71306,734.258
61,0.5,-232.74667,309.62021,775.31207,-142.12334,324.74673,698.38141,-106.24164,230.71306,734.258
62,0.508,-232.68604,309.8551,775.42389,-142.12334,324.74673,698.38141,-106.24164,230.71306,734.258
63,0.517,-232.68604,309.8551,775.42389,-142.12334,324.74673,698.38141,-106.24164,230.71306,734.258
64,0.525,-232.74667,309.62021,775.31207,-142.12334,324.74673,698.38141,-106.24164,230.71306,734.258
65,0.533,-232.74667,309.62021,775.31207,-142.12334,324.74673,698.38141,-106.24164,230.71306,734.258
66,0.542,-232.68604,309.8551,775.42389,-142.12334,324.74673,698.38141,-106.24164,230.71306,734.258
67,0.55,-232.1824,309.51935,775.47345,-142.12334,324.74673,698.38141,-106.24164,230.71306,734.258
68,0.558,-232.71497,310.31259,775.89227,-142.17917,324.66272,698.47699,-106.24164,230.71306,734.258
69,0.567,-232.79112,310.29391,775.94409,-141.96254,324.75662,698.53937,-106.24164,230.71306,734.258
70,0.575,-232.71497,310.31259,775.89227,-141.97293,324.67392,699.14349,-106.24164,230.71306,734.258
71,0.583,-232.71497,310.31259,775.89227,-141.79865,324.96655,699.43225,-105.93641,230.46783,734.58276
72,0.592,-232.21143,309.97687,775.94171,-141.74088,324.83524,699.53137,-106.01317,230.19307,734.8009
73,0.6,-232.06406,310.11319,776.15192,-141.74088,324.83524,699.53137,-106.01317,230.19307,734.8009
74,0.608,-232.0033,310.0209,776.65179,-141.74088,324.83524,699.53137,-105.93641,230.46783,734.58276
75,0.617,-232.0033,310.0209,776.65179,-141.55199,324.79419,699.75739,-106.01317,230.19307,734.8009
76,0.625,-232.0033,310.0209,776.65179,-141.55199,324.79419,699.75739,-106.01317,230.19307,734.8009
77,0.633,-232.0033,310.0209,776.65179,-141.55199,324.79419,699.75739,-105.74017,229.89856,734.93127
78,0.642,-232.21648,309.931,776.94318,-141.55199,324.79419,699.75739,-106.01317,230.19307,734.8009
79,0.65,-232.21648,309.931,776.94318,-141.74088,324.83524,699.53137,-106.01317,230.19307,734.8009
80,0.658,-232.21648,309.931,776.94318,-141.74088,324.83524,699.53137,-106.01317,230.19307,734.8009
81,0.667,-232.53148,310.40985,777.0108,-141.74088,324.83524,699.53137,-106.01317,230.19307,734.8009
82,0.675,-232.53148,310.40985,777.0108,-141.74088,324.83524,699.53137,-105.93641,230.46783,734.58276
83,0.683,-232.21648,309.931,776.94318,-141.74088,324.83524,699.53137,-105.93641,230.46783,734.58276
84,0.692,-232.21648,309.931,776.94318,-141.74088,324.83524,699.53137,-106.01317,230.19307,734.8009
85,0.7,-232.53148,310.40985,777.0108,-141.74088,324.83524,699.53137,-105.93641,230.46783,734.58276
86,0.708,-232.53148,310.40985,777.0108,-141.74088,324.83524,699.53137,-105.72388,230.63246,734.66034
87,0.717,-232.21648,309.931,776.94318,-141.40466,325.28012,699.60754,-105.93641,230.46783,734.58276
88,0.725,-232.53148,310.40985,777.0108,-141.21576,325.23904,699.83356,-105.46525,230.59264,734.86157
89,0.733,-232.49397,310.37714,777.02576,-141.21576,325.23904,699.83356,-105.46525,230.59264,734.86157
90,0.742,-232.53148,310.40985,777.0108,-141.21576,325.23904,699.83356,-105.19222,230.29807,734.992
91,0.75,-232.08864,310.14612,777.448,-141.21576,325.23904,699.83356,-105.46525,230.59264,734.86157
92,0.758,-232.03044,310.07419,777.49152,-141.21576,325.23904,699.83356,-105.19222,230.29807,734.992
93,0.767,-232.03044,310.07419,777.49152,-141.45026,325.41629,700.07208,-105.19222,230.29807,734.992
94,0.775,-232.03044,310.07419,777.49152,-141.45026,325.41629,700.07208,-105.19222,230.29807,734.992
95,0.783,-232.03044,310.07419,777.49152,-141.45026,325.41629,700.07208,-105.07652,229.88438,735.38983
96,0.792,-232.05249,309.91833,777.85242,-141.45026,325.41629,700.07208,-105.09773,231.0047,735.25702
97,0.8,-232.05249,309.91833,777.85242,-140.9826,325.19458,700.1062,-104.98201,230.59097,735.65472
98,0.808,-232.03651,309.86871,777.62354,-140.96405,325.27988,700.66846,-104.98201,230.59097,735.65472
99,0.817,-231.83315,309.77847,778.2323,-140.96405,325.27988,700.66846,-104.98201,230.59097,735.65472
100,0.825,-231.83315,309.77847,778.2323,-140.96405,325.27988,700.66846,-104.98201,230.59097,735.65472
101,0.833,-231.83917,309.57291,778.36432,-140.96405,325.27988,700.66846,-104.98201,230.59097,735.65472
102,0.842,-231.83917,309.57291,778.36432,-140.96405,325.27988,700.66846,-104.98201,230.59097,735.65472
103,0.85,-231.52408,309.09387,778.29688,-140.9826,325.19458,700.1062,-105.02824,230.66847,734.96912
104,0.858,-231.51807,309.29947,778.16479,-140.9826,325.19458,700.1062,-105.02824,230.66847,734.96912
105,0.867,-231.51807,309.29947,778.16479,-140.9826,325.19458,700.1062,-105.02824,230.66847,734.96912
106,0.875,-231.71539,309.59521,777.42401,-140.9826,325.19458,700.1062,-105.02824,230.66847,734.96912
107,0.883,-231.71539,309.59521,777.42401,-140.78693,325.0249,699.82233,-105.02824,230.66847,734.96912
108,0.892,-231.71539,309.59521,777.42401,-140.9826,325.19458,700.1062,-105.02824,230.66847,734.96912
109,0.9,-231.71539,309.59521,777.42401,-140.78693,325.0249,699.82233,-105.02824,230.66847,734.96912
110,0.908,-231.50226,309.68515,777.13263,-140.57239,324.90277,699.8587,-105.02824,230.66847,734.96912
111,0.917,-231.50226,309.68515,777.13263,-140.57239,324.90277,699.8587,-105.02824,230.66847,734.96912
112,0.925,-231.50226,309.68515,777.13263,-140.57239,324.90277,699.8587,-105.02824,230.66847,734.96912
113,0.933,-231.50226,309.68515,777.13263,-140.02797,324.76199,699.79822,-104.86402,231.03851,734.94623
114,0.942,-231.71539,309.59521,777.42401,-140.02797,324.76199,699.79822,-104.93354,231.37486,735.23419
115,0.95,-231.28288,309.54538,777.51257,-140.02797,324.76199,699.79822,-104.93354,231.37486,735.23419
116,0.958,-230.69022,309.60153,777.70331,-140.01701,324.93716,700.49487,-104.93354,231.37486,735.23419
117,0.967,-230.75542,309.79532,777.6015,-140.01701,324.93716,700.49487,-104.81779,230.96109,735.63184
118,0.975,-230.99066,309.54932,778.25366,-140.01701,324.93716,700.49487,-104.81779,230.96109,735.63184
119,0.983,-230.99066,309.54932,778.25366,-140.03322,325.05435,701.36084,-104.81779,230.96109,735.63184
120,0.992,-230.99066,309.54932,778.25366,-140.03322,325.05435,701.36084,-104.81779,230.96109,735.63184
121,1,-231.51807,309.29947,778.16479,-140.03322,325.05435,701.36084,-104.81779,230.96109,735.63184
122,1.008,-231.51807,309.29947,778.16479,-140.30531,325.12457,701.39105,-104.88723,231.29726,735.91986
123,1.017,-231.51807,309.29947,778.16479,-140.03322,325.05435,701.36084,-104.88723,231.29726,735.91986
124,1.025,-231.51807,309.29947,778.16479,-140.30531,325.12457,701.39105,-104.88723,231.29726,735.91986
125,1.033,-231.83315,309.77847,778.2323,-140.30531,325.12457,701.39105,-104.88723,231.29726,735.91986
126,1.042,-231.51807,309.29947,778.16479,-140.30531,325.12457,701.39105,-104.81779,230.96109,735.63184
127,1.05,-231.83315,309.77847,778.2323,-140.30531,325.12457,701.39105,-104.98201,230.59097,735.65472
128,1.058,-231.51807,309.29947,778.16479,-140.57742,325.19498,701.42133,-105.06867,230.30585,735.85114
129,1.067,-231.83315,309.77847,778.2323,-140.75739,325.285,701.08112,-105.22279,229.94577,735.89575
130,1.075,-231.83315,309.77847,778.2323,-140.77582,325.19998,700.51892,-105.07652,229.88438,735.38983
131,1.083,-231.81108,309.93442,777.8714,-140.9826,325.19458,700.1062,-105.26895,230.02333,735.21014
132,1.092,-232.03044,310.07419,777.49152,-140.9826,325.19458,700.1062,-105.26895,230.02333,735.21014
133,1.1,-232.03044,310.07419,777.49152,-140.9826,325.19458,700.1062,-105.26895,230.02333,735.21014
134,1.108,-232.03044,310.07419,777.49152,-141.45026,325.41629,700.07208,-105.26895,230.02333,735.21014
135,1.117,-232.0596,310.53104,777.96008,-141.45026,325.41629,700.07208,-105.26895,230.02333,735.21014
136,1.125,-232.08194,310.60901,777.89484,-141.45026,325.41629,700.07208,-105.26895,230.02333,735.21014
137,1.133,-232.0596,310.53104,777.96008,-141.45026,325.41629,700.07208,-105.26895,230.02333,735.21014
138,1.142,-232.0596,310.53104,777.96008,-141.45026,325.41629,700.07208,-105.15331,229.60971,735.60791
139,1.15,-232.0596,310.53104,777.96008,-140.9826,325.19458,700.1062,-105.15331,229.60971,735.60791
140,1.158,-232.0817,310.37521,778.32092,-140.9826,325.19458,700.1062,-105.22279,229.94577,735.89575
141,1.167,-232.0817,310.37521,778.32092,-140.9826,325.19458,700.1062,-105.22279,229.94577,735.89575
142,1.175,-232.0817,310.37521,778.32092,-140.96405,325.27988,700.66846,-105.22279,229.94577,735.89575
143,1.183,-231.8624,310.23529,778.70068,-140.75739,325.285,701.08112,-105.22279,229.94577,735.89575
144,1.192,-231.8624,310.23529,778.70068,-140.54294,325.16287,701.11749,-105.22279,229.94577,735.89575
145,1.2,-231.8624,310.23529,778.70068,-140.54294,325.16287,701.11749,-105.22279,229.94577,735.89575
146,1.208,-231.8624,310.23529,778.70068,-140.57742,325.19498,701.42133,-105.13809,230.64185,736.13916
147,1.217,-231.8624,310.23529,778.70068,-140.57742,325.19498,701.42133,-105.13809,230.64185,736.13916
148,1.225,-231.8624,310.23529,778.70068,-140.57742,325.19498,701.42133,-105.06867,230.30585,735.85114
149,1.233,-231.8624,310.23529,778.70068,-140.56912,325.05997,701.54114,-105.13809,230.64185,736.13916
150,1.242,-231.8624,310.23529,778.70068,-140.57742,325.19498,701.42133,-105.29219,230.28166,736.18372
151,1.25,-231.8624,310.23529,778.70068,-140.30531,325.12457,701.39105,-105.22279,229.94577,735.89575
152,1.258,-231.8624,310.23529,778.70068,-140.30531,325.12457,701.39105,-105.22279,229.94577,735.89575
153,1.267,-231.8624,310.23529,778.70068,-140.30531,325.12457,701.39105,-105.17036,229.74547,736.53967
154,1.275,-231.83315,309.77847,778.2323,-140.32034,325.00668,701.50336,-105.22279,229.94577,735.89575
155,1.283,-231.83315,309.77847,778.2323,-140.32034,325.00668,701.50336,-105.17036,229.74547,736.53967
156,1.292,-231.11063,310.17212,778.35632,-140.32034,325.00668,701.50336,-105.22279,229.94577,735.89575
157,1.3,-231.63815,309.92227,778.26746,-140.32034,325.00668,701.50336,-105.22279,229.94577,735.89575
158,1.308,-231.83315,309.77847,778.2323,-140.07228,325.38202,701.7464,-105.22279,229.94577,735.89575
159,1.317,-231.63815,309.92227,778.26746,-140.07228,325.38202,701.7464,-105.22279,229.94577,735.89575
160,1.325,-231.30563,310.02829,778.32117,-140.07228,325.38202,701.7464,-105.22279,229.94577,735.89575
161,1.333,-231.83315,309.77847,778.2323,-140.07228,325.38202,701.7464,-105.22279,229.94577,735.89575
162,1.342,-231.83917,309.57291,778.36432,-140.07228,325.38202,701.7464,-105.22279,229.94577,735.89575
163,1.35,-231.86842,310.02972,778.83264,-139.86565,325.38751,702.15894,-105.29219,230.28166,736.18372
164,1.358,-231.83917,309.57291,778.36432,-139.86565,325.38751,702.15894,-105.10501,230.00578,736.43878
165,1.367,-231.86842,310.02972,778.83264,-139.86565,325.38751,702.15894,-105.10501,230.00578,736.43878
166,1.375,-231.86842,310.02972,778.83264,-139.47636,325.93457,702.37152,-105.10501,230.00578,736.43878
167,1.383,-231.86842,310.02972,778.83264,-139.47636,325.93457,702.37152,-105.0006,229.83286,737.25983
168,1.392,-231.86842,310.02972,778.83264,-139.67206,326.10501,702.65533,-105.10501,230.00578,736.43878
169,1.4,-231.86842,310.02972,778.83264,-139.67206,326.10501,702.65533,-105.10501,230.00578,736.43878
170,1.408,-231.83917,309.57291,778.36432,-139.67206,326.10501,702.65533,-105.0006,229.83286,737.25983
171,1.417,-231.83917,309.57291,778.36432,-139.67206,326.10501,702.65533,-105.10501,230.00578,736.43878
172,1.425,-231.31171,309.82272,778.45319,-139.67206,326.10501,702.65533,-105.10501,230.00578,736.43878
173,1.433,-231.31171,309.82272,778.45319,-139.73869,325.84598,702.9325,-105.10501,230.00578,736.43878
174,1.442,-231.31171,309.82272,778.45319,-139.73869,325.84598,702.9325,-105.10501,230.00578,736.43878
175,1.45,-231.31171,309.82272,778.45319,-139.47371,325.85623,703.47717,-105.0006,229.83286,737.25983
176,1.458,-230.99672,309.34369,778.38574,-139.045,325.64212,703.46582,-105.10501,230.00578,736.43878
177,1.467,-230.99672,309.34369,778.38574,-139.045,325.64212,703.46582,-105.0006,229.83286,737.25983
178,1.475,-230.99672,309.34369,778.38574,-139.045,325.64212,703.46582,-105.15343,229.66734,736.55457
179,1.483,-230.99672,309.34369,778.38574,-139.46202,325.12076,703.49646,-105.27784,229.35512,737.56976
180,1.492,-230.99672,309.34369,778.38574,-139.045,325.64212,703.46582,-105.04361,229.34148,736.8457
181,1.5,-230.99672,309.34369,778.38574,-139.045,325.64212,703.46582,-105.04361,229.34148,736.8457
182,1.508,-230.99672,309.34369,778.38574,-139.045,325.64212,703.46582,-105.7335,228.9527,736.93573
183,1.517,-230.84599,309.28061,778.52826,-139.383,324.98962,703.58832,-105.37732,228.28134,736.81476
184,1.525,-230.99672,309.34369,778.38574,-139.67273,324.65292,703.71002,-105.37732,228.28134,736.81476
185,1.533,-231.00288,309.13821,778.51776,-139.67273,324.65292,703.71002,-105.37732,228.28134,736.81476
186,1.542,-231.00288,309.13821,778.51776,-139.67273,324.65292,703.71002,-105.37732,228.28134,736.81476
187,1.55,-230.81613,309.00812,778.72906,-139.67273,324.65292,703.71002,-105.37732,228.28134,736.81476
188,1.558,-231.53021,308.8884,778.42889,-139.67273,324.65292,703.71002,-105.37732,228.28134,736.81476
189,1.567,-231.53021,308.8884,778.42889,-139.67273,324.65292,703.71002,-105.37732,228.28134,736.81476
190,1.575,-231.34343,308.75833,778.6402,-139.81506,324.59595,703.81097,-105.37732,228.28134,736.81476
191,1.583,-231.34343,308.75833,778.6402,-139.81506,324.59595,703.81097,-105.37732,228.28134,736.81476
192,1.592,-231.34343,308.75833,778.6402,-140.02132,324.67334,703.81195,-105.37732,228.28134,736.81476
193,1.6,-231.34343,308.75833,778.6402,-140.02132,324.67334,703.81195,-105.44669,228.61722,737.10248
194,1.608,-231.34343,308.75833,778.6402,-140.02132,324.67334,703.81195,-105.44669,228.61722,737.10248
195,1.617,-231.34343,308.75833,778.6402,-140.02132,324.67334,703.81195,-105.44669,228.61722,737.10248
196,1.625,-231.34343,308.75833,778.6402,-140.02132,324.67334,703.81195,-105.36438,228.37297,737.32098
197,1.633,-231.34343,308.75833,778.6402,-140.02132,324.67334,703.81195,-105.36438,228.37297,737.32098
