Frame#,Time,R.Forearm.x,R.Forearm.y,R.Forearm.z,R.Ulna.x,R.Ulna.y,R.Ulna.z,R.Radius.x,R.Radius.y,R.Radius.z
1,0,-18.71941,-319.0621,954.21161,87.38128,-366.8436,894.99884,145.38945,-256.42239,901.02979
2,0.008,-18.85382,-320.58234,953.91516,87.07954,-367.18723,894.10107,145.49472,-258.67828,897.99493
3,0.017,-19.20934,-321.19138,953.44092,86.18422,-368.20096,893.31714,144.54849,-260.64145,897.31128
4,0.025,-19.327,-321.47186,952.56873,85.38981,-369.72162,891.47882,145.01776,-261.7337,896.45355
5,0.033,-19.46868,-321.92563,951.79095,85.11572,-370.58807,890.40607,144.16512,-261.84958,895.17523
6,0.042,-20.26546,-323.34695,950.67596,84.80463,-371.0238,889.40118,143.86105,-265.37735,891.40479
7,0.05,-20.0463,-323.58673,950.22272,84.48746,-371.32587,888.21161,143.69173,-265.13269,891.27075
8,0.058,-19.97404,-323.71442,949.00299,84.22252,-371.95407,887.2467,143.78027,-264.79117,891.03601
9,0.067,-20.06368,-324.30301,948.18695,84.0644,-373.28046,886.1535,144.17308,-267.30569,888.31653
10,0.075,-20.32573,-324.67017,947.73352,83.16564,-375.07373,884.6535,143.61447,-269.13495,887.27405
11,0.083,-20.48744,-324.68994,947.35907,82.57848,-375.17496,883.99359,143.56749,-270.72321,886.48523
12,0.092,-20.34997,-325.05582,945.58221,82.07135,-377.07916,883.30688,143.56749,-270.72321,886.48523
13,0.1,-20.44559,-326.45752,945.00171,82.2254,-377.93066,882.09131,143.31735,-273.46921,883.31415
14,0.108,-20.39375,-328.48669,944.12146,81.55739,-378.27493,880.93988,143.09975,-274.21396,881.39111
15,0.117,-20.61779,-328.92624,943.53247,80.96967,-379.74243,880.29138,142.7308,-274.50189,880.88605
16,0.125,-20.46566,-328.84784,943.40125,80.29959,-381.01807,879.08148,142.57562,-276.52774,880.56482
17,0.133,-20.61694,-329.22495,942.64972,79.16274,-382.47537,878.54449,142.88559,-277.42429,879.21967
18,0.142,-21.36841,-330.76062,942.06525,78.76534,-383.67331,877.47406,142.88559,-277.42429,879.21967
19,0.15,-21.39709,-330.84827,941.96198,78.56783,-383.87598,876.18835,140.99069,-280.74332,877.58032
20,0.158,-21.77766,-331.46585,940.89368,77.65689,-384.86688,875.01422,141.26608,-281.80365,877.30029
21,0.167,-22.27317,-332.31174,940.37549,77.20463,-386.42389,874.7074,140.80968,-282.61731,876.50256
22,0.175,-22.48136,-333.49997,939.95074,76.31629,-388.17908,874.06915,142.15178,-285.28333,875.16577
23,0.183,-22.83466,-334.70483,938.99255,75.68744,-388.7475,873.54791,142.0992,-285.88794,874.43005
24,0.192,-23.15819,-336.32736,938.77271,75.33027,-390.24673,872.79852,142.10609,-287.29807,873.86401
25,0.2,-23.15819,-336.32736,938.77271,74.64609,-390.53098,872.43079,140.21078,-288.8873,872.43225
26,0.208,-23.55107,-336.53452,938.5213,74.55933,-390.9285,872.23901,139.66608,-290.00143,872.34436
27,0.217,-23.63799,-337.2002,937.49811,73.14504,-392.89435,871.43109,139.42523,-290.66617,872.45087
28,0.225,-24.64347,-337.86328,937.11816,72.81311,-394.17673,870.32959,139.23213,-291.66269,871.75903
29,0.233,-24.84646,-338.51688,937.10266,72.15639,-395.28876,869.86743,140.24216,-295.68954,870.73413
30,0.242,-25.00724,-339.37802,937.06049,71.86543,-395.60651,869.61975,139.85938,-296.45944,869.79657
31,0.25,-25.63814,-340.87982,937.48785,71.08284,-397.46875,869.07574,139.27164,-297.43213,869.50726
32,0.258,-25.68337,-342.2088,937.68817,70.48212,-398.32462,868.64941,139.00191,-299.61478,869.13617
33,0.267,-26.32473,-343.48596,936.33807,69.6823,-399.87784,868.71277,138.94421,-300.00726,868.49268
34,0.275,-26.5381,-343.67056,936.18182,69.32819,-401.29248,868.57928,137.77243,-300.52417,868.38904
35,0.283,-26.84161,-344.45499,935.89276,68.69712,-401.54681,868.06812,137.744,-301.15613,868.2276
36,0.292,-27.51592,-345.01016,935.73004,67.67774,-402.91074,868.14703,137.17311,-303.94009,867.72931
37,0.3,-27.84336,-346.00391,935.28717,67.29606,-403.83667,867.5683,138.04674,-304.48257,867.2948
38,0.308,-28.03348,-346.57272,935.34607,67.1857,-405.16858,867.42535,137.3998,-305.85016,866.35974
39,0.317,-28.98633,-347.23401,935.42767,66.52072,-406.24716,867.34241,137.12856,-308.03876,865.98645
40,0.325,-29.19746,-347.94376,934.80505,66.3874,-407.6395,867.58435,136.73769,-309.45572,866.70947
41,0.333,-29.92145,-348.46359,934.92615,64.48338,-409.16077,867.20331,136.76767,-310.00912,866.4043
42,0.342,-30.36438,-348.74222,934.23407,63.74141,-409.57687,867.0072,136.71396,-310.62024,865.66064
43,0.35,-30.79145,-350.63712,934.36383,63.41063,-410.29752,866.57367,136.2058,-311.46521,865.52313
44,0.358,-30.79066,-351.65176,934.64105,62.77932,-412.4505,866.26001,134.93079,-315.71503,864.83392
45,0.367,-31.01182,-352.10965,934.61066,62.26155,-413.57712,866.07013,133.59193,-317.77103,864.38367
46,0.375,-31.72514,-353.60617,934.46039,61.63476,-415.4501,866.04449,133.29053,-318.25894,864.8512
47,0.383,-31.89806,-354.2912,934.38507,60.84415,-415.73825,865.8559,133.3739,-318.55225,864.48651
48,0.392,-32.36356,-354.88123,934.35034,60.33411,-416.3967,866.10712,133.41635,-319.34729,864.48962
49,0.4,-32.98594,-355.29172,934.18079,59.15312,-417.7424,865.73248,133.41635,-319.34729,864.48962
50,0.408,-33.52295,-356.08353,934.12134,58.7627,-420.34464,865.75177,132.09921,-325.33618,864.0686
51,0.417,-34.298,-357.28702,934.28833,58.17968,-421.03812,865.41211,131.77145,-325.71719,863.77234
52,0.425,-34.3413,-358.4202,934.3598,57.84158,-422.2056,865.26599,131.69351,-326.22882,864.16699
53,0.433,-34.83483,-360.55252,934.22675,57.32207,-422.79373,865.5296,131.69351,-326.22882,864.16699
54,0.442,-35.16363,-360.90436,934.16699,55.77231,-424.60693,865.75177,131.22768,-328.09732,863.55695
55,0.45,-35.33651,-361.28058,934.44763,55.3246,-425.54803,865.81061,130.95558,-328.65649,863.10358
56,0.458,-35.28086,-362.0278,934.34009,55.18315,-426.83829,865.67432,130.08206,-330.51749,863.11292
57,0.467,-35.79949,-362.75165,934.46387,55.09945,-427.2081,865.53687,129.28787,-332.63562,863.19476
58,0.475,-36.0232,-363.96317,934.49841,54.24264,-429.48248,865.63605,129.23264,-334.43164,864.19464
59,0.483,-36.74386,-364.65634,935.03149,52.95573,-431.20435,865.56335,129.35344,-335.32941,864.53809
60,0.492,-36.9004,-365.89639,934.72253,52.41602,-431.52734,865.82135,129.91391,-336.21936,865.24921
61,0.5,-36.98071,-366.25995,934.73315,51.86716,-433.13425,865.79535,130.5778,-339.0278,864.2146
62,0.508,-37.69155,-368.19077,936.35297,51.42996,-434.76495,865.87646,130.20261,-339.01505,864.26337
63,0.517,-38.47845,-368.71967,936.42346,50.76652,-435.71036,865.64966,128.9691,-342.15146,863.74396
64,0.525,-38.22949,-368.90744,935.14429,50.10511,-436.52084,866.08301,128.74352,-345.50339,864.33704
65,0.533,-38.47327,-369.79474,935.05164,49.2197,-437.45114,866.33899,129.65771,-345.85367,863.93048
66,0.542,-38.9932,-370.71707,934.89789,48.9861,-439.46509,866.43359,129.66066,-346.9245,864.22076
67,0.55,-40.37383,-371.74762,936.12128,48.32681,-440.19202,866.68097,129.75551,-347.30365,863.93237
68,0.558,-40.30396,-372.69083,935.54285,47.72567,-441.40018,866.64923,128.92621,-348.60831,864.17542
69,0.567,-40.95756,-373.29358,936.49243,47.10719,-442.27933,866.74103,128.32301,-350.2887,864.02216
70,0.575,-41.74814,-373.9025,937.1853,46.21971,-442.93076,867.10413,127.45029,-353.15811,864.16376
71,0.583,-42.11624,-374.52777,936.80518,45.90513,-445.34772,867.26813,127.89354,-353.86972,865.07135
72,0.592,-42.3072,-375.89417,937.25287,45.77816,-446.20853,867.67639,127.84755,-356.14301,865.28918
73,0.6,-42.46999,-377.03619,937.33539,45.29222,-447.47833,867.81427,128.35092,-356.01547,865.72461
74,0.608,-42.8461,-377.5726,937.60229,44.39892,-448.20935,867.85388,128.52808,-356.88895,865.6828
75,0.617,-43.01002,-378.80591,937.75519,44.40634,-449.54074,868.54938,127.90012,-359.85617,866.06128
76,0.625,-43.23214,-379.83948,938.14117,43.64403,-450.38925,869.2077,127.37637,-358.84042,867.2243
77,0.633,-43.416,-380.43661,938.20752,43.76986,-452.11447,869.28778,126.38377,-364.70801,866.33954
78,0.642,-43.20338,-380.88107,938.3089,43.28976,-452.74054,869.12262,126.69839,-364.38742,866.70233
79,0.65,-43.91424,-381.00751,938.83447,42.61552,-453.41928,869.55389,126.60115,-364.95731,867.00757
80,0.658,-44.06097,-382.78043,939.58301,41.76188,-456.02484,870.10535,126.50302,-365.82242,867.06128
81,0.667,-44.69068,-383.65182,939.55573,41.10098,-456.99097,870.83759,125.63457,-366.47018,868.0376
82,0.675,-44.78379,-384.92664,940.64893,41.00546,-457.82516,871.15808,125.442,-369.9787,869.68787
83,0.683,-45.19164,-386.79898,941.02637,40.87458,-458.75177,871.87024,125.3927,-371.55289,869.92169
84,0.692,-45.19925,-386.79684,941.58014,40.73906,-459.22839,872.33105,125.76917,-372.67072,870.67957
85,0.7,-45.86953,-387.3797,941.67627,39.03378,-461.60742,873.33893,124.81743,-374.03943,871.39832
86,0.708,-45.89226,-388.8071,942.2735,39.15362,-463.17871,874.01874,124.77724,-375.91846,871.90936
87,0.717,-46.39483,-390.15182,942.82068,38.94939,-463.32468,874.26074,124.24495,-376.74869,872.35175
88,0.725,-46.73877,-390.50839,943.3653,38.42579,-465.65463,874.49329,124.42533,-379.01501,873.2832
89,0.733,-47.05887,-391.77826,943.86926,37.24751,-466.50104,875.65033,123.25895,-381.02164,874.16498
90,0.742,-47.40237,-393.47803,944.46423,36.26048,-467.53662,876.33044,122.71348,-381.82364,874.22705
91,0.75,-47.51177,-394.3248,944.37085,36.18494,-468.68494,877.33173,122.79395,-383.96854,875.36707
92,0.758,-48.43914,-394.78259,945.6438,35.64878,-469.76743,877.89172,123.03503,-384.35428,877.64758
93,0.767,-48.75017,-395.35025,946.08984,34.66922,-471.00623,878.56732,122.26109,-386.63486,878.64606
94,0.775,-49.36606,-396.7001,947.14435,34.13894,-473.19147,879.60406,122.28268,-388.11765,878.37897
95,0.783,-49.37626,-397.1777,947.82471,33.82682,-473.55402,880.28198,122.01797,-390.57645,878.9975
96,0.792,-50.11557,-397.93484,948.34192,33.36983,-474.58093,881.07404,121.7207,-391.92175,879.19415
97,0.8,-50.40461,-398.42996,948.63214,33.0683,-476.41211,881.87628,120.76607,-393.22726,881.08514
98,0.808,-50.47787,-399.18311,949.0838,32.40002,-477.70874,882.5282,121.35979,-395.97922,881.83484
99,0.817,-50.94394,-400.47659,950.5719,32.27576,-479.92294,883.49731,121.01319,-396.83411,883.39178
100,0.825,-51.35043,-402.75943,950.97021,31.55301,-480.55286,884.02039,120.72127,-398.58221,884.34351
101,0.833,-52.05837,-403.29123,951.38617,30.67558,-481.81522,884.7774,120.32777,-399.48544,884.99823
102,0.842,-52.68707,-404.27704,952.17328,30.59893,-483.28543,886.36285,120.81881,-399.99347,887.1665
103,0.85,-52.61121,-405.02774,953.52264,29.88801,-483.98129,886.97296,120.49371,-402.55139,888.09387
104,0.858,-52.61568,-405.36856,954.22351,29.30585,-485.51309,888.13934,120.99999,-403.22449,887.98334
105,0.867,-52.92875,-406.21637,955.13251,28.4531,-487.50864,889.22253,119.89748,-406.89804,889.96002
106,0.875,-53.39673,-407.05612,955.6236,28.40909,-487.96091,890.04376,120.26159,-407.30066,892.047
107,0.883,-54.02645,-407.95346,956.75513,27.94145,-488.77225,891.33264,119.83473,-408.63379,892.57495
108,0.892,-54.6842,-409.15762,957.42438,27.64408,-490.84161,892.31958,119.72166,-409.82452,893.36853
109,0.9,-54.92623,-410.74811,958.33966,26.2196,-492.73569,893.9068,119.99122,-410.54031,894.5127
110,0.908,-55.06819,-411.56186,959.36554,26.06141,-494.11746,894.67743,119.00803,-414.11703,896.11078
111,0.917,-55.67947,-412.36917,959.71002,25.28485,-494.00583,895.61047,119.142,-416.05154,896.94183
112,0.925,-56.53798,-413.10419,960.9469,24.53711,-495.31372,896.74188,118.67469,-417.60312,898.03571
113,0.933,-57.04745,-414.31628,961.79565,23.19328,-497.17331,898.45355,117.96428,-418.85052,899.43311
114,0.942,-57.09962,-414.39435,962.93982,22.68668,-497.81955,899.83649,119.33496,-417.60284,901.57196
115,0.95,-57.51274,-415.37796,963.77319,22.79838,-499.10318,900.72656,117.3821,-422.73218,903.24823
116,0.958,-58.25224,-416.40488,964.57794,21.9094,-500.06396,901.81769,116.47147,-422.55045,905.39978
117,0.967,-59.0827,-416.89355,965.5351,20.95212,-502.6138,903.55518,116.66956,-423.13382,905.99561
118,0.975,-59.43799,-418.3656,967.59448,20.73778,-503.78336,904.5011,116.84661,-425.52542,908.38715
119,0.983,-60.08323,-419.25562,968.91675,20.77525,-504.46356,905.9657,116.32884,-426.27274,910.06696
120,0.992,-60.45806,-420.72443,969.43195,20.02972,-505.8064,907.80145,114.42711,-429.0488,911.92017
121,1,-61.28646,-421.85355,970.49628,19.55098,-506.92807,909.03235,115.08366,-429.82504,912.82788
122,1.008,-61.61205,-422.5899,971.19952,18.58122,-508.1492,910.68298,115.68951,-433.20636,913.68976
123,1.017,-61.63973,-422.93542,972.51099,18.35009,-508.99875,911.95044,114.27813,-435.2511,915.93085
124,1.025,-62.49711,-423.41028,974.19214,17.78434,-510.55792,913.33289,113.13316,-437.14581,918.08362
125,1.033,-63.26466,-424.90851,975.27881,17.36722,-511.55823,914.99335,114.03754,-436.45154,919.89935
126,1.042,-63.0705,-425.81912,976.46106,16.73298,-512.62274,916.22974,114.02395,-437.65845,922.69818
127,1.05,-63.34428,-426.44278,977.26257,16.57118,-514.41882,918.09949,113.86645,-439.90546,923.41077
128,1.058,-63.40131,-426.63931,978.79535,16.00391,-515.38867,919.39508,113.72752,-441.01712,923.59729
129,1.067,-64.51899,-428.31329,980.28894,15.77888,-516.90295,921.09772,112.54281,-444.10489,928.0567
130,1.075,-64.53182,-428.93167,981.59808,14.64043,-517.3429,922.24261,112.51564,-443.08127,929.98975
131,1.083,-64.83669,-430.46497,983.07751,13.99777,-517.93921,924.31006,113.23454,-444.63977,931.17859
132,1.092,-65.05106,-431.52365,983.8772,13.57552,-519.06799,925.96844,111.85986,-446.93466,931.38708
133,1.1,-65.33553,-431.71527,984.88501,12.91349,-520.27026,927.36084,111.26113,-449.87766,934.86755
134,1.108,-66.02728,-432.33975,986.19061,12.32847,-521.57788,928.9278,111.73669,-450.15976,935.78101
135,1.117,-66.64561,-433.28384,987.47858,12.15225,-521.86169,930.51379,110.58401,-452.88382,937.81818
136,1.125,-67.16111,-433.58472,989.3382,11.6097,-523.03955,932.42285,111.07536,-452.90958,939.40009
137,1.133,-67.48088,-433.75876,990.46704,11.38107,-524.65759,933.77899,110.74846,-454.27188,941.57831
138,1.142,-67.46503,-434.19656,991.93835,10.48923,-526.11316,935.50653,109.99725,-455.81085,944.56177
139,1.15,-68.36324,-435.59152,992.55133,10.14729,-526.50067,937.17505,110.51837,-455.26633,945.93884
140,1.158,-68.76318,-436.25351,993.76294,10.20778,-527.0141,938.86676,109.49108,-457.35272,947.44635
141,1.167,-69.55851,-436.46124,995.948,9.52881,-527.91858,940.64569,109.30377,-459.47348,949.41687
142,1.175,-69.93165,-437.20068,996.64526,9.60094,-528.79364,942.66504,109.29778,-460.28488,951.96094
143,1.183,-70.18605,-437.53055,997.68439,8.6132,-530.05908,944.03015,108.42371,-461.0965,954.56421
144,1.192,-70.95454,-439.10388,999.56671,8.22871,-530.83411,945.76941,108.73627,-462.59924,955.4632
145,1.2,-71.23825,-439.98035,1000.526,8.17664,-531.31897,947.20013,108.14375,-463.66907,956.84863
146,1.208,-71.15425,-440.08472,1002.47632,7.82383,-532.72797,949.21332,108.06192,-464.00482,958.97601
147,1.217,-71.74673,-441.36581,1003.69049,7.84653,-533.54578,950.86237,107.70206,-467.44342,961.91113
148,1.225,-71.52992,-441.43698,1004.67682,6.745,-534.6452,952.33136,107.30069,-467.07278,962.44427
149,1.233,-72.00453,-442.52322,1006.02649,6.53461,-535.81805,954.39227,107.25634,-469.68713,965.25336
150,1.242,-72.47874,-442.84119,1008.01166,6.38921,-536.5387,956.36969,107.33809,-469.07022,968.05878
151,1.25,-73.01311,-443.51855,1009.59698,5.94396,-537.59705,957.79358,107.64272,-470.25525,969.00629
152,1.258,-72.91285,-444.29538,1010.32715,6.05475,-537.56677,959.42426,106.74979,-471.60474,971.79053
153,1.267,-73.66417,-444.65057,1012.02191,5.62136,-537.73303,961.5437,107.06988,-472.45413,974.28668
154,1.275,-73.25905,-445.10938,1012.77533,4.75561,-539.12408,963.82062,106.81173,-473.31357,975.33838
155,1.283,-73.82138,-444.90378,1015.20966,4.859,-540.50079,965.17755,105.69508,-473.763,977.60883
156,1.292,-74.19943,-446.44931,1016.63049,4.66107,-541.5307,966.68256,105.91782,-475.19922,980.63965
157,1.3,-74.83407,-446.85825,1018.29816,4.45532,-542.1557,968.51147,106.08234,-475.92523,981.58398
158,1.308,-75.15881,-447.06543,1019.11169,4.49591,-542.54401,970.39685,104.62007,-478.62616,984.12164
159,1.317,-75.18575,-446.92972,1020.38483,3.38222,-543.16821,972.56073,104.37929,-479.36752,986.17157
160,1.325,-75.86936,-448.02795,1021.60156,3.63374,-544.37921,974.37354,105.41796,-479.50961,987.5459
161,1.333,-75.58582,-448.60428,1023.09607,2.97023,-544.18579,976.20734,104.00567,-481.41003,990.87823
162,1.342,-75.75483,-448.87354,1025.12756,2.61634,-545.85669,977.46826,104.07207,-481.52509,992.48975
163,1.35,-76.02348,-449.90204,1027.39368,1.99531,-546.01416,980.14581,104.49117,-481.55435,993.98785
164,1.358,-77.14883,-451.45438,1028.38196,1.99009,-546.8559,981.77905,103.63151,-481.95889,996.55554
165,1.367,-77.24959,-451.74814,1028.73889,1.77673,-547.78473,982.97375,104.24821,-481.88986,998.88489
166,1.375,-77.28077,-451.89786,1030.61255,1.47182,-548.61084,985.03198,103.44951,-484.63959,999.9931
167,1.383,-77.60008,-453.09607,1033.11279,1.15356,-549.52673,987.28632,102.7043,-486.38977,1002.42365
168,1.392,-77.19666,-453.74048,1034.5968,1.27243,-549.43176,988.87244,102.80618,-487.69333,1004.58356
169,1.4,-78.12473,-453.62881,1034.85876,0.85106,-550.3316,991.07465,102.58661,-488.37552,1005.61945
170,1.408,-77.65702,-454.21664,1036.25732,0.47551,-550.81433,992.65344,101.91709,-488.08405,1008.50909
171,1.417,-78.56848,-454.05817,1037.67578,0.03369,-551.35449,994.16943,103.0502,-489.47552,1011.20282
172,1.425,-79.15054,-453.80719,1039.48096,-0.1774,-552.22491,996.56238,102.41842,-489.47208,1012.17554
173,1.433,-78.62589,-454.08508,1040.94043,-0.26316,-552.41547,998.11151,102.50708,-489.27643,1014.09131
174,1.442,-77.53003,-452.97372,1039.70288,-0.69478,-552.82251,999.62085,102.645,-490.98471,1017.02643
175,1.45,-78.15635,-453.90958,1041.82288,-0.77648,-553.86609,1001.3717,101.14977,-491.68478,1018.78619
176,1.458,-80.54775,-455.14798,1045.39624,-0.89273,-554.57739,1003.16382,101.42204,-492.42465,1021.01715
177,1.467,-80.4363,-456.1026,1047.01257,-1.3938,-554.76581,1004.74542,100.48991,-493.98285,1022.74164
178,1.475,-80.71731,-455.9761,1047.31836,-1.47383,-555.13519,1006.78351,100.24174,-494.2197,1024.36658
179,1.483,-79.82131,-456.06982,1048.24524,-1.76553,-555.73816,1008.56873,101.06957,-494.60165,1026.30847
180,1.492,-79.49763,-455.91531,1048.87317,-2.52263,-556.69495,1010.21869,100.27867,-495.66052,1028.26013
181,1.5,-79.64362,-456.0061,1049.90503,-2.67544,-556.74408,1011.9314,99.60533,-496.52283,1029.9502
182,1.508,-79.96381,-456.79279,1051.29785,-3.32021,-556.70831,1013.60583,100.02612,-496.28271,1031.31909
183,1.517,-81.35607,-457.51599,1053.67798,-2.8491,-557.81897,1015.12866,99.89387,-496.3566,1033.91931
184,1.525,-81.3249,-456.99252,1054.31543,-3.59897,-557.83759,1016.61279,100.03218,-495.34219,1036.20642
185,1.533,-81.05171,-457.44327,1055.49084,-3.51676,-558.19287,1018.28467,100.07066,-496.97046,1037.98083
186,1.542,-81.04272,-457.46869,1056.29565,-3.17101,-558.34247,1019.88959,99.45286,-497.88828,1039.55151
187,1.55,-81.37451,-457.71417,1059.24524,-3.30548,-558.58173,1021.76233,99.40939,-497.64569,1042.42297
188,1.558,-81.48153,-457.94769,1059.86389,-3.21307,-559.33398,1022.83484,99.10885,-498.18948,1042.95398
189,1.567,-81.4399,-458.32144,1060.8479,-3.65147,-559.0509,1024.87695,98.98331,-499.61093,1045.53699
190,1.575,-81.36724,-458.2926,1061.22339,-3.7742,-560.3158,1026.74817,99.28305,-498.79266,1047.30713
191,1.583,-81.71654,-458.36783,1062.91589,-4.3804,-560.24988,1028.01599,98.83998,-499.16742,1048.97949
192,1.592,-81.95432,-458.79227,1064.11707,-3.94026,-560.35553,1029.52795,98.94386,-500.68079,1050.19153
193,1.6,-81.95931,-458.61841,1065.71167,-4.04987,-561.12744,1031.18835,98.74934,-500.51224,1051.64331
194,1.608,-82.34278,-458.60675,1066.95789,-4.29199,-560.84924,1033.00415,98.74077,-499.72067,1053.81628
195,1.617,-82.60342,-458.23401,1067.36389,-4.18245,-560.66113,1034.36108,98.1059,-500.99576,1056.38342
196,1.625,-82.09976,-458.95599,1069.07678,-4.35699,-561.11835,1036.02649,98.39967,-500.76114,1058.32605
197,1.633,-82.50811,-459.24921,1069.98718,-4.40892,-561.02637,1037.61938,99.25506,-500.48856,1059.13635
