Frame#,Time,L.Forearm.x,L.Forearm.y,L.Forearm.z,L.Ulna.x,L.Ulna.y,L.Ulna.z,L.Radius.x,L.Radius.y,L.Radius.z
1,0,196.0363,278.84692,1108.04272,168.75829,331.52686,1027.73938,168.73106,244.42142,1007.91925
2,0.008,195.76025,278.52957,1107.93164,169.35501,331.30698,1027.547,168.73106,244.42142,1007.91925
3,0.017,195.76025,278.52957,1107.93164,169.93767,331.14893,1027.68628,168.73106,244.42142,1007.91925
4,0.025,195.76025,278.52957,1107.93164,169.77614,331.25787,1028.02454,167.99139,244.08899,1008.03748
5,0.033,195.43297,278.06595,1108.0498,168.89163,331.54132,1028.06445,167.18752,243.97858,1007.76385
6,0.042,195.04248,278.16092,1108.11963,168.72147,331.40268,1028.37048,167.56914,243.89777,1008.10504
7,0.05,193.29536,278.59491,1108.08911,168.10423,331.65891,1028.67017,167.18752,243.97858,1007.76385
8,0.058,193.11488,278.37479,1108.41821,167.90294,331.66296,1028.72302,166.82471,243.72852,1008.11554
9,0.067,192.09375,278.78253,1108.32922,167.86964,331.48972,1028.97021,166.47377,243.40001,1008.65387
10,0.075,192.07062,278.48624,1108.68103,167.27997,331.67905,1028.9967,164.54343,243.69679,1009.89044
11,0.083,192.07062,278.48624,1108.68103,166.43167,333.13589,1029.19995,164.54343,243.69679,1009.89044
12,0.092,191.53027,278.6507,1109.85889,166.5153,333.45721,1029.55005,163.85947,243.63899,1010.81348
13,0.1,191.53027,278.6507,1109.85889,165.42778,333.48318,1030.20215,163.40106,243.97704,1011.25104
14,0.108,191.54573,278.19727,1111.08801,165.42778,333.48318,1030.20215,164.54678,244.57642,1011.30212
15,0.117,191.21352,280.53943,1111.91443,164.2686,334.27536,1030.56897,166.41402,244.08754,1011.66138
16,0.125,191.40739,281.01035,1112.35999,164.82774,334.12952,1031.85352,167.67258,245.07664,1012.52838
17,0.133,192.2847,281.55551,1113.19458,164.82774,334.12952,1031.85352,168.33134,245.24693,1012.42792
18,0.142,192.28828,282.33273,1113.69934,166.32591,334.06882,1032.32568,169.99458,244.84441,1013.09454
19,0.15,192.32491,282.44275,1114.28528,166.69902,334.27304,1032.45276,171.18257,243.95384,1014.11487
20,0.158,193.28418,282.52972,1114.17505,167.22766,334.23584,1032.39417,172.77142,244.39371,1014.98401
21,0.167,194.48645,282.44592,1113.15515,168.27124,334.46198,1031.84106,172.3485,245.26697,1014.27521
22,0.175,195.13,282.5347,1113.02002,168.27124,334.46198,1031.84106,171.79605,245.43233,1013.46411
23,0.183,196.59631,282.50366,1112.43054,168.8797,334.02136,1031.72681,172.2896,245.46254,1013.20874
24,0.192,197.38298,280.76712,1112.22205,169.6945,333.63315,1031.30029,173.2173,245.58418,1012.35535
25,0.2,196.81711,280.29599,1111.24805,169.99919,333.97818,1031.12256,171.21861,245.53844,1010.79761
26,0.208,196.12544,278.69135,1110.80408,171.03493,332.64612,1030.54041,171.50598,244.60017,1010.58344
27,0.217,195.58281,278.70438,1109.63721,171.09093,332.24234,1030.50952,170.01659,244.18224,1009.79523
28,0.225,195.07845,277.82114,1108.55981,170.83403,331.87924,1030.34119,169.50844,244.27525,1009.35864
29,0.233,195.07845,277.82114,1108.55981,170.57495,331.47433,1030.23669,169.18916,244.3456,1008.88293
30,0.242,193.11488,278.37479,1108.41821,168.78918,331.99786,1030.29541,167.68161,244.30377,1007.58661
31,0.25,193.11488,278.37479,1108.41821,168.32013,331.49655,1029.6925,166.74464,244.108,1007.57074
32,0.258,193.1259,278.08124,1108.90649,167.93456,331.30093,1029.52136,165.5605,243.81131,1007.29761
33,0.267,192.13998,278.24759,1108.5658,167.57065,331.3884,1029.52478,164.69101,243.69431,1007.83075
34,0.275,192.13998,278.24759,1108.5658,167.55829,331.72482,1030.68994,164.5477,243.61325,1008.00116
35,0.283,191.32536,277.64468,1110.21716,167.27873,332.20105,1030.56689,164.54343,243.69679,1009.89044
36,0.292,191.1781,277.16721,1112.02332,166.50822,332.79071,1031.07788,165.99757,243.43314,1010.95288
37,0.3,191.61084,277.56125,1112.51233,165.56458,333.33575,1031.90747,166.33809,243.61342,1011.07074
38,0.308,192.05658,278.36942,1113.08716,164.85056,333.53223,1032.27478,165.98125,244.95177,1011.24652
39,0.317,191.69336,280.02823,1113.9762,164.70245,333.41568,1033.54346,167.67258,245.07664,1012.52838
40,0.325,192.08641,279.88019,1115.25513,165.52177,334.35501,1034.18225,169.46964,244.26381,1015.01056
41,0.333,191.80363,281.68341,1115.91614,166.67958,334.49997,1035.04565,169.13644,244.63142,1016.42535
42,0.342,191.70589,282.08752,1116.5592,167.68449,334.8812,1035.65295,171.29948,245.9097,1016.88129
43,0.35,192.85199,282.91217,1117.8855,169.51834,335.48276,1036.40063,172.15714,246.27502,1017.49524
44,0.358,193.41925,283.46432,1118.40991,170.89296,334.93539,1036.28149,174.63936,247.38989,1018.06659
45,0.367,194.73091,283.60159,1118.28699,171.47466,334.77795,1036.42041,174.87399,247.73351,1018.28271
46,0.375,196.21259,283.58499,1117.87744,171.81053,335.27707,1036.93225,175.00833,247.32697,1017.60974
47,0.383,196.6412,283.64377,1117.78711,171.33423,335.42496,1036.60669,175.38551,246.55014,1017.341
48,0.392,197.25916,283.8429,1116.94141,171.12437,335.42041,1036.29749,174.56705,246.96577,1016.84955
49,0.4,196.46927,284.02734,1116.0293,171.12437,335.42041,1036.29749,173.11754,248.66786,1016.70105
50,0.408,196.79195,282.03751,1116.00342,171.04225,335.37656,1035.84326,172.36771,248.34471,1015.80988
51,0.417,195.51579,280.49637,1115.04041,170.47897,335.77051,1035.32813,170.08057,247.7748,1014.62177
52,0.425,195.14946,279.51022,1114.82727,170.3154,335.98096,1035.01794,169.75145,247.53001,1013.86786
53,0.433,195.22581,278.13321,1114.44531,170.38272,335.70273,1034.57471,167.218,247.86974,1013.45807
54,0.442,194.59863,278.43356,1114.08557,168.96399,334.69235,1033.79724,165.38261,247.79887,1011.71942
55,0.45,192.45609,278.31314,1113.12378,168.76064,334.9144,1033.27722,165.32935,247.74216,1011.39465
56,0.458,192.45609,278.31314,1113.12378,168.07039,334.66379,1032.69751,165.68684,246.67398,1011.31384
57,0.467,192.45609,278.31314,1113.12378,167.72041,334.62848,1032.30872,166.85225,246.18831,1011.71826
58,0.475,192.45609,278.31314,1113.12378,167.27051,334.21777,1032.47461,167.75278,246.11401,1011.68359
59,0.483,192.03928,279.39737,1113.09924,166.46489,334.30917,1032.56128,168.79564,244.9128,1011.60675
60,0.492,191.69133,280.34985,1113.62671,166.4344,334.29996,1032.4895,169.74181,244.87022,1012.29596
61,0.5,191.82251,281.20874,1113.81372,166.26735,334.38644,1032.80042,169.99458,244.84441,1013.09454
62,0.508,191.84,281.99606,1114.4303,166.453,334.43222,1033.5083,169.99458,244.84441,1013.09454
63,0.517,191.87889,282.2749,1114.96533,166.44588,334.34128,1033.62183,172.35509,245.90338,1014.69073
64,0.525,192.39546,281.02219,1115.16687,167.41356,334.12076,1033.99683,172.35509,245.90338,1014.69073
65,0.533,192.70869,281.45102,1115.86389,168.89102,333.68088,1034.35754,172.52332,245.73544,1014.73279
66,0.542,194.24036,279.82977,1115.99902,171.57802,332.8425,1035.62073,173.07558,245.13617,1015.70105
67,0.55,195.4881,278.62204,1115.97546,171.86534,332.7796,1035.77319,172.96477,244.33559,1015.48669
68,0.558,195.71227,278.15881,1116.23535,172.01561,332.80557,1035.7002,172.96477,244.33559,1015.48669
69,0.567,195.83356,278.22131,1116.50037,172.26808,332.7381,1035.70593,172.43744,244.11246,1015.45636
70,0.575,195.70334,277.88562,1116.99622,172.16498,331.20258,1035.79041,172.19733,244.16573,1015.50616
71,0.583,195.47873,277.71582,1116.65649,171.66095,330.6546,1035.80847,172.38838,244.66612,1015.99908
72,0.592,195.09067,277.76208,1116.48682,171.38239,330.27429,1036.20093,171.69984,244.45052,1016.12921
73,0.6,194.80162,277.72018,1115.77161,171.287,330.21454,1035.70361,171.52011,243.92616,1015.63098
74,0.608,193.42047,278.07388,1116.08618,170.08604,330.16907,1035.15125,170.30756,243.73756,1015.39771
75,0.617,192.12761,278.53894,1115.65784,169.56831,331.0036,1035.30981,170.30756,243.73756,1015.39771
76,0.625,192.12943,278.21747,1116.00769,167.92398,331.23666,1035.10962,169.62817,243.53746,1015.57379
77,0.633,191.78014,278.72861,1116.10852,167.72105,331.34061,1035.04797,169.2258,243.74922,1015.35114
78,0.642,191.38461,279.99118,1116.37305,167.10347,331.23306,1035.45605,168.13972,243.49167,1015.74719
79,0.65,190.22667,279.57297,1116.67505,166.37405,331.89337,1035.5603,167.38544,244.5329,1016.81964
80,0.658,188.24051,281.39816,1116.90723,165.00914,332.51883,1035.77087,168.26202,244.89409,1017.11365
81,0.667,188.08211,282.48099,1116.77136,164.7242,333.19489,1035.79297,167.34398,245.30539,1017.15295
82,0.675,188.08211,282.48099,1116.77136,163.80634,333.70917,1036.0376,167.50233,245.40456,1016.96979
83,0.683,188.08211,282.48099,1116.77136,164.10605,334.93634,1035.54858,166.85861,247.14844,1017.03265
84,0.692,188.12611,282.7178,1117.57349,164.48038,335.37451,1035.65259,167.26936,247.18384,1017.2002
85,0.7,188.56618,282.97067,1117.8103,164.92007,335.21259,1035.87488,169.84418,248.02515,1017.203
86,0.708,190.03658,283.06888,1117.96545,165.98201,335.50302,1036.13171,170.90164,248.41084,1018.17773
87,0.717,192.10321,283.98419,1119.17957,167.27028,335.52621,1036.37634,172.76985,248.77901,1018.31946
88,0.725,192.74812,283.75122,1119.3927,168.33119,336.45767,1036.55615,172.51492,249.61751,1017.96014
89,0.733,193.12624,284.74652,1118.44189,169.17311,336.62726,1037.18225,172.30209,249.46385,1017.67072
90,0.742,193.25383,284.9245,1118.24011,169.48233,336.46939,1036.83789,173.42841,249.80534,1017.26935
91,0.75,194.97491,284.57614,1117.40369,170.54103,336.42828,1036.53467,173.00647,249.90886,1016.72748
92,0.758,194.94363,284.13571,1117.48877,171.22859,335.69687,1036.48352,173.57834,249.05347,1015.96667
93,0.767,194.67307,283.77274,1117.53076,171.61049,335.94525,1036.73633,174.59113,248.55527,1015.95697
94,0.775,196.18468,283.20084,1116.76404,171.61049,335.94525,1036.73633,175.12732,248.44952,1016.21918
95,0.783,195.59825,280.15869,1116.1925,171.85649,335.02637,1036.67322,174.38348,248.42162,1015.73016
96,0.792,195.73369,278.73676,1115.32849,171.82883,335.11542,1035.79443,173.98471,248.38922,1014.85614
97,0.8,194.69749,279.52405,1115.23364,171.65793,334.97708,1036.10059,173.36751,248.34023,1014.17981
98,0.808,193.41843,278.39542,1115.73633,170.46062,335.53375,1035.70422,168.83823,249.76009,1013.24402
99,0.817,192.12286,279.99188,1115.84167,170.30814,335.63223,1035.63416,168.28265,249.5748,1013.37964
100,0.825,192.12286,279.99188,1115.84167,169.71178,335.85294,1035.82629,167.44905,249.15021,1013.87219
101,0.833,192.12286,279.99188,1115.84167,169.42459,335.91614,1035.67407,167.76593,248.43776,1013.89606
102,0.842,191.45737,281.52719,1116.45215,168.97003,336.06232,1035.63538,168.46388,248.4836,1014.41986
103,0.85,191.45737,281.52719,1116.45215,167.77385,335.72604,1036.00635,169.515,248.33661,1015.48981
104,0.858,191.14291,282.409,1116.88013,166.48051,335.3652,1035.95654,170.51791,247.88022,1015.68878
105,0.867,190.35983,282.63437,1117.3905,166.5639,335.34525,1036.27087,171.11142,248.28503,1016.10413
106,0.875,190.69769,283.76819,1117.85669,165.38539,335.7243,1036.3241,172.13696,248.61667,1017.08759
107,0.883,191.46097,284.0766,1118.97119,165.35582,335.8519,1036.98669,172.8149,249.40933,1018.09442
108,0.892,192.6913,284.21399,1119.51819,166.63768,336.64255,1038.10095,172.78633,249.32295,1018.40204
109,0.9,193.19881,284.97696,1119.8811,167.36859,337.05545,1038.86609,174.1044,248.94449,1019.2807
110,0.908,193.29654,285.76953,1121.27942,168.59044,337.07169,1039.47815,176.15472,248.22502,1019.55078
111,0.917,193.66995,286.00162,1121.68005,169.3806,337.05573,1040.08044,176.10941,248.64618,1019.77759
112,0.925,194.99966,285.82767,1121.65283,170.76576,336.56357,1040.50427,176.81032,248.39836,1020.34943
113,0.933,195.37646,285.72739,1121.22534,172.27525,336.31104,1040.09692,176.81032,248.39836,1020.34943
114,0.942,195.64862,285.771,1120.91479,172.6442,336.04654,1039.42603,176.35332,248.18288,1019.7995
115,0.95,195.6118,285.01999,1120.62195,172.40373,335.65759,1039.22522,176.81419,248.52516,1019.94849
116,0.958,196.90167,284.06802,1119.56104,172.41862,335.75729,1039.10596,177.08606,246.58766,1018.25153
117,0.967,197.03572,282.92633,1119.2229,172.17928,335.13913,1038.42932,177.12132,246.436,1017.86121
118,0.975,196.24712,281.14166,1118.63953,172.09645,335.09546,1037.97522,176.35748,247.45686,1017.96307
119,0.983,196.54872,280.12704,1118.59546,172.1492,334.75943,1037.37463,175.17427,247.35341,1016.76538
120,0.992,196.09979,278.90103,1118.10742,171.63789,334.56796,1036.73108,174.88698,246.27052,1016.04626
121,1,195.4706,278.65552,1117.10815,171.55176,334.08069,1036.56897,175.03365,245.87695,1016.22131
122,1.008,194.5238,278.84882,1117.08801,171.47466,334.77795,1036.42041,173.72006,245.53523,1014.88184
123,1.017,194.41411,279.05289,1116.9679,171.19905,334.36368,1036.54053,174.04634,246.6841,1015.68414
124,1.025,194.86452,279.62479,1118.57251,171.19905,334.36368,1036.54053,174.323,246.0977,1015.94543
125,1.033,194.86452,279.62479,1118.57251,171.26274,333.77814,1036.67322,175.03317,245.98346,1016.49432
126,1.042,193.87418,283.08942,1119.35352,170.20282,333.62335,1036.71875,176.1739,245.98212,1016.99762
127,1.05,194.52838,283.05313,1119.30286,169.43521,334.2099,1036.86377,176.62082,246.20215,1017.52972
128,1.058,193.89812,283.63022,1119.43665,169.11688,334.37158,1038.09656,177.12132,246.436,1017.86121
129,1.067,195.06184,284.44705,1119.75659,169.67883,334.2468,1038.21375,177.76665,246.53352,1018.53796
130,1.075,196.36215,284.81711,1120.40173,171.03226,334.81155,1039.32837,178.78995,246.89978,1020.16925
131,1.083,196.50471,285.10846,1120.63391,172.70357,335.4982,1039.52893,179.28218,246.96344,1020.28687
132,1.092,196.84962,285.61227,1120.88013,174.03018,335.91248,1039.75574,178.98264,247.56595,1020.50482
133,1.1,197.57759,284.79779,1121.08691,175.18413,335.45428,1039.84009,181.04166,248.39574,1020.33777
134,1.108,197.57759,284.79779,1121.08691,175.81311,335.40701,1039.40088,181.15428,248.40779,1019.84344
135,1.117,198.93681,283.82565,1120.66602,176.37477,335.76028,1039.43286,182.28943,248.61086,1020.24481
136,1.125,199.32231,283.84668,1120.61975,176.35602,335.86807,1039.31396,182.30714,248.5842,1019.75092
137,1.133,199.32231,283.84668,1120.61975,176.41043,335.83554,1038.74402,182.33597,248.67033,1019.44385
138,1.142,200.08899,282.3306,1120.47461,176.41043,335.83554,1038.74402,181.60233,248.59967,1018.16132
139,1.15,200.28358,282.44385,1119.44226,176.41043,335.83554,1038.74402,181.3129,248.45523,1018.758
140,1.158,200.24789,282.33231,1118.85669,176.41043,335.83554,1038.74402,179.3427,247.8306,1017.94995
141,1.167,200.26672,280.86484,1118.41931,176.12373,335.89743,1038.59167,178.70938,247.79779,1017.65698
142,1.175,198.64841,281.29376,1118.0697,175.89357,335.39008,1038.38379,177.2077,247.58713,1017.19476
143,1.183,198.24451,281.04562,1117.94739,175.10725,335.47495,1037.05896,176.81137,247.10417,1016.46875
144,1.192,197.72795,280.74939,1117.0144,173.37289,335.32755,1037.05347,176.87556,247.25584,1016.23499
145,1.2,197.74763,280.07184,1116.98413,173.26875,335.05087,1036.86743,176.05212,246.65472,1016.58887
146,1.208,197.74763,280.07184,1116.98413,172.46617,334.54788,1036.32654,175.88275,247.149,1016.36395
147,1.217,197.65256,280.32025,1117.20459,172.09708,334.56668,1035.72009,176.05212,246.65472,1016.58887
148,1.225,197.48692,280.77087,1118.1698,172.09708,334.56668,1035.72009,176.10497,246.41937,1016.98676
149,1.233,197.05705,280.87259,1118.08557,171.80786,334.05301,1036.20129,177.21625,246.21799,1016.54321
150,1.242,196.96977,281.91653,1118.08423,171.59721,334.14621,1036.68958,177.63741,246.11456,1017.08472
151,1.25,198.09995,282.40912,1118.78259,171.54913,334.75623,1036.56763,178.33066,246.31334,1017.38666
152,1.258,197.51421,283.48801,1118.84998,172.71062,334.97574,1037.0946,179.59167,245.79128,1018.17609
153,1.267,198.73181,283.62372,1119.74756,173.13199,334.94141,1037.49792,183.54243,246.94519,1018.82373
154,1.275,199.37627,283.46616,1120.15381,174.15625,335.48425,1038.53381,184.13078,247.32553,1019.02454
155,1.283,200.68018,283.22946,1119.96558,175.87726,334.41663,1038.39331,186.40195,246.98424,1019.87195
156,1.292,201.48186,283.36557,1119.68384,176.18849,334.60007,1038.18701,186.556,247.55113,1019.92346
157,1.3,201.97145,283.73395,1119.724,177.23875,334.8338,1038.32446,185.35481,248.08871,1018.65601
158,1.308,202.33017,283.63629,1119.20642,177.39972,334.85095,1038.26147,185.21147,248.11441,1018.45276
159,1.317,203.17114,282.98276,1118.38574,178.53671,335.01709,1038.51355,185.44662,248.09872,1018.10406
160,1.325,203.29248,281.23355,1117.98706,180.39114,334.08286,1037.52527,185.47197,248.23608,1017.20093
161,1.333,203.64252,280.7215,1117.88635,180.55502,334.01117,1037.23938,184.92668,248.12126,1017.23956
162,1.342,203.51117,280.11111,1116.48157,180.97173,333.71469,1036.8689,183.12556,248.09387,1015.12567
163,1.35,202.27351,279.93854,1116.42761,181.26901,334.22861,1035.95813,182.17084,248.45222,1015.3501
164,1.358,202.04951,279.76932,1116.08826,180.65485,335.25458,1035.27942,180.65395,247.94986,1014.29852
165,1.367,201.96896,279.94244,1115.35913,179.23959,336.98563,1034.9895,180.36366,248.1053,1013.51727
166,1.375,201.23097,279.72531,1115.15186,179.23959,336.98563,1034.9895,180.37929,248.25647,1013.24731
167,1.383,201.32451,280.01379,1115.31921,178.9566,336.69983,1034.65332,180.37929,248.25647,1013.24731
168,1.392,201.00543,280.96591,1115.33496,177.87221,337.04077,1034.68201,180.50507,248.30989,1013.62592
169,1.4,201.00262,281.28842,1114.9856,177.73441,337.23895,1034.4928,180.50507,248.30989,1013.62592
170,1.408,200.86964,281.32251,1115.30115,177.46602,337.27579,1034.52698,181.47505,249.11188,1013.62555
171,1.417,201.39388,282.65317,1115.59656,177.2357,336.76849,1034.31873,180.28969,250.54584,1013.53998
172,1.425,201.51263,284.05817,1115.42041,176.5349,336.61066,1034.18945,181.20235,250.6729,1013.9928
173,1.433,202.15715,285.61703,1116.69116,175.68044,336.8364,1035.34229,183.10892,249.74178,1014.64026
174,1.442,202.23117,286.21417,1116.76257,175.15874,336.37051,1035.37793,183.61894,249.6483,1015.07593
175,1.45,202.23117,286.21417,1116.76257,176.30328,336.38501,1036.38611,183.82326,249.61172,1015.36633
176,1.458,203.14742,286.72501,1118.21497,177.056,337.34872,1036.46863,185.13132,249.25095,1016.55481
177,1.467,203.0049,286.53983,1118.67224,178.7399,337.46625,1036.44995,188.94345,249.95738,1018.52521
178,1.475,204.39607,286.33719,1119.27771,180.71083,337.41583,1038.47742,188.94345,249.95738,1018.52521
179,1.483,205.33852,286.14566,1119.29749,181.25404,337.65805,1038.6239,188.8575,250.77956,1018.48145
180,1.492,206.00925,286.70071,1119.13782,182.01591,337.66858,1038.34363,189.45746,250.9171,1017.91663
181,1.5,206.49303,285.21548,1118.86328,182.77914,337.41248,1038.14099,190.60596,250.41853,1017.68298
182,1.508,207.5988,285.01077,1118.78625,183.93581,336.35117,1038.13489,190.89113,249.66278,1017.73499
183,1.517,208.20891,283.51236,1118.33691,184.89786,335.96805,1037.7063,190.96451,249.3938,1017.25861
184,1.525,208.23001,282.83469,1118.30664,185.45882,335.75778,1037.35217,190.76385,249.2563,1016.4574
185,1.533,208.30849,282.50568,1118.14258,185.45882,335.75778,1037.35217,189.44121,248.39619,1015.91974
186,1.542,207.17589,282.53302,1117.89722,185.45882,335.75778,1037.35217,187.80583,248.28603,1015.00275
187,1.55,207.52138,282.68985,1117.36255,184.92679,335.8967,1036.98083,186.81227,247.7292,1015.21747
188,1.558,207.48796,282.31931,1117.03613,184.06416,335.76532,1036.50537,185.67815,248.04321,1015.0097
189,1.567,206.14072,281.37045,1116.63708,183.26784,335.98782,1036.74976,183.44087,248.82608,1014.92084
190,1.575,205.83505,281.08829,1116.30103,182.27481,336.47272,1036.72437,182.48418,248.7623,1014.96503
191,1.583,205.4702,280.75815,1116.44312,181.22136,336.43567,1035.56458,181.07913,248.41814,1015.17627
192,1.592,205.14487,280.83276,1116.76123,180.38618,336.9863,1035.96021,180.68323,248.26529,1015.16528
193,1.6,202.45425,281.75952,1116.77905,180.21532,336.84775,1036.26672,179.84468,248.20331,1015.59424
194,1.608,202.34535,281.74759,1117.61768,178.42091,337.44022,1036.56677,179.71623,248.25648,1016.11804
195,1.617,202.34535,281.74759,1117.61768,177.82968,337.2674,1036.83582,179.48244,248.52798,1016.20563
196,1.625,202.34535,281.74759,1117.61768,177.00398,337.0657,1036.79993,180.614,248.95016,1016.35101
