Frame#,Time,L.Forearm.x,L.Forearm.y,L.Forearm.z,L.Ulna.x,L.Ulna.y,L.Ulna.z,L.Radius.x,L.Radius.y,L.Radius.z
1,0,-181.60234,270.10419,778.78387,-159.37808,291.71289,692.26898,-148.27269,202.17784,718.54993
2,0.008,-181.53239,270.37326,779.47504,-159.22784,292.2879,693.21954,-148.57649,202.40007,719.39807
3,0.017,-180.57683,270.44241,781.15436,-159.26219,291.94598,693.05017,-149.30399,204.91391,720.48798
4,0.025,-181.88309,271.00662,780.7594,-159.21992,292.20193,693.94391,-149.15852,205.35793,720.79602
5,0.033,-181.75774,270.88446,783.12799,-158.03709,293.65671,694.57031,-148.87221,205.8096,721.35498
6,0.042,-181.13646,271.04425,783.26141,-156.94257,294.05179,695.55682,-148.2075,206.02408,721.5907
7,0.05,-180.70636,271.57373,783.77222,-156.94257,294.05179,695.55682,-148.2075,206.02408,721.5907
8,0.058,-180.13728,272.16669,783.71033,-156.89507,295.92227,695.63391,-148.3179,206.24367,722.40826
9,0.067,-179.54601,273.38644,783.09802,-156.72749,295.83743,695.75549,-147.90919,207.62457,721.95221
10,0.075,-178.89091,275.29111,782.99896,-156.65579,296.39243,694.96936,-147.01457,207.39081,720.41138
11,0.083,-179.03185,274.63797,781.76843,-157.79918,296.2067,694.87128,-147.01457,207.39081,720.41138
12,0.092,-178.80988,274.22791,781.42059,-156.58351,297.755,694.82507,-147.24869,206.73364,719.8634
13,0.1,-179.47156,271.91989,780.83038,-157.41875,296.52432,694.19342,-147.54793,207.14871,718.65521
14,0.108,-179.08862,270.43744,780.29773,-156.76147,296.36444,693.95605,-147.73798,207.10587,717.82056
15,0.117,-179.424,270.55093,779.77997,-156.80182,293.65686,693.73187,-148.62276,205.85277,717.5506
16,0.125,-179.55655,270.61917,779.47424,-156.35738,293.67868,693.70367,-148.73494,205.31218,716.93732
17,0.133,-179.33521,270.49643,779.32452,-156.65863,292.92725,693.21857,-149.00401,202.02829,716.65167
18,0.142,-179.89235,269.31042,777.89362,-157.71758,292.00702,691.74072,-148.73628,201.84923,716.46356
19,0.15,-180.00645,269.00662,777.65314,-156.94884,291.88345,690.52802,-148.06104,200.75241,715.39575
20,0.158,-180.16696,268.39389,776.55121,-157.47218,291.99652,690.39355,-148.06104,200.75241,715.39575
21,0.167,-181.12778,268.27039,776.04211,-158.28255,291.95587,689.83643,-148.06104,200.75241,715.39575
22,0.175,-180.68069,268.44601,776.13739,-159.7625,291.90683,689.97076,-147.55222,200.44954,714.89886
23,0.183,-182.4534,268.88379,775.73798,-159.7625,291.90683,689.97076,-148.5002,201.05191,715.14142
24,0.192,-183.21919,269.1138,776.47034,-160.53925,291.93381,689.32813,-150.95471,202.12009,716.08484
25,0.2,-183.48233,269.54657,776.52588,-160.53925,291.93381,689.32813,-151.2263,201.44254,716.30023
26,0.208,-182.53757,269.97122,777.56384,-160.88646,292.07098,689.9212,-152.00549,202.91188,716.01404
27,0.217,-183.39977,271.56213,777.83301,-161.37318,292.09586,690.65045,-152.36153,203.08504,716.19208
28,0.225,-183.61978,271.95206,778.99445,-161.77194,292.54449,691.62201,-153.72437,204.73555,716.07928
29,0.233,-183.53285,271.83667,779.51141,-161.86841,295.42206,693.25781,-153.65656,205.32306,717.45892
30,0.242,-183.75429,271.95883,779.66132,-161.68213,296.6485,693.73303,-153.55589,205.79674,717.98566
31,0.25,-184.13841,273.1586,780.66046,-161.68213,296.6485,693.73303,-153.12749,206.33153,718.56256
32,0.258,-183.88217,273.41241,780.84149,-161.70592,297.86514,693.88867,-153.12749,206.33153,718.56256
33,0.267,-183.88217,273.41241,780.84149,-162.00043,297.59473,693.89899,-153.12749,206.33153,718.56256
34,0.275,-183.88217,273.41241,780.84149,-161.74802,296.82742,693.57776,-153.12749,206.33153,718.56256
35,0.283,-182.0244,273.38486,780.8324,-161.4325,297.25876,693.63751,-153.12749,206.33153,718.56256
36,0.292,-180.11491,271.43915,780.55023,-160.39685,296.61649,694.05072,-153.12749,206.33153,718.56256
37,0.3,-181.21527,271.16794,779.6499,-159.45934,294.24689,694.00739,-153.00024,204.63504,717.69495
38,0.308,-181.03877,270.91116,779.73962,-159.58942,292.0415,693.56982,-152.13208,202.28339,716.99628
39,0.317,-180.74336,269.99664,779.55652,-158.89267,292.10657,693.42438,-151.77612,202.11021,716.81842
40,0.325,-180.90129,269.58627,778.58655,-158.15703,292.02179,693.16907,-151.07973,201.70366,716.36865
41,0.333,-181.01515,269.03705,777.83313,-158.48024,292.03711,692.62915,-149.59613,201.62238,716.1673
42,0.342,-180.7274,268.73669,777.97913,-158.13809,292.20068,691.77222,-147.69957,201.02615,715.72064
43,0.35,-179.82072,269.41437,777.32806,-158.2247,292.11276,690.70764,-147.01924,201.31145,715.70679
44,0.358,-179.99675,270.12271,776.19482,-158.02831,292.14218,689.69922,-146.62918,200.91949,716.08575
45,0.367,-179.67249,269.97272,776.28619,-159.18608,292.23987,689.73517,-146.12105,201.49803,716.47803
46,0.375,-179.84866,270.28012,776.40027,-159.42519,292.33878,689.63379,-146.02083,201.74104,716.71429
47,0.383,-180.45277,270.69806,777.17059,-159.49252,292.72903,689.54022,-146.94025,203.84552,716.6825
48,0.392,-181.65137,270.9588,777.85803,-160.16095,292.34888,689.68146,-147.18901,206.1468,717.34344
49,0.4,-181.77136,271.1236,778.26489,-160.21506,294.05939,691.10126,-147.86092,207.25505,717.1355
50,0.408,-182.18774,272.92575,778.74719,-159.5166,297.49606,692.68903,-148.46814,207.60446,717.39801
51,0.417,-183.25642,274.08411,778.93054,-160.68625,299.18332,693.57043,-148.73596,207.78336,717.58661
52,0.425,-183.26659,274.96008,780.06873,-160.68625,299.18332,693.57043,-149.89325,208.87799,718.58582
53,0.433,-183.12805,275.14902,780.79626,-160.14586,299.68985,693.99323,-150.29637,209.26108,718.24127
54,0.442,-182.84546,275.99683,781.48267,-160.81252,300.00482,694.42664,-150.18796,209.93842,718.80688
55,0.45,-183.12459,276.22339,781.7572,-161.50829,299.94019,694.57117,-151.313,211.20424,719.98297
56,0.458,-183.01572,276.1651,782.25647,-162.45178,300.66318,694.51208,-151.30406,211.62079,719.53424
57,0.467,-182.04817,276.33591,782.26465,-162.26147,299.19437,693.96198,-151.4693,209.81364,718.60699
58,0.475,-181.39647,276.18933,782.38776,-162.26147,299.19437,693.96198,-152.03876,208.93159,718.49884
59,0.483,-181.748,275.34973,782.48309,-161.74158,298.98761,694.26349,-152.49113,208.17882,718.07861
60,0.492,-181.38603,273.9328,782.43781,-160.22868,298.7782,694.7688,-152.48373,206.83972,718.11578
61,0.5,-181.22656,272.07318,781.91022,-158.62605,297.99414,694.71893,-152.48373,206.83972,718.11578
62,0.508,-179.82924,270.54169,781.1463,-158.30351,296.60245,695.10278,-151.15771,205.96165,719.24487
63,0.517,-180.4792,270.99203,780.36127,-158.1684,295.45679,695.02917,-149.17024,206.12756,718.13654
64,0.525,-179.91438,270.68933,780.59418,-157.11449,293.452,693.9422,-148.76363,205.17372,716.78052
65,0.533,-179.32912,270.56427,779.49292,-157.1783,292.83279,693.2572,-147.40572,204.36562,717.79645
66,0.542,-178.88037,270.38675,779.36194,-156.82364,293.13232,692.79218,-145.79028,205.63646,717.74768
67,0.55,-178.84705,270.33737,778.43817,-157.79684,292.15411,691.59045,-143.60738,204.9879,718.03552
68,0.558,-178.19766,271.04404,778.26349,-157.79684,292.15411,691.59045,-144.1279,205.81186,718.02673
69,0.567,-178.46056,271.47714,778.31909,-157.22826,293.14493,691.74481,-143.76633,206.08504,718.35193
70,0.575,-178.88292,271.51981,778.74451,-157.21596,293.36215,691.88098,-143.27216,207.68073,719.56335
71,0.583,-179.20772,273.45599,779.45062,-157.79097,294.772,691.79437,-143.52824,207.91685,719.81586
72,0.592,-179.53012,275.47073,780.03052,-158.37036,297.70609,692.86127,-144.10019,210.14922,720.06152
73,0.6,-180.32504,276.30933,780.67401,-158.37398,299.53024,693.31848,-143.31053,210.11957,721.47876
74,0.608,-180.2253,276.60565,781.19952,-158.27928,299.99301,694.09918,-143.66811,210.76164,720.77246
75,0.617,-179.32274,276.62775,782.24249,-158.70218,300.15936,694.57965,-143.81833,212.44576,721.90936
76,0.625,-180.61266,277.22281,781.95062,-160.08696,299.78607,693.8067,-144.39793,214.07983,722.72931
77,0.633,-180.14136,277.73572,782.43573,-160.09702,301.06192,694.07849,-144.95016,214.2603,722.53357
78,0.642,-179.95403,278.54456,782.62445,-161.6609,302.71942,694.12823,-145.33203,214.46463,722.31
79,0.65,-179.95403,278.54456,782.62445,-162.35382,302.96277,693.45306,-146.04543,214.47983,720.64374
80,0.658,-179.95403,278.54456,782.62445,-162.81717,302.30182,693.41479,-147.68048,214.41112,719.91809
81,0.667,-180.24989,277.7941,781.93695,-163.22455,302.29333,693.15179,-147.70535,214.75096,718.48633
82,0.675,-180.61266,277.22281,781.95062,-163.22455,302.29333,693.15179,-148.95291,215.13155,717.83734
83,0.683,-180.90359,276.36581,781.50885,-163.32497,300.62009,692.10883,-148.6884,211.83275,718.89355
84,0.692,-180.90359,276.36581,781.50885,-162.90446,299.27496,693.58386,-149.21593,210.57439,718.43066
85,0.7,-181.61026,275.40161,781.01489,-162.32617,298.81387,693.79486,-149.26321,208.97267,718.7226
86,0.708,-182.0244,273.38486,780.8324,-161.65048,298.28363,693.58502,-148.98868,208.41006,718.13812
87,0.717,-180.74303,272.68906,781.29913,-161.21481,297.01642,693.45886,-148.34198,207.62141,718.58002
88,0.725,-179.36618,272.36063,781.4361,-159.80496,296.15207,693.10181,-146.67516,207.15598,718.50299
89,0.733,-180.71246,271.70905,779.65082,-160.11742,292.35913,691.44666,-146.31915,206.98245,718.32465
90,0.742,-180.1683,271.60147,779.4502,-160.51598,292.28366,690.33148,-143.8401,207.19055,719.58002
91,0.75,-179.3403,271.81903,778.70544,-159.67023,292.83401,689.43872,-142.73019,207.6342,719.54224
92,0.758,-178.56279,274.96942,778.06287,-159.16124,293.6644,689.50128,-142.19659,207.59335,720.08917
93,0.767,-178.39339,275.63467,778.43365,-158.79718,295.4538,690.18683,-142.01588,209.29587,721.35895
94,0.775,-178.42152,277.09271,778.66083,-158.79364,297.05722,690.1134,-141.47829,210.26425,721.8609
95,0.783,-178.19806,277.27081,778.79846,-158.77022,298.10925,689.86609,-141.02429,210.6893,721.64752
96,0.792,-178.34023,277.96246,779.57391,-157.73438,299.22028,691.82227,-141.24091,211.13591,721.68335
97,0.8,-178.82979,278.19556,779.39508,-158.02954,300.65237,692.06262,-141.41034,213.91994,720.6073
98,0.808,-179.01947,279.09399,779.99817,-158.32086,300.87595,692.58038,-141.5239,214.48732,719.94934
99,0.817,-179.08904,278.83829,779.81647,-158.39877,301.85632,691.86151,-143.28284,215.22635,719.56104
100,0.825,-179.07062,278.67975,780.20447,-159.6264,302.59561,691.62085,-143.72763,216.34439,718.37823
101,0.833,-179.06363,279.24866,779.86237,-161.53056,303.61972,690.13824,-143.85724,215.94318,717.72009
102,0.842,-179.67508,279.06406,779.44104,-162.28239,303.44724,690.2301,-145.23715,216.44344,717.51068
103,0.85,-179.67508,279.06406,779.44104,-162.28239,303.44724,690.2301,-147.48431,216.10286,716.95453
104,0.858,-180.90698,278.92975,778.6001,-162.28239,303.44724,690.2301,-148.76654,215.7834,716.88812
105,0.867,-180.76564,278.78049,778.71527,-164.24786,302.46036,690.11536,-149.65575,214.87901,716.55115
106,0.875,-181.26366,277.8269,779.38007,-163.3168,302.71017,691.42401,-149.73311,214.63005,716.24969
107,0.883,-182.58093,276.37598,780.23199,-163.23752,302.06055,692.90021,-150.74596,212.19981,716.38904
108,0.892,-183.59917,275.65067,780.27692,-163.21643,301.14322,692.32935,-152.09695,211.5359,716.24316
109,0.9,-183.65233,274.73352,780.48785,-162.80005,299.74878,692.87054,-149.98402,210.0798,718.03912
110,0.908,-182.86676,274.98318,781.04883,-164.00471,297.97873,692.25952,-149.75562,209.27805,718.84027
111,0.917,-183.85378,275.02084,780.79004,-163.83797,297.83786,692.38983,-148.55051,208.86568,718.51813
112,0.925,-183.29694,274.71231,779.84058,-163.99585,297.36563,690.64539,-147.88914,208.60606,720.58789
113,0.933,-182.67407,275.24829,779.92938,-163.99585,297.36563,690.64539,-147.60056,208.2278,721.3291
114,0.942,-181.71562,275.5062,779.48383,-161.79849,296.78552,689.98438,-144.76134,209.13695,721.85767
115,0.95,-181.52008,275.55075,779.22504,-161.79849,296.78552,689.98438,-143.66628,209.88901,721.23114
116,0.958,-180.52814,276.78543,778.90155,-160.1946,296.52963,689.83759,-142.87361,209.86765,721.76843
117,0.967,-180.27974,276.95551,778.67377,-159.04752,297.92117,690.02747,-142.79066,210.14073,721.45111
118,0.975,-179.53024,277.24252,779.00012,-159.45108,298.11877,690.71259,-142.79066,210.14073,721.45111
119,0.983,-179.1205,278.24152,779.42249,-158.72876,298.46695,690.83911,-142.36275,210.34232,721.65497
120,0.992,-178.82979,278.19556,779.39508,-158.14203,299.19287,691.21844,-142.36275,210.34232,721.65497
121,1,-178.34023,277.96246,779.57391,-157.91203,299.7132,691.16241,-141.67621,212.29916,720.67297
122,1.008,-178.03012,278.17633,779.53571,-158.11925,300.35986,690.30658,-142.32863,213.65584,719.3783
123,1.017,-177.35924,278.70947,779.94916,-158.2251,300.31644,690.50061,-143.64005,214.0304,718.60107
124,1.025,-178.30986,277.78177,779.52277,-158.49348,300.26337,690.10315,-143.97203,214.58087,718.0752
125,1.033,-178.30986,277.78177,779.52277,-158.49348,300.26337,690.10315,-143.97203,214.58087,718.0752
126,1.042,-178.42314,277.50616,779.11206,-158.42192,301.1839,690.79926,-144.34,214.37474,715.75427
127,1.05,-179.50238,277.92862,778.96851,-159.63474,300.34024,690.09448,-146.68144,211.88792,715.72028
128,1.058,-179.30081,277.64032,778.66614,-159.63474,300.34024,690.09448,-147.58359,212.11459,714.98358
129,1.067,-179.87695,277.46045,778.52887,-160.04247,299.55222,689.84711,-149.29834,210.45779,715.33484
130,1.075,-180.73929,275.15375,778.36316,-158.85638,299.91885,690.42743,-149.68819,210.21094,715.15936
131,1.083,-181.40591,274.40869,778.44006,-159.40982,298.47565,691.68536,-149.42432,208.54903,715.79987
132,1.092,-180.70364,272.07291,778.58289,-159.45108,298.11877,690.71259,-149.30954,207.9816,716.46021
133,1.1,-180.98537,271.74698,778.72766,-159.36624,295.76306,691.2547,-148.83008,207.33081,717.07263
134,1.108,-180.19115,272.04568,779.26727,-160.33099,292.81985,690.13495,-148.214,207.23331,717.09412
135,1.117,-180.98537,271.74698,778.72766,-160.16095,292.34888,689.68146,-147.73798,207.10587,717.82056
136,1.125,-180.98537,271.74698,778.72766,-159.82434,292.83032,689.9187,-147.39134,207.12782,717.75317
137,1.133,-180.70364,272.07291,778.58289,-159.72325,293.1413,689.81409,-145.79858,206.15723,718.33301
138,1.142,-179.54831,271.64462,778.49078,-159.67023,292.83401,689.43872,-145.79858,206.15723,718.33301
139,1.15,-179.00291,271.76105,778.1358,-159.23285,293.33994,688.92096,-145.79858,206.15723,718.33301
140,1.158,-178.65721,273.05823,777.94403,-158.72398,294.16995,688.98346,-144.90393,206.87277,718.271
141,1.167,-178.28947,273.63623,777.92053,-158.72398,294.16995,688.98346,-144.20398,207.30574,718.79327
142,1.175,-178.42062,275.07199,778.12897,-158.61954,297.38077,689.72791,-143.24998,208.45912,719.53424
143,1.183,-177.9305,276.07568,778.2674,-158.44449,297.70578,689.34332,-143.37227,209.52669,719.40283
144,1.192,-177.18384,276.54218,779.31213,-157.61279,298.8273,689.66425,-143.0914,209.71819,717.75293
145,1.2,-176.9156,277.84659,778.53119,-156.28268,300.55798,689.55273,-142.48668,210.79396,717.27765
146,1.208,-176.61548,277.35114,778.41058,-156.28268,300.55798,689.55273,-142.80516,211.48817,716.19757
147,1.217,-176.00572,277.0079,778.49463,-157.52635,298.61169,688.63879,-142.80516,211.48817,716.19757
148,1.225,-175.74321,276.57428,778.43884,-157.20267,298.90488,688.89758,-142.80516,211.48817,716.19757
149,1.233,-175.76039,276.22031,778.67828,-156.45773,298.72952,689.62836,-142.80516,211.48817,716.19757
150,1.242,-175.72606,276.03156,778.58728,-155.28546,299.42017,691.74268,-143.84531,210.56865,716.00214
151,1.25,-175.32433,273.89426,778.75134,-153.77467,299.35675,691.44067,-144.57973,209.55347,715.84283
152,1.258,-174.92964,273.13928,778.42859,-154.23111,298.18118,691.14905,-144.19019,206.82541,715.67841
153,1.267,-175.2917,272.56833,778.44214,-153.95984,296.94391,691.16846,-144.14842,206.59724,714.55023
154,1.275,-175.55342,272.36087,778.28772,-153.98392,294.83701,689.81451,-144.6096,206.4081,714.27289
155,1.283,-176.35042,271.75446,778.11926,-154.29689,294.686,689.91772,-144.14842,206.59724,714.55023
156,1.292,-175.85724,271.92145,778.19983,-154.41371,294.51834,691.17297,-143.49687,204.46098,717.07574
157,1.3,-176.35042,271.75446,778.11926,-154.31587,294.83365,692.04553,-143.60738,204.9879,718.03552
158,1.308,-176.50607,271.47189,778.23657,-154.58542,294.01974,692.04315,-143.60738,204.9879,718.03552
159,1.317,-177.13469,271.18716,778.42554,-154.42087,293.89853,692.17688,-143.60738,204.9879,718.03552
160,1.325,-176.90886,271.4855,778.57214,-154.42087,293.89853,692.17688,-143.24594,205.26111,718.36066
161,1.333,-177.52638,272.06223,778.32794,-154.30583,294.13113,692.95703,-143.40068,205.89703,718.84003
162,1.342,-176.73454,273.03967,778.62775,-154.12329,294.89175,692.98169,-143.05095,206.11348,719.10095
163,1.35,-176.79561,273.90836,778.81,-154.30583,294.13113,692.95703,-143.68427,206.48094,718.80127
164,1.358,-176.79561,273.90836,778.81,-154.21654,295.15009,692.91833,-143.58408,206.95454,719.32745
165,1.367,-176.70909,273.79294,779.32629,-154.21654,295.15009,692.91833,-143.27216,207.68073,719.56335
166,1.375,-177.45476,275.20743,779.66766,-154.19968,296.67688,693.1792,-143.52824,207.91685,719.81586
167,1.383,-177.45476,275.20743,779.66766,-154.52072,298.33844,693.38251,-143.79189,208.50555,719.55524
168,1.392,-177.32643,276.22137,779.02386,-155.63928,298.42041,693.69775,-144.05914,209.58888,718.85931
169,1.4,-176.73979,276.64056,778.75421,-156.45645,298.32977,691.89606,-143.55244,209.505,718.41687
170,1.408,-177.24364,276.39078,778.59753,-157.26868,299.23264,690.0658,-144.73068,209.72144,717.28278
171,1.417,-175.51233,275.15814,778.61682,-157.41992,298.44427,690.27649,-145.25389,208.74231,717.33789
172,1.425,-175.9171,273.44598,778.47736,-156.70703,298.42245,691.80005,-145.93504,207.37546,717.09174
173,1.433,-176.51965,272.19171,778.27887,-155.48705,298.26279,692.55951,-146.48448,207.52827,717.23676
174,1.442,-177.19089,271.17459,778.21436,-155.02559,296.14139,692.26587,-146.58702,206.52632,715.92975
175,1.45,-177.43811,270.74701,778.33765,-154.64403,294.82236,690.50977,-146.34149,205.94659,714.46954
176,1.458,-176.965,270.7489,778.26611,-154.29689,294.686,689.91772,-146.38499,205.40483,713.90656
177,1.467,-177.02524,270.25275,777.81042,-155.12842,293.56259,689.59662,-145.37062,204.6218,713.4635
178,1.475,-175.60857,270.3013,776.98383,-155.30246,293.23856,689.98187,-144.22902,204.24361,713.09558
179,1.483,-174.95197,270.75537,776.82813,-155.30246,293.23856,689.98187,-143.63489,203.02519,714.37091
180,1.492,-175.39127,270.81915,776.82941,-155.30246,293.23856,689.98187,-143.04533,202.57455,715.91833
181,1.5,-174.58623,270.98181,777.49597,-155.30246,293.23856,689.98187,-142.51146,203.02292,716.88983
182,1.508,-176.60637,271.20795,777.74475,-155.30246,293.23856,689.98187,-143.55508,203.58105,717.78235
183,1.517,-176.71779,271.17654,778.14282,-154.16103,294.6861,692.18109,-142.85107,203.55278,718.4671
184,1.525,-177.43811,270.74701,778.33765,-154.42087,293.89853,692.17688,-142.61243,204.8934,718.66046
185,1.533,-177.02301,272.31232,778.48444,-154.21654,295.15009,692.91833,-142.69501,205.93927,718.92316
186,1.542,-176.70909,273.79294,779.32629,-154.21654,295.15009,692.91833,-143.68427,206.48094,718.80127
187,1.55,-177.17218,273.87341,779.474,-154.21654,295.15009,692.91833,-143.27216,207.68073,719.56335
188,1.558,-177.57388,275.38199,779.05316,-154.06465,298.63739,693.74585,-143.17542,207.93808,719.85736
189,1.567,-177.08974,276.49435,780.33881,-154.11722,298.35773,693.65973,-143.55855,210.10272,720.04059
190,1.575,-177.26582,276.42334,778.82788,-154.52072,298.33844,693.38251,-143.13527,210.46329,720.46747
191,1.583,-177.21748,277.07587,779.1452,-155.27179,298.45508,693.69635,-143.23546,210.2058,719.89337
192,1.592,-176.73979,276.64056,778.75421,-155.97809,299.4949,691.62915,-143.02132,210.1881,718.02332
193,1.6,-175.98215,276.34387,778.82806,-157.61279,298.8273,689.66425,-143.14363,211.5768,716.34442
194,1.608,-175.98215,276.34387,778.82806,-157.61279,298.8273,689.66425,-143.99843,210.56749,716.67969
195,1.617,-175.51233,275.15814,778.61682,-157.73438,299.22028,691.82227,-144.25069,209.53857,716.33838
196,1.625,-177.54129,272.92209,778.26031,-155.63928,298.42041,693.69775,-144.87558,207.43925,717.21661
