Frame#,Time,R.Forearm.x,R.Forearm.y,R.Forearm.z,R.Ulna.x,R.Ulna.y,R.Ulna.z,R.Radius.x,R.Radius.y,R.Radius.z
1,0,-202.67564,-239.46666,653.33228,-165.74658,-210.95535,568.50079,-105.3581,-159.41566,616.79913
2,0.008,-202.75734,-239.35329,653.2655,-165.77702,-210.80518,568.74646,-105.3581,-159.41566,616.79913
3,0.017,-202.75734,-239.35329,653.2655,-165.53131,-211.22632,568.94165,-106.5092,-158.66887,616.83374
4,0.025,-202.75734,-239.35329,653.2655,-165.21446,-211.16861,569.03949,-106.55209,-158.46834,617.29187
5,0.033,-202.69823,-239.17847,653.1441,-165.2074,-210.60974,569.03491,-106.55209,-158.46834,617.29187
6,0.042,-202.55275,-238.96333,653.18262,-165.2074,-210.60974,569.03491,-106.55209,-158.46834,617.29187
7,0.05,-202.71216,-237.72646,653.45892,-164.87379,-210.29013,569.12958,-106.55209,-158.46834,617.29187
8,0.058,-202.62993,-236.19313,653.94855,-165.05353,-210.25018,569.0614,-106.55209,-158.46834,617.29187
9,0.067,-202.63977,-236.01184,654.19574,-164.91989,-209.7509,569.26233,-106.27383,-158.33905,617.49219
10,0.075,-202.75954,-235.46909,654.32306,-164.9133,-209.99263,569.28516,-106.55209,-158.46834,617.29187
11,0.083,-202.84601,-235.39774,654.41541,-164.9133,-209.99263,569.28516,-106.55209,-158.46834,617.29187
12,0.092,-202.72749,-235.45192,654.17737,-165.09305,-209.95268,569.21698,-106.55209,-158.46834,617.29187
13,0.1,-203.01256,-235.37587,654.42151,-165.09305,-209.95268,569.21698,-106.55209,-158.46834,617.29187
14,0.108,-202.94829,-235.64569,654.22748,-165.4333,-209.81293,569.22284,-106.55209,-158.46834,617.29187
15,0.117,-203.36253,-237.07251,653.71649,-165.57266,-210.2766,569.00482,-106.55209,-158.46834,617.29187
16,0.125,-203.73485,-238.09866,653.39484,-165.56709,-210.47446,569.02319,-106.55209,-158.46834,617.29187
17,0.133,-203.5797,-238.97528,653.08917,-165.56709,-210.47446,569.02319,-106.55209,-158.46834,617.29187
18,0.142,-203.5797,-238.97528,653.08917,-165.8215,-210.51093,568.74707,-105.3581,-159.41566,616.79913
19,0.15,-203.52055,-238.80043,652.96777,-165.8215,-210.51093,568.74707,-105.3581,-159.41566,616.79913
20,0.158,-203.68358,-238.77528,652.94775,-165.98376,-210.78015,568.78845,-105.13235,-160.01218,616.58264
21,0.167,-203.86035,-238.90797,652.9754,-166.34904,-211.15968,568.5636,-105.3441,-160.15334,616.43311
22,0.175,-204.03712,-239.04082,653.00305,-165.98376,-210.78015,568.78845,-105.3441,-160.15334,616.43311
23,0.183,-203.87413,-239.06604,653.02307,-165.8215,-210.51093,568.74707,-105.13235,-160.01218,616.58264
24,0.192,-203.87413,-239.06604,653.02307,-165.95331,-210.93036,568.54279,-105.39331,-159.48383,616.69037
25,0.2,-204.03712,-239.04082,653.00305,-166.24763,-211.341,568.70331,-106.5092,-158.66887,616.83374
26,0.208,-204.18158,-239.02629,653.03827,-166.48117,-211.30095,568.68268,-106.5092,-158.66887,616.83374
27,0.217,-204.18158,-239.02629,653.03827,-166.11588,-210.92145,568.90753,-106.55209,-158.46834,617.29187
28,0.225,-204.29633,-238.79767,653.03851,-165.8215,-210.51093,568.74707,-106.55209,-158.46834,617.29187
29,0.233,-204.11955,-238.66484,653.01086,-165.5993,-210.32986,569.08789,-106.17899,-157.90953,618.27136
30,0.242,-204.22481,-238.04646,653.03571,-165.67291,-210.27846,569.26422,-106.55209,-158.46834,617.29187
31,0.25,-204.40468,-237.95984,653.27411,-165.4333,-209.81293,569.22284,-106.55209,-158.46834,617.29187
32,0.258,-204.16637,-237.04393,653.52869,-165.54726,-209.8166,569.34607,-106.55209,-158.46834,617.29187
33,0.267,-204.10902,-235.70018,653.16199,-165.44247,-209.55138,569.20239,-107.82914,-157.31586,616.58453
34,0.275,-204.16281,-234.85182,653.44531,-165.28387,-209.93092,569.26331,-107.78127,-157.12502,616.81177
35,0.283,-204.0743,-234.54326,653.57172,-165.44247,-209.55138,569.20239,-107.04107,-157.92648,616.65582
36,0.292,-203.80861,-234.69215,653.92053,-165.44247,-209.55138,569.20239,-106.55209,-158.46834,617.29187
37,0.3,-203.94824,-234.3815,653.98102,-165.41019,-209.6879,569.375,-106.55209,-158.46834,617.29187
38,0.308,-204.11725,-235.64746,653.84674,-165.4333,-209.81293,569.22284,-106.55209,-158.46834,617.29187
39,0.317,-203.98697,-236.68059,653.4115,-165.4333,-209.81293,569.22284,-106.17899,-157.90953,618.27136
40,0.325,-204.08475,-237.15732,653.5954,-165.4333,-209.81293,569.22284,-106.55209,-158.46834,617.29187
41,0.333,-204.16637,-237.04393,653.52869,-165.44547,-209.97025,569.11438,-106.55209,-158.46834,617.29187
42,0.342,-204.19688,-238.1696,653.21881,-165.44547,-209.97025,569.11438,-106.55209,-158.46834,617.29187
43,0.35,-203.94279,-238.53218,652.98328,-165.66496,-210.58173,568.64557,-106.5092,-158.66887,616.83374
44,0.358,-203.68358,-238.77528,652.94775,-165.79106,-210.66116,568.5014,-106.55209,-158.46834,617.29187
45,0.367,-203.86035,-238.90797,652.9754,-165.79106,-210.66116,568.5014,-105.3581,-159.41566,616.79913
46,0.375,-203.34364,-238.89162,652.82819,-165.79106,-210.66116,568.5014,-105.13235,-160.01218,616.58264
47,0.383,-203.34364,-238.89162,652.82819,-165.79106,-210.66116,568.5014,-105.13235,-160.01218,616.58264
48,0.392,-203.34364,-238.89162,652.82819,-165.79106,-210.66116,568.5014,-105.13235,-160.01218,616.58264
49,0.4,-203.34364,-238.89162,652.82819,-166.11551,-211.19972,568.58423,-105.3441,-160.15334,616.43311
50,0.408,-203.34364,-238.89162,652.82819,-165.5843,-210.68616,568.45941,-105.13235,-160.01218,616.58264
51,0.417,-203.34364,-238.89162,652.82819,-165.45038,-210.74606,568.3584,-105.39331,-159.48383,616.69037
52,0.425,-203.34364,-238.89162,652.82819,-165.5843,-210.68616,568.45941,-105.39331,-159.48383,616.69037
53,0.433,-203.34364,-238.89162,652.82819,-165.5843,-210.68616,568.45941,-105.39331,-159.48383,616.69037
54,0.442,-203.34364,-238.89162,652.82819,-165.5843,-210.68616,568.45941,-105.3581,-159.41566,616.79913
55,0.45,-203.34364,-238.89162,652.82819,-165.17699,-210.76003,568.78925,-106.14645,-158.80563,616.7276
56,0.458,-203.17499,-238.50797,652.75024,-165.2074,-210.60974,569.03491,-106.74842,-158.23567,617.02631
57,0.467,-203.1738,-237.54933,652.92926,-165.37633,-210.4962,568.97687,-106.74842,-158.23567,617.02631
58,0.475,-203.20039,-236.82503,653.23145,-165.05353,-210.25018,569.0614,-106.74842,-158.23567,617.02631
59,0.483,-203.5377,-236.63843,653.44696,-165.05353,-210.25018,569.0614,-106.55209,-158.46834,617.29187
60,0.492,-203.25098,-235.74484,653.71075,-165.10524,-210.10997,569.10852,-105.73645,-157.80069,618.60834
61,0.5,-203.22882,-235.54631,653.81232,-164.9133,-209.99263,569.28516,-106.27383,-158.33905,617.49219
62,0.508,-203.31038,-235.43292,653.74561,-164.9133,-209.99263,569.28516,-106.55209,-158.46834,617.29187
63,0.517,-203.28171,-235.29805,654.14233,-165.29277,-209.68213,569.2442,-106.55209,-158.46834,617.29187
64,0.525,-203.20667,-235.34792,653.91388,-165.28387,-209.93092,569.26331,-106.27383,-158.33905,617.49219
65,0.533,-203.19522,-235.36945,654.04999,-165.28387,-209.93092,569.26331,-106.27383,-158.33905,617.49219
66,0.542,-203.38353,-235.8038,653.75476,-165.4333,-209.81293,569.22284,-106.27383,-158.33905,617.49219
67,0.55,-203.90535,-236.79398,653.47827,-165.28387,-209.93092,569.26331,-106.55209,-158.46834,617.29187
68,0.558,-203.68321,-236.85371,653.40851,-165.4333,-209.81293,569.22284,-106.55209,-158.46834,617.29187
69,0.567,-203.88376,-237.59312,653.2312,-165.4333,-209.81293,569.22284,-106.55209,-158.46834,617.29187
70,0.575,-203.94211,-237.87067,653.15869,-165.4333,-209.81293,569.22284,-106.55209,-158.46834,617.29187
71,0.583,-203.81207,-238.70457,652.99567,-165.44547,-209.97025,569.11438,-106.55209,-158.46834,617.29187
72,0.592,-203.63528,-238.57184,652.96802,-165.7276,-210.28688,568.95593,-106.55209,-158.46834,617.29187
73,0.6,-203.79831,-238.54666,652.94806,-165.8215,-210.51093,568.74707,-106.5092,-158.66887,616.83374
74,0.608,-204.00482,-238.89348,653.01062,-165.69539,-210.43147,568.89124,-106.5092,-158.66887,616.83374
75,0.617,-203.86035,-238.90797,652.9754,-165.8215,-210.51093,568.74707,-106.5092,-158.66887,616.83374
76,0.625,-204.06375,-238.31653,653.30542,-165.8074,-210.6246,569.1333,-106.55209,-158.46834,617.29187
77,0.633,-204.1785,-238.08786,653.30566,-165.77696,-210.77484,568.88757,-106.55209,-158.46834,617.29187
78,0.642,-204.29633,-238.79767,653.03851,-165.77696,-210.77484,568.88757,-106.55209,-158.46834,617.29187
79,0.65,-204.37801,-238.68423,652.97174,-166.041,-210.58458,569.11267,-106.55209,-158.46834,617.29187
80,0.658,-204.32301,-238.07324,653.34088,-165.8074,-210.6246,569.1333,-106.55209,-158.46834,617.29187
81,0.667,-204.29633,-238.79767,653.03851,-165.8215,-210.51093,568.74707,-106.5092,-158.66887,616.83374
82,0.675,-204.29633,-238.79767,653.03851,-165.8215,-210.51093,568.74707,-106.5092,-158.66887,616.83374
83,0.683,-204.31992,-238.29268,653.13019,-165.96124,-210.24686,568.93524,-106.55209,-158.46834,617.29187
84,0.692,-204.12198,-237.78389,653.39697,-165.57884,-209.67345,568.95435,-106.55209,-158.46834,617.29187
85,0.7,-204.08475,-237.15732,653.5954,-165.4333,-209.81293,569.22284,-106.55209,-158.46834,617.29187
86,0.708,-204.08475,-237.15732,653.5954,-165.41927,-209.92657,569.60889,-106.17899,-157.90953,618.27136
87,0.717,-203.85365,-236.33083,653.71515,-165.41927,-209.92657,569.60889,-106.55209,-158.46834,617.29187
88,0.725,-203.58965,-235.39336,654.11401,-165.41927,-209.92657,569.60889,-106.55209,-158.46834,617.29187
89,0.733,-203.70866,-235.06029,654.29321,-165.41927,-209.92657,569.60889,-106.55209,-158.46834,617.29187
90,0.742,-203.54329,-234.90596,654.12939,-165.41927,-209.92657,569.60889,-106.55209,-158.46834,617.29187
91,0.75,-203.61368,-235.7571,654.06073,-165.4333,-209.81293,569.22284,-106.55209,-158.46834,617.29187
92,0.758,-203.46851,-234.68222,653.58234,-165.44247,-209.55138,569.20239,-106.55209,-158.46834,617.29187
93,0.767,-203.58965,-235.39336,654.11401,-165.4333,-209.81293,569.22284,-106.55209,-158.46834,617.29187
94,0.775,-203.66029,-236.29164,653.62366,-165.4333,-209.81293,569.22284,-106.55209,-158.46834,617.29187
95,0.783,-203.72855,-236.66121,653.45056,-165.4333,-209.81293,569.22284,-106.55209,-158.46834,617.29187
96,0.792,-203.86,-236.98645,653.43616,-165.43143,-210.08389,569.50049,-106.55209,-158.46834,617.29187
97,0.8,-203.86261,-237.21706,653.5257,-165.54759,-209.88362,569.47693,-106.55209,-158.46834,617.29187
98,0.808,-204.19998,-237.95013,653.4295,-165.55974,-210.04094,569.36853,-106.55209,-158.46834,617.29187
99,0.817,-203.96945,-237.80777,653.28552,-165.54158,-210.07187,568.91772,-106.55209,-158.46834,617.29187
100,0.825,-203.96637,-238.02721,653.07489,-165.7276,-210.28688,568.95593,-106.55209,-158.46834,617.29187
101,0.833,-204.14314,-238.15987,653.10248,-165.5434,-210.07758,568.73669,-106.55209,-158.46834,617.29187
102,0.842,-204.11955,-238.66484,653.01086,-165.66496,-210.58173,568.64557,-106.55209,-158.46834,617.29187
103,0.85,-204.11955,-238.66484,653.01086,-165.69539,-210.43147,568.89124,-105.76345,-159.07849,617.3634
104,0.858,-203.96637,-238.02721,653.07489,-165.5993,-210.32986,569.08789,-106.18926,-158.60516,617.18573
105,0.867,-204.14314,-238.15987,653.10248,-165.52264,-210.73839,569.16364,-106.55209,-158.46834,617.29187
106,0.875,-203.96945,-237.80777,653.28552,-165.65089,-210.6954,569.03174,-106.55209,-158.46834,617.29187
107,0.883,-203.96945,-237.80777,653.28552,-165.52751,-210.18556,569.30383,-106.55209,-158.46834,617.29187
108,0.892,-203.96945,-237.80777,653.28552,-165.52751,-210.18556,569.30383,-106.55209,-158.46834,617.29187
109,0.9,-204.14622,-237.94043,653.31317,-165.41327,-210.11487,569.04968,-106.55209,-158.46834,617.29187
110,0.908,-203.80084,-237.42409,653.20752,-165.44547,-209.97025,569.11438,-106.55209,-158.46834,617.29187
111,0.917,-203.80623,-236.97672,653.31976,-165.28387,-209.93092,569.26331,-106.55209,-158.46834,617.29187
112,0.925,-204.08475,-237.15732,653.5954,-165.44547,-209.97025,569.11438,-106.55209,-158.46834,617.29187
113,0.933,-203.98697,-236.68059,653.4115,-165.4333,-209.81293,569.22284,-106.55209,-158.46834,617.29187
114,0.942,-203.98697,-236.68059,653.4115,-165.26987,-210.04456,569.64941,-106.55209,-158.46834,617.29187
115,0.95,-204.0488,-236.55727,653.51917,-165.26987,-210.04456,569.64941,-106.55209,-158.46834,617.29187
116,0.958,-204.07277,-236.32083,653.66998,-165.55389,-209.68811,569.73871,-106.55209,-158.46834,617.29187
117,0.967,-204.23735,-236.50526,653.66077,-165.53323,-209.93022,569.73218,-106.55209,-158.46834,617.29187
118,0.975,-204.42416,-237.09627,653.6507,-165.55389,-209.68811,569.73871,-106.55209,-158.46834,617.29187
119,0.983,-204.16637,-237.04393,653.52869,-165.54726,-209.8166,569.34607,-106.55209,-158.46834,617.29187
120,0.992,-204.34319,-237.1768,653.5564,-165.44247,-209.55138,569.20239,-106.55209,-158.46834,617.29187
121,1,-204.34319,-237.1768,653.5564,-165.4333,-209.81293,569.22284,-106.55209,-158.46834,617.29187
122,1.008,-204.43417,-237.81302,653.47424,-165.66006,-209.93454,569.10168,-106.55209,-158.46834,617.29187
123,1.017,-204.43417,-237.81302,653.47424,-165.5993,-210.32986,569.08789,-106.55209,-158.46834,617.29187
124,1.025,-204.45842,-237.96954,653.39044,-165.8215,-210.51093,568.74707,-106.55209,-158.46834,617.29187
125,1.033,-204.40468,-237.95984,653.27411,-165.56709,-210.47446,569.02319,-106.55209,-158.46834,617.29187
126,1.042,-204.40468,-237.95984,653.27411,-165.79106,-210.66116,568.5014,-106.55209,-158.46834,617.29187
127,1.05,-204.4016,-238.17929,653.06342,-165.8215,-210.51093,568.74707,-105.40083,-159.21521,617.2572
128,1.058,-204.4016,-238.17929,653.06342,-165.98376,-210.78015,568.78845,-105.40083,-159.21521,617.2572
129,1.067,-204.45125,-238.65753,652.85706,-165.79106,-210.66116,568.5014,-105.40083,-159.21521,617.2572
130,1.075,-204.37801,-238.68423,652.97174,-165.66496,-210.58173,568.64557,-105.40083,-159.21521,617.2572
131,1.083,-204.37801,-238.68423,652.97174,-165.61475,-210.53593,568.70508,-105.40083,-159.21521,617.2572
132,1.092,-204.37801,-238.68423,652.97174,-165.50247,-210.5757,568.8327,-106.18926,-158.60516,617.18573
133,1.1,-204.4016,-238.17929,653.06342,-165.37633,-210.4962,568.97687,-106.55209,-158.46834,617.29187
134,1.108,-204.40468,-237.95984,653.27411,-165.37633,-210.4962,568.97687,-106.55209,-158.46834,617.29187
135,1.117,-204.40468,-237.95984,653.27411,-165.20842,-210.25026,569.38947,-106.55209,-158.46834,617.29187
136,1.125,-204.40468,-237.95984,653.27411,-165.24062,-210.10565,569.4541,-106.55209,-158.46834,617.29187
137,1.133,-204.15163,-236.95126,653.22852,-165.22845,-209.94835,569.56256,-106.55209,-158.46834,617.29187
138,1.142,-204.11002,-236.8038,653.32281,-165.22845,-209.94835,569.56256,-106.55209,-158.46834,617.29187
139,1.15,-203.9332,-236.67085,653.2951,-165.28387,-209.93092,569.26331,-106.27383,-158.33905,617.49219
140,1.158,-204.01636,-236.46014,653.55609,-165.41927,-209.92657,569.60889,-106.27383,-158.33905,617.49219
141,1.167,-204.24657,-235.17548,653.68561,-165.26987,-210.04456,569.64941,-106.50429,-158.27754,617.51898
142,1.175,-204.41119,-235.35994,653.67645,-165.26987,-210.04456,569.64941,-106.55209,-158.46834,617.29187
143,1.183,-204.65881,-235.35226,653.64978,-165.41927,-209.92657,569.60889,-106.55209,-158.46834,617.29187
144,1.192,-204.51834,-235.93137,653.77197,-165.41927,-209.92657,569.60889,-106.55209,-158.46834,617.29187
145,1.2,-204.79478,-236.50652,653.79443,-165.54759,-209.88362,569.47693,-106.55209,-158.46834,617.29187
146,1.208,-204.37561,-235.91003,653.58392,-165.58525,-210.4435,569.474,-106.55209,-158.46834,617.29187
147,1.217,-204.28668,-236.41208,653.44653,-165.56709,-210.47446,569.02319,-106.55209,-158.46834,617.29187
148,1.225,-204.36502,-236.84843,653.29993,-165.98376,-210.78015,568.78845,-106.55209,-158.46834,617.29187
149,1.233,-204.24615,-237.04208,653.08228,-165.92316,-210.80247,568.62048,-105.76345,-159.07849,617.3634
150,1.242,-204.21936,-237.7666,652.77997,-166.62848,-211.25366,568.54272,-105.62743,-160.27623,616.32422
151,1.25,-204.21936,-237.7666,652.77997,-166.40033,-211.52373,568.33209,-105.62743,-160.27623,616.32422
152,1.258,-204.21936,-237.7666,652.77997,-166.26639,-211.58365,568.23108,-105.62743,-160.27623,616.32422
153,1.267,-204.21936,-237.7666,652.77997,-166.20995,-211.73376,568.34711,-105.62743,-160.27623,616.32422
154,1.275,-204.21936,-237.7666,652.77997,-166.07602,-211.79367,568.24609,-105.62743,-160.27623,616.32422
155,1.283,-204.10461,-237.99544,652.77972,-165.67889,-211.69591,568.34961,-105.62743,-160.27623,616.32422
156,1.292,-204.10461,-237.99544,652.77972,-165.48851,-211.90581,568.36456,-105.62743,-160.27623,616.32422
157,1.3,-204.10461,-237.99544,652.77972,-165.48851,-211.90581,568.36456,-105.62743,-160.27623,616.32422
158,1.308,-204.10461,-237.99544,652.77972,-165.82735,-212.02214,568.5257,-105.3441,-160.15334,616.43311
159,1.317,-204.21936,-237.7666,652.77997,-165.62244,-211.84598,568.46564,-105.44542,-159.32529,617.09332
160,1.325,-204.21936,-237.7666,652.77997,-165.79362,-211.93164,568.90747,-106.55209,-158.46834,617.29187
161,1.333,-204.17955,-237.28561,652.9776,-165.84082,-211.38147,569.66919,-106.55209,-158.46834,617.29187
162,1.342,-204.18266,-237.06613,653.18829,-165.67859,-211.11211,569.62781,-106.55209,-158.46834,617.29187
163,1.35,-204.48013,-237.14661,653.47736,-165.51627,-210.84291,569.58643,-106.55209,-158.46834,617.29187
164,1.358,-204.47841,-236.17346,653.75629,-165.28203,-210.20186,569.54095,-107.33984,-157.85783,617.22076
165,1.367,-204.49962,-235.18425,653.83051,-165.07251,-210.08739,569.71851,-107.84041,-156.1982,617.23303
166,1.375,-204.50616,-235.02538,653.96643,-165.42322,-210.21072,570.01215,-107.70815,-155.93825,617.35138
167,1.383,-204.68324,-234.50601,654.18744,-165.17087,-210.093,569.83905,-107.42986,-155.80881,617.55176
168,1.392,-204.56435,-234.5562,654.41895,-165.42322,-210.21072,570.01215,-107.31747,-155.55969,617.31757
169,1.4,-204.69405,-234.52391,654.31927,-165.42322,-210.21072,570.01215,-107.84041,-156.1982,617.23303
170,1.408,-204.9063,-234.9989,654.15753,-165.61128,-210.35637,569.92249,-108.08964,-156.55313,617.18109
171,1.417,-204.89548,-234.98099,654.02576,-165.61128,-210.35637,569.92249,-107.33984,-157.85783,617.22076
172,1.425,-205.07481,-235.34438,654.14288,-165.50949,-210.51003,569.69086,-106.55209,-158.46834,617.29187
173,1.433,-204.97165,-235.70566,653.82373,-165.51627,-210.84291,569.58643,-106.55209,-158.46834,617.29187
174,1.442,-205.03467,-237.43489,653.54211,-165.55304,-210.58807,569.40936,-106.55209,-158.46834,617.29187
175,1.45,-204.42294,-236.85611,653.40656,-165.98296,-211.24831,569.10632,-106.83017,-158.59779,617.09155
176,1.458,-204.17955,-237.28561,652.9776,-166.11551,-211.19972,568.58423,-105.82645,-160.41962,617.14667
177,1.467,-204.5107,-238.65608,652.90253,-166.11551,-211.19972,568.58423,-105.62743,-160.27623,616.32422
178,1.475,-204.39597,-238.88474,652.90228,-166.13322,-211.21268,568.34924,-105.62743,-160.27623,616.32422
179,1.483,-203.92776,-238.08664,652.6402,-166.4165,-211.73331,568.18762,-105.37636,-160.60806,616.12488
180,1.492,-203.92776,-238.08664,652.6402,-165.8597,-211.98396,568.10803,-105.23318,-160.86275,616.88501
181,1.5,-204.28247,-238.9519,652.65674,-166.28439,-211.73143,568.05829,-105.37195,-160.79662,615.91565
182,1.508,-204.02655,-238.98972,652.67786,-165.65233,-212.01128,568.07886,-105.37195,-160.79662,615.91565
183,1.517,-203.94485,-239.10316,652.74463,-165.78447,-212.15256,568.19794,-105.37636,-160.60806,616.12488
184,1.525,-203.94485,-239.10316,652.74463,-165.63867,-212.0555,568.32111,-105.23981,-160.33061,615.87433
185,1.533,-203.94485,-239.10316,652.74463,-165.77083,-212.19675,568.44019,-105.62743,-160.27623,616.32422
186,1.542,-204.07788,-239.09082,652.784,-165.96127,-211.96225,568.62671,-105.62743,-160.27623,616.32422
187,1.55,-204.00464,-239.11749,652.89868,-165.59282,-212.25111,569.49823,-107.02804,-158.5575,617.1214
188,1.558,-204.29633,-238.79767,653.03851,-165.75479,-211.57913,569.43567,-106.55209,-158.46834,617.29187
189,1.567,-204.58488,-238.03712,653.46637,-165.67886,-212.05354,569.73175,-106.55209,-158.46834,617.29187
190,1.575,-204.65141,-237.8157,653.76282,-165.35434,-211.51524,569.64899,-106.55209,-158.46834,617.29187
