Frame#,Time,R.Forearm.x,R.Forearm.y,R.Forearm.z,R.Ulna.x,R.Ulna.y,R.Ulna.z,R.Radius.x,R.Radius.y,R.Radius.z
1,0,604.51044,-144.34221,1526.50085,706.90662,-222.70993,1485.35107,804.87598,-155.8019,1497.28894
2,0.008,604.51044,-144.34221,1526.50085,706.99194,-223.35065,1485.62817,804.69745,-155.84265,1497.15613
3,0.017,604.35004,-144.60977,1526.09692,706.7146,-223.25299,1485.34705,804.69745,-155.84265,1497.15613
4,0.025,604.43414,-144.69922,1525.96875,706.57074,-223.35492,1485.26746,804.69745,-155.84265,1497.15613
5,0.033,604.43414,-144.69922,1525.96875,706.70642,-223.6301,1485.54614,804.69745,-155.84265,1497.15613
6,0.042,604.43414,-144.69922,1525.96875,706.69232,-223.83165,1485.34607,804.69745,-155.84265,1497.15613
7,0.05,604.43414,-144.69922,1525.96875,706.49841,-224.05873,1485.35559,804.69745,-155.84265,1497.15613
8,0.058,604.43414,-144.69922,1525.96875,706.49841,-224.05873,1485.35559,804.69745,-155.84265,1497.15613
9,0.067,604.47021,-145.17165,1525.98596,706.49841,-224.05873,1485.35559,804.83997,-156.18175,1497.25317
10,0.075,604.59845,-145.49474,1525.58594,706.49841,-224.05873,1485.35559,804.83997,-156.18175,1497.25317
11,0.083,604.61346,-145.998,1525.68921,707.12189,-224.42871,1485.35864,804.83997,-156.18175,1497.25317
12,0.092,604.62439,-146.09128,1525.72913,706.70874,-224.48206,1485.23596,804.83997,-156.18175,1497.25317
13,0.1,604.62439,-146.09128,1525.72913,707.03473,-225.14755,1485.04236,805.01904,-156.65338,1497.75842
14,0.108,604.62439,-146.09128,1525.72913,706.38422,-224.4097,1484.97559,804.67041,-155.61234,1497.36938
15,0.117,604.62439,-146.09128,1525.72913,706.5199,-224.6846,1485.25427,804.86945,-156.21846,1497.92273
16,0.125,604.53363,-146.18246,1525.625,707.03473,-225.14755,1485.04236,804.86945,-156.21846,1497.92273
17,0.133,604.53363,-146.18246,1525.625,706.94171,-225.30486,1484.97314,804.86945,-156.21846,1497.92273
18,0.142,604.53363,-146.18246,1525.625,706.94171,-225.30486,1484.97314,804.86945,-156.21846,1497.92273
19,0.15,604.53363,-146.18246,1525.625,707.31512,-225.32648,1484.74292,804.86945,-156.21846,1497.92273
20,0.158,604.42114,-146.26031,1525.54529,707.31512,-225.32648,1484.74292,804.44281,-157.10951,1497.5896
21,0.167,604.80383,-146.8837,1525.70984,707.31512,-225.32648,1484.74292,804.79828,-157.61098,1497.17639
22,0.175,604.42114,-146.26031,1525.54529,707.31512,-225.32648,1484.74292,804.44281,-157.10951,1497.5896
23,0.183,604.41858,-146.35722,1525.41101,707.26453,-225.43643,1484.58093,804.79828,-157.61098,1497.17639
24,0.192,604.42114,-146.26031,1525.54529,707.26453,-225.43643,1484.58093,804.79828,-157.61098,1497.17639
25,0.2,604.41858,-146.35722,1525.41101,706.94171,-225.30486,1484.97314,804.79828,-157.61098,1497.17639
26,0.208,604.80121,-146.98056,1525.57568,707.26862,-225.54861,1484.57092,804.79828,-157.61098,1497.17639
27,0.217,604.80383,-146.8837,1525.70984,706.70209,-225.48599,1484.95984,804.79828,-157.61098,1497.17639
28,0.225,604.80383,-146.8837,1525.70984,707.1687,-225.51579,1484.64722,804.91943,-159.84906,1498.65845
29,0.233,604.80121,-146.98056,1525.57568,706.95544,-225.74532,1484.49878,804.91943,-159.84906,1498.65845
30,0.242,604.80121,-146.98056,1525.57568,706.95544,-225.74532,1484.49878,804.91943,-159.84906,1498.65845
31,0.25,604.80383,-146.8837,1525.70984,706.95544,-225.74532,1484.49878,804.84686,-158.76241,1498.75061
32,0.258,604.80383,-146.8837,1525.70984,706.58209,-225.72368,1484.729,805.03455,-158.79906,1499.06384
33,0.267,604.80383,-146.8837,1525.70984,706.58209,-225.72368,1484.729,804.74762,-159.41965,1499.52734
34,0.275,604.80383,-146.8837,1525.70984,706.95544,-225.74532,1484.49878,804.89441,-160.30528,1499.29199
35,0.283,604.80383,-146.8837,1525.70984,706.63269,-225.61372,1484.89087,804.89441,-160.30528,1499.29199
36,0.292,604.80383,-146.8837,1525.70984,706.58209,-225.72368,1484.729,804.87036,-160.37874,1499.3894
37,0.3,604.77911,-147.2701,1526.05212,706.63269,-225.61372,1484.89087,804.78955,-160.44243,1499.59949
38,0.308,604.77911,-147.2701,1526.05212,706.63269,-225.61372,1484.89087,804.78955,-160.44243,1499.59949
39,0.317,604.56848,-147.52675,1526.2926,706.63269,-225.61372,1484.89087,804.78955,-160.44243,1499.59949
40,0.325,604.56848,-147.52675,1526.2926,706.63269,-225.61372,1484.89087,804.78955,-160.44243,1499.59949
41,0.333,604.56848,-147.52675,1526.2926,706.63269,-225.61372,1484.89087,804.78955,-160.44243,1499.59949
42,0.342,604.56848,-147.52675,1526.2926,706.60962,-225.90579,1485.02625,804.78955,-160.44243,1499.59949
43,0.35,604.46906,-147.81537,1526.42834,706.60962,-225.90579,1485.02625,804.78955,-160.44243,1499.59949
44,0.358,604.46906,-147.81537,1526.42834,706.60925,-226.11188,1485.12378,804.78955,-160.44243,1499.59949
45,0.367,604.46906,-147.81537,1526.42834,706.60925,-226.11188,1485.12378,804.78955,-160.44243,1499.59949
46,0.375,604.46906,-147.81537,1526.42834,706.60925,-226.11188,1485.12378,804.89923,-160.85318,1499.78357
47,0.383,604.46906,-147.81537,1526.42834,706.60925,-226.11188,1485.12378,804.89923,-160.85318,1499.78357
48,0.392,604.46906,-147.81537,1526.42834,706.60925,-226.11188,1485.12378,804.89923,-160.85318,1499.78357
49,0.4,604.46906,-147.81537,1526.42834,706.67865,-225.98418,1485.19275,804.89923,-160.85318,1499.78357
50,0.408,604.46906,-147.81537,1526.42834,706.67865,-225.98418,1485.19275,804.89923,-160.85318,1499.78357
51,0.417,604.46906,-147.81537,1526.42834,706.54175,-226.24886,1485.23157,804.89923,-160.85318,1499.78357
52,0.425,604.46906,-147.81537,1526.42834,706.60925,-226.11188,1485.12378,804.89923,-160.85318,1499.78357
53,0.433,604.46906,-147.81537,1526.42834,706.60925,-226.11188,1485.12378,804.89923,-160.85318,1499.78357
54,0.442,604.46906,-147.81537,1526.42834,706.60925,-226.11188,1485.12378,804.55109,-160.76486,1499.8783
55,0.45,604.36017,-147.76424,1526.52747,706.60925,-226.11188,1485.12378,804.55109,-160.76486,1499.8783
56,0.458,604.36017,-147.76424,1526.52747,706.60925,-226.11188,1485.12378,804.55109,-160.76486,1499.8783
57,0.467,604.38,-147.93561,1526.54712,706.54175,-226.24886,1485.23157,804.55109,-160.76486,1499.8783
58,0.475,604.27112,-147.88446,1526.64624,706.54175,-226.24886,1485.23157,804.55109,-160.76486,1499.8783
59,0.483,604.27112,-147.88446,1526.64624,706.54175,-226.24886,1485.23157,804.55109,-160.76486,1499.8783
60,0.492,604.36017,-147.76424,1526.52747,706.54175,-226.24886,1485.23157,804.55109,-160.76486,1499.8783
61,0.5,604.38,-147.93561,1526.54712,706.54175,-226.24886,1485.23157,804.55109,-160.76486,1499.8783
62,0.508,604.36017,-147.76424,1526.52747,706.54175,-226.24886,1485.23157,804.44128,-160.35408,1499.69421
63,0.517,603.9776,-147.14105,1526.36292,706.54175,-226.24886,1485.23157,804.55109,-160.76486,1499.8783
64,0.525,603.88855,-147.26135,1526.48169,706.38995,-226.31898,1485.19507,804.55109,-160.76486,1499.8783
65,0.533,603.81152,-147.15527,1526.34644,706.38995,-226.31898,1485.19507,804.21051,-160.40926,1499.62122
66,0.542,603.93951,-147.27977,1526.3114,706.31281,-226.27293,1485.28027,804.44128,-160.35408,1499.69421
67,0.55,604.13477,-147.96016,1526.47058,705.84906,-226.06822,1485.32483,804.21051,-160.40926,1499.62122
68,0.558,603.87805,-147.29813,1526.32813,705.92621,-226.11433,1485.2395,804.21051,-160.40926,1499.62122
69,0.567,603.20148,-147.47585,1526.27917,705.82544,-226.22314,1485.13623,804.21051,-160.40926,1499.62122
70,0.575,603.20148,-147.47585,1526.27917,705.7558,-226.24942,1485.13208,804.21051,-160.40926,1499.62122
71,0.583,603.16174,-147.63071,1526.17749,705.60455,-226.46812,1484.86694,803.58398,-161.32286,1499.55249
72,0.592,602.35406,-147.44368,1526.1145,705.6554,-226.15216,1484.93115,803.58398,-161.32286,1499.55249
73,0.6,602.35406,-147.44368,1526.1145,705.22113,-226.37073,1484.7644,803.58398,-161.32286,1499.55249
74,0.608,602.35406,-147.44368,1526.1145,705.07422,-226.37627,1484.80847,803.46808,-160.77042,1499.6925
75,0.617,602.35406,-147.44368,1526.1145,705.07391,-226.58228,1484.90601,803.58398,-161.32286,1499.55249
76,0.625,602.20227,-147.40854,1526.07837,705.07422,-226.37627,1484.80847,803.25354,-161.60751,1499.10254
77,0.633,602.05597,-147.51456,1525.94543,705.07422,-226.37627,1484.80847,803.25354,-161.60751,1499.10254
78,0.642,602.05597,-147.51456,1525.94543,705.07422,-226.37627,1484.80847,803.25354,-161.60751,1499.10254
79,0.65,601.76141,-147.51341,1526.05762,705.07422,-226.37627,1484.80847,802.4787,-162.2917,1498.61694
80,0.658,601.76141,-147.51341,1526.05762,705.07422,-226.37627,1484.80847,802.4787,-162.2917,1498.61694
81,0.667,601.76141,-147.51341,1526.05762,705.07422,-226.37627,1484.80847,802.4787,-162.2917,1498.61694
82,0.675,601.76141,-147.51341,1526.05762,704.87164,-226.60295,1484.79932,802.4787,-162.2917,1498.61694
83,0.683,601.76141,-147.51341,1526.05762,704.73248,-226.77277,1484.80469,802.58661,-161.70773,1498.89148
84,0.692,601.53888,-147.99896,1526.19482,704.67035,-226.87466,1484.69678,802.3396,-162.17719,1498.50232
85,0.7,601.53888,-147.99896,1526.19482,704.47632,-227.05544,1484.62256,802.3396,-162.17719,1498.50232
86,0.708,601.53888,-147.99896,1526.19482,704.35449,-227.17192,1484.68091,802.40015,-162.35094,1498.44897
87,0.717,601.53888,-147.99896,1526.19482,704.21869,-226.89757,1484.40259,802.40015,-162.35094,1498.44897
88,0.725,601.40167,-148.06833,1526.13367,704.21869,-226.89757,1484.40259,801.92847,-162.26556,1498.6062
89,0.733,601.40167,-148.06833,1526.13367,703.80182,-226.68323,1484.40088,802.07617,-162.21877,1498.51233
90,0.742,601.23108,-148.65494,1526.06482,703.56793,-227.56445,1483.9082,801.92847,-162.26556,1498.6062
91,0.75,600.9408,-148.72935,1525.88318,703.56793,-227.56445,1483.9082,801.92847,-162.26556,1498.6062
92,0.758,600.9408,-148.72935,1525.88318,703.41895,-226.93134,1483.65381,801.92847,-162.26556,1498.6062
93,0.767,600.9408,-148.72935,1525.88318,703.82678,-227.71266,1483.77478,801.93445,-162.38567,1498.5625
94,0.775,600.9408,-148.72935,1525.88318,703.22742,-227.23447,1483.54089,801.93445,-162.38567,1498.5625
95,0.783,600.9408,-148.72935,1525.88318,703.08594,-227.41203,1483.53882,801.93445,-162.38567,1498.5625
96,0.792,600.9408,-148.72935,1525.88318,703.05688,-227.52222,1483.64929,801.93445,-162.38567,1498.5625
97,0.8,600.9408,-148.72935,1525.88318,703.05688,-227.52222,1483.64929,801.71942,-162.33463,1498.547
98,0.808,600.9408,-148.72935,1525.88318,702.87427,-227.25826,1483.41711,801.45337,-162.06737,1497.75085
99,0.817,600.93958,-148.79457,1525.87927,702.68213,-227.56993,1483.31396,800.63226,-161.72046,1497.78723
100,0.825,600.8371,-148.95352,1525.92261,702.67059,-227.49167,1483.41736,800.63226,-161.72046,1497.78723
101,0.833,600.63916,-149.12605,1525.94495,702.68213,-227.56993,1483.31396,801.27557,-162.10915,1497.61865
102,0.842,600.63916,-149.12605,1525.94495,702.61658,-227.65834,1483.22449,800.63226,-161.72046,1497.78723
103,0.85,600.40985,-149.37804,1525.95032,702.3833,-227.90781,1483.08716,800.63226,-161.72046,1497.78723
104,0.858,600.40985,-149.37804,1525.95032,702.41522,-227.88132,1483.06494,800.63226,-161.72046,1497.78723
105,0.867,600.40985,-149.37804,1525.95032,702.31781,-228.04247,1482.9989,800.63226,-161.72046,1497.78723
106,0.875,600.40985,-149.37804,1525.95032,701.94507,-228.02104,1483.22876,800.63226,-161.72046,1497.78723
107,0.883,600.40985,-149.37804,1525.95032,701.94507,-228.02104,1483.22876,800.43896,-161.55405,1497.65942
108,0.892,600.13782,-149.77444,1525.80994,702.31781,-228.04247,1482.9989,800.43896,-161.55405,1497.65942
109,0.9,600.13782,-149.77444,1525.80994,701.91638,-227.95778,1483.31897,800.63226,-161.72046,1497.78723
110,0.908,600.13782,-149.77444,1525.80994,701.83246,-228.19696,1483.31274,800.63226,-161.72046,1497.78723
111,0.917,600.13782,-149.77444,1525.80994,701.80377,-228.1337,1483.40283,800.07513,-161.47768,1497.57947
112,0.925,600.13782,-149.77444,1525.80994,701.91638,-227.95778,1483.31897,799.85742,-161.39223,1497.54163
113,0.933,600.13782,-149.77444,1525.80994,701.64502,-228.26898,1483.31934,799.85742,-161.39223,1497.54163
114,0.942,600.13782,-149.77444,1525.80994,701.64502,-228.26898,1483.31934,799.85742,-161.39223,1497.54163
115,0.95,600.13782,-149.77444,1525.80994,701.27222,-228.2478,1483.54907,799.85742,-161.39223,1497.54163
116,0.958,600.13782,-149.77444,1525.80994,701.12537,-228.25314,1483.59314,799.85742,-161.39223,1497.54163
117,0.967,600.07886,-149.63821,1525.66553,701.46021,-228.71283,1483.9718,799.85742,-161.39223,1497.54163
118,0.975,599.90002,-149.65331,1525.69312,701.41443,-228.52309,1483.75964,799.59705,-162.17058,1497.53992
119,0.983,599.90002,-149.65331,1525.69312,701.12537,-228.25314,1483.59314,799.49194,-162.25017,1497.64734
120,0.992,599.90002,-149.65331,1525.69312,700.93646,-228.29852,1483.60107,799.49194,-162.25017,1497.64734
121,1,599.90002,-149.65331,1525.69312,701.12537,-228.25314,1483.59314,799.66534,-162.72412,1497.84058
122,1.008,599.79358,-149.78737,1525.8457,700.93646,-228.29852,1483.60107,799.66534,-162.72412,1497.84058
123,1.017,599.79358,-149.78737,1525.8457,700.98218,-228.48833,1483.81323,799.47021,-163.35223,1498.19446
124,1.025,599.79358,-149.78737,1525.8457,700.98218,-228.48833,1483.81323,799.35028,-162.74342,1497.6123
125,1.033,599.30182,-149.12811,1525.80298,700.60876,-228.5316,1483.91187,799.66534,-162.72412,1497.84058
126,1.042,599.09167,-149.1122,1525.79907,700.68817,-228.62386,1483.88647,799.66534,-162.72412,1497.84058
127,1.05,598.91742,-148.77335,1525.84338,700.55505,-228.79369,1484.20972,799.35028,-162.74342,1497.6123
128,1.058,598.81104,-148.9073,1525.99609,700.48999,-228.26088,1484.3927,799.1319,-163.52884,1497.94043
129,1.067,598.81104,-148.9073,1525.99609,700.48999,-228.26088,1484.3927,799.00092,-162.88106,1497.70105
130,1.075,598.81104,-148.9073,1525.99609,700.50513,-228.1602,1484.51526,799.00092,-162.88106,1497.70105
131,1.083,598.81104,-148.9073,1525.99609,700.50513,-228.1602,1484.51526,799.00092,-162.88106,1497.70105
132,1.092,598.81104,-148.9073,1525.99609,700.57025,-228.69305,1484.33215,799.00269,-162.2076,1498.45862
133,1.1,598.81104,-148.9073,1525.99609,700.57025,-228.69305,1484.33215,798.66388,-162.60927,1497.95215
134,1.108,598.64514,-148.98953,1525.94324,700.50513,-228.1602,1484.51526,798.4303,-162.43794,1498.08813
135,1.117,598.64514,-148.98953,1525.94324,700.34979,-228.15604,1484.57446,798.4303,-162.43794,1498.08813
136,1.125,598.64514,-148.98953,1525.94324,700.34979,-228.15604,1484.57446,798.4303,-162.43794,1498.08813
137,1.133,598.65546,-148.83922,1526.11804,700.34979,-228.15604,1484.57446,798.57452,-162.62149,1498.2489
138,1.142,598.2464,-149.26759,1526.07227,700.34979,-228.15604,1484.57446,798.4303,-162.43794,1498.08813
139,1.15,598.51678,-149.05688,1526.24866,700.34979,-228.15604,1484.57446,798.30096,-162.60414,1498.2323
140,1.158,598.1637,-149.11928,1525.91614,700.34979,-228.15604,1484.57446,798.4303,-162.43794,1498.08813
141,1.167,598.03381,-149.07161,1526.00732,700.1889,-228.24982,1484.51147,798.30096,-162.60414,1498.2323
142,1.175,598.03381,-149.07161,1526.00732,700.1889,-228.24982,1484.51147,798.22913,-162.71515,1498.47412
143,1.183,597.44794,-149.1026,1525.79724,700.1889,-228.24982,1484.51147,797.8241,-162.24937,1498.62708
144,1.192,597.44794,-149.1026,1525.79724,700.32196,-228.08002,1484.18811,797.87921,-162.58325,1498.56689
145,1.2,597.44794,-149.1026,1525.79724,700.32196,-228.08002,1484.18811,797.89594,-162.13838,1498.38525
146,1.208,597.44794,-149.1026,1525.79724,700.32196,-228.08002,1484.18811,797.87921,-162.58325,1498.56689
147,1.217,597.44794,-149.1026,1525.79724,699.85864,-227.87622,1484.23242,797.87921,-162.58325,1498.56689
148,1.225,597.24841,-149.13466,1525.81335,699.41779,-228.17303,1484.56396,797.20337,-162.71013,1498.3114
149,1.233,597.09399,-149.08415,1525.76843,699.37195,-227.98337,1484.35181,797.20337,-162.71013,1498.3114
150,1.242,597.09399,-149.08415,1525.76843,699.37195,-227.98337,1484.35181,797.20337,-162.71013,1498.3114
151,1.25,597.09729,-149.30234,1525.78125,699.37195,-227.98337,1484.35181,797.20337,-162.71013,1498.3114
152,1.258,596.52771,-149.10291,1525.97424,699.14917,-228.17905,1484.18103,797.14838,-162.37616,1498.37158
153,1.267,596.39514,-148.84856,1526.00073,699.43134,-228.01747,1483.76587,797.20337,-162.71013,1498.3114
154,1.275,596.39789,-149.12436,1526.01208,699.43134,-228.01747,1483.76587,797.20337,-162.71013,1498.3114
155,1.283,596.39789,-149.12436,1526.01208,699.43134,-228.01747,1483.76587,797.27527,-162.59915,1498.06946
156,1.292,596.10754,-149.19798,1525.83032,699.43134,-228.01747,1483.76587,797.20337,-162.71013,1498.3114
157,1.3,596.10754,-149.19798,1525.83032,698.8739,-227.86775,1483.94861,797.20337,-162.71013,1498.3114
158,1.308,596.10754,-149.19798,1525.83032,698.8739,-227.86775,1483.94861,797.20337,-162.71013,1498.3114
159,1.317,596.06934,-149.33701,1525.77869,699.43134,-228.01747,1483.76587,797.08136,-162.74757,1497.92334
160,1.325,596.10754,-149.19798,1525.83032,699.28448,-228.02299,1483.81006,797.08136,-162.74757,1497.92334
161,1.333,596.06934,-149.33701,1525.77869,699.28448,-228.02299,1483.81006,796.95453,-162.52463,1498.22534
162,1.342,596.06934,-149.33701,1525.77869,699.00238,-228.18451,1484.2251,796.69318,-162.79596,1497.85376
163,1.35,596.06934,-149.33701,1525.77869,698.38989,-227.97282,1484.36133,796.45477,-162.27591,1497.75073
164,1.358,596.06934,-149.33701,1525.77869,698.72711,-227.8732,1483.99268,796.50983,-162.60986,1497.69055
165,1.367,596.06934,-149.33701,1525.77869,698.72711,-227.8732,1483.99268,796.45477,-162.27591,1497.75073
166,1.375,596.06934,-149.33701,1525.77869,698.72711,-227.8732,1483.99268,796.50983,-162.60986,1497.69055
167,1.383,596.06934,-149.33701,1525.77869,698.16241,-227.80023,1483.78015,796.50983,-162.60986,1497.69055
168,1.392,596.06934,-149.33701,1525.77869,697.76416,-227.92561,1484.10181,796.30457,-162.62527,1497.29028
169,1.4,596.06934,-149.33701,1525.77869,698.03033,-227.68663,1484.22107,796.30457,-162.62527,1497.29028
170,1.408,595.87811,-149.28569,1525.83997,698.19666,-228.19991,1484.37073,796.50983,-162.60986,1497.69055
171,1.417,595.98853,-149.12167,1525.70972,697.53296,-228.01619,1484.10327,796.30457,-162.62527,1497.29028
172,1.425,595.72839,-149.11807,1525.94568,697.64838,-227.95918,1484.23853,796.30457,-162.62527,1497.29028
173,1.433,595.62878,-149.4061,1526.0813,697.52588,-228.14166,1484.31311,795.63013,-162.30301,1497.53967
174,1.442,595.62878,-149.4061,1526.0813,697.19403,-228.45877,1484.05457,795.63013,-162.30301,1497.53967
175,1.45,595.62878,-149.4061,1526.0813,697.08728,-228.15578,1484.22351,795.39563,-162.28815,1497.52539
176,1.458,595.58075,-149.48753,1526.19275,697.17548,-228.39668,1483.90552,795.52899,-162.38379,1498.1676
177,1.467,595.42969,-149.43111,1526.09924,697.08728,-228.15578,1484.22351,795.32379,-162.3992,1497.76746
178,1.475,595.42969,-149.43111,1526.09924,697.17548,-228.39668,1483.90552,795.26886,-162.06529,1497.82764
179,1.483,595.38171,-149.51254,1526.21069,697.08728,-228.15578,1484.22351,794.98077,-162.72864,1497.65088
180,1.492,595.38171,-149.51254,1526.21069,696.82678,-228.44232,1484.28748,795.10345,-163.36371,1498.27405
181,1.5,595.38171,-149.51254,1526.21069,696.82678,-228.44232,1484.28748,795.10345,-163.36371,1498.27405
182,1.508,595.0636,-149.72398,1525.9718,696.67297,-228.58943,1484.38867,794.8689,-163.34851,1498.25989
183,1.517,595.09149,-149.58841,1526.04944,696.67297,-228.58943,1484.38867,794.8689,-163.34851,1498.25989
184,1.525,595.0636,-149.72398,1525.9718,696.81049,-228.33548,1484.63477,794.8689,-163.34851,1498.25989
185,1.533,595.0636,-149.72398,1525.9718,696.67297,-228.58943,1484.38867,794.8689,-163.34851,1498.25989
186,1.542,595.0636,-149.72398,1525.9718,696.67297,-228.58943,1484.38867,794.8689,-163.34851,1498.25989
187,1.55,594.93237,-149.68694,1526.05835,696.81049,-228.33548,1484.63477,794.46704,-163.34171,1498.53796
188,1.558,594.59778,-149.83659,1525.93933,696.69354,-228.31766,1484.69812,794.46704,-163.34171,1498.53796
189,1.567,594.41766,-149.86838,1525.995,696.69354,-228.31766,1484.69812,794.46704,-163.34171,1498.53796
190,1.575,594.41766,-149.86838,1525.995,696.55603,-228.57161,1484.45203,794.47998,-163.75157,1498.65979
