Frame#,Time,L.Forearm.x,L.Forearm.y,L.Forearm.z,L.Ulna.x,L.Ulna.y,L.Ulna.z,L.Radius.x,L.Radius.y,L.Radius.z
1,0,269.23511,354.04468,989.59338,223.16588,359.07474,897.76251,311.36447,371.25354,859.711
2,0.008,269.23511,354.04468,989.59338,223.16588,359.07474,897.76251,312.30905,371.03098,859.68427
3,0.017,269.16965,354.14676,989.49744,222.86754,358.79959,897.84619,312.02057,371.25562,859.75403
4,0.025,269.16965,354.14676,989.49744,222.34448,358.57281,897.68207,312.00659,371.20602,859.41846
5,0.033,268.91055,354.15286,989.2865,221.61334,358.40085,897.86023,311.23889,370.96661,859.70349
6,0.042,268.71893,354.22852,989.23615,221.85237,359.07794,897.87561,310.62112,370.7356,858.8822
7,0.05,268.71893,354.22852,989.23615,221.87708,359.44824,897.67035,310.62112,370.7356,858.8822
8,0.058,268.56985,353.93741,989.14886,221.1136,358.91528,897.75049,310.95697,371.22528,859.50372
9,0.067,268.56985,353.93741,989.14886,221.1136,358.91528,897.75049,310.95697,371.22528,859.50372
10,0.075,268.56985,353.93741,989.14886,221.17154,359.17535,897.59991,310.95697,371.22528,859.50372
11,0.083,267.49097,354.49411,989.16876,221.36356,359.92319,897.47192,310.9433,370.43311,858.81348
12,0.092,268.52463,353.51846,989.23865,221.17154,359.17535,897.59991,311.24554,371.00067,859.4339
13,0.1,267.20163,354.1976,988.76843,221.1136,358.91528,897.75049,311.24554,371.00067,859.4339
14,0.108,268.29495,353.56366,989.2254,221.61334,358.40085,897.86023,311.24554,371.00067,859.4339
15,0.117,267.20163,354.1976,988.76843,221.61334,358.40085,897.86023,311.66443,370.32715,859.59155
16,0.125,267.49097,354.49411,989.16876,221.61621,358.38049,897.88013,311.16885,369.84131,859.28986
17,0.133,268.49667,353.19876,988.90454,221.50708,358.06738,897.01135,311.10184,369.54355,859.87054
18,0.142,268.49667,353.19876,988.90454,221.50708,358.06738,897.01135,311.10184,369.54355,859.87054
19,0.15,268.49667,353.19876,988.90454,222.04474,358.2381,897.00543,311.16617,369.69916,859.76154
20,0.158,268.49667,353.19876,988.90454,222.04474,358.2381,897.00543,311.10184,369.54355,859.87054
21,0.167,268.07175,352.72528,988.80493,222.04474,358.2381,897.00543,311.41879,369.46405,859.53485
22,0.175,267.63995,352.56232,988.87671,222.04474,358.2381,897.00543,311.41879,369.46405,859.53485
23,0.183,268.05411,352.63147,988.53802,221.88057,357.8374,896.95044,310.76135,369.32068,858.71027
24,0.192,268.05411,352.63147,988.53802,222.04474,358.2381,897.00543,311.34366,369.19571,859.31921
25,0.2,268.05411,352.63147,988.53802,222.04474,358.2381,897.00543,311.51431,368.82968,859.34283
26,0.208,268.05411,352.63147,988.53802,222.04474,358.2381,897.00543,311.51431,368.82968,859.34283
27,0.217,268.24591,352.55585,988.58844,222.04474,358.2381,897.00543,311.51431,368.82968,859.34283
28,0.225,268.24591,352.55585,988.58844,222.34338,358.51361,896.92188,311.51431,368.82968,859.34283
29,0.233,268.28363,352.33966,988.48114,222.40059,358.52393,897.03027,311.082,367.78387,857.8985
30,0.242,268.28363,352.33966,988.48114,222.40059,358.52393,897.03027,311.082,367.78387,857.8985
31,0.25,268.26602,352.24615,988.21417,222.34338,358.51361,896.92188,312.03387,367.4874,858.78839
32,0.258,268.28363,352.33966,988.48114,222.34338,358.51361,896.92188,311.85495,367.36343,858.77155
33,0.267,268.47675,352.19003,988.24182,222.34338,358.51361,896.92188,312.15967,367.41495,858.31757
34,0.275,268.47675,352.19003,988.24182,222.34338,358.51361,896.92188,312.08453,367.14651,858.10187
35,0.283,268.3277,351.8989,988.15448,222.14577,358.01865,896.86432,311.58044,366.62402,857.27258
36,0.292,268.3277,351.8989,988.15448,222.42348,358.13733,897.09076,311.65912,366.42834,857.24207
37,0.3,268.3812,351.25949,987.97382,222.67709,358.71918,897.20154,311.66974,366.89258,856.07983
38,0.308,268.69974,351.10559,987.83997,222.57562,357.97968,896.90137,311.66974,366.89258,856.07983
39,0.317,268.69974,351.10559,987.83997,222.79808,356.29001,896.99628,311.76031,366.25922,856.15955
40,0.325,268.69974,351.10559,987.83997,223.15016,356.51468,896.96301,312.1152,366.20657,856.01849
41,0.333,268.69974,351.10559,987.83997,223.60353,356.75824,897.24152,311.97153,366.18835,856.05383
42,0.342,268.69974,351.10559,987.83997,223.60353,356.75824,897.24152,312.51184,366.19333,856.19684
43,0.35,268.69974,351.10559,987.83997,223.60353,356.75824,897.24152,312.25751,365.9729,856.03729
44,0.358,268.93015,350.39688,987.86151,223.86719,356.74261,896.95508,312.44226,366.07349,856.18903
45,0.367,268.93015,350.39688,987.86151,223.72679,355.90033,896.59369,312.47006,365.59882,855.88611
46,0.375,269.58749,349.85931,987.94855,223.72679,355.90033,896.59369,312.47006,365.59882,855.88611
47,0.383,269.76813,349.71109,987.70789,223.72679,355.90033,896.59369,312.47006,365.59882,855.88611
48,0.392,269.76813,349.71109,987.70789,224.05328,356.06549,896.59088,312.47006,365.59882,855.88611
49,0.4,270.19046,349.58038,987.72656,224.05328,356.06549,896.59088,312.47006,365.59882,855.88611
50,0.408,270.19946,349.26062,987.55499,224.05328,356.06549,896.59088,312.47006,365.59882,855.88611
51,0.417,270.19946,349.26062,987.55499,224.05328,356.06549,896.59088,312.60818,365.58142,855.65222
52,0.425,270.6553,348.94547,987.41693,224.05328,356.06549,896.59088,312.73822,365.40317,855.5437
53,0.433,270.6553,348.94547,987.41693,223.71954,355.8602,896.31104,312.73822,365.40317,855.5437
54,0.442,270.52927,348.88367,987.14893,223.46486,354.31409,896.01013,312.71744,364.73071,855.51776
55,0.45,270.39706,348.51776,987.00415,223.46486,354.31409,896.01013,312.71744,364.73071,855.51776
56,0.458,270.39706,348.51776,987.00415,223.64398,353.63434,895.88446,312.84103,364.72122,855.60443
57,0.467,270.39706,348.51776,987.00415,223.64398,353.63434,895.88446,312.62479,364.81577,855.16937
58,0.475,270.39706,348.51776,987.00415,223.64398,353.63434,895.88446,312.55142,364.73157,855.3457
59,0.483,270.18381,348.24039,987.03143,223.67908,353.50659,895.48657,312.2973,364.51108,855.18622
60,0.492,270.18381,348.24039,987.03143,223.67908,353.50659,895.48657,312.53571,364.15808,854.8078
61,0.5,270.18381,348.24039,987.03143,223.67908,353.50659,895.48657,312.5332,363.89987,854.08246
62,0.508,270.18381,348.24039,987.03143,223.67908,353.50659,895.48657,312.41,363.87906,853.85437
63,0.517,270.18381,348.24039,987.03143,223.67908,353.50659,895.48657,312.3912,363.76917,853.97455
64,0.525,270.18381,348.24039,987.03143,223.67908,353.50659,895.48657,313.17398,363.97586,855.10333
65,0.533,270.28793,348.17102,986.90863,223.19287,353.5159,895.21466,312.49356,363.54416,855.1355
66,0.542,270.40485,348.09521,986.83386,222.34248,353.12506,895.0528,311.96777,363.27307,855.25873
67,0.55,270.50897,348.02579,986.71106,222.34248,353.12506,895.0528,311.71707,362.84076,855.06934
68,0.558,270.50897,348.02579,986.71106,222.34248,353.12506,895.0528,311.71707,362.84076,855.06934
69,0.567,270.47427,347.81766,986.53827,222.34248,353.12506,895.0528,312.09839,362.50745,855.02972
70,0.575,270.47427,347.81766,986.53827,222.34248,353.12506,895.0528,312.09839,362.50745,855.02972
71,0.583,270.47427,347.81766,986.53827,222.34248,353.12506,895.0528,312.09839,362.50745,855.02972
72,0.592,270.47427,347.81766,986.53827,222.34248,353.12506,895.0528,312.09839,362.50745,855.02972
73,0.6,270.79312,347.6644,986.4043,222.49768,353.82849,894.88226,312.09839,362.50745,855.02972
74,0.608,270.79312,347.6644,986.4043,222.34248,353.12506,895.0528,312.26486,362.1051,854.9964
75,0.617,270.79312,347.6644,986.4043,222.34248,353.12506,895.0528,312.36649,361.91037,854.85889
76,0.625,270.79312,347.6644,986.4043,222.34248,353.12506,895.0528,312.26486,362.1051,854.9964
77,0.633,270.79312,347.6644,986.4043,222.34248,353.12506,895.0528,312.36649,361.91037,854.85889
78,0.642,270.79312,347.6644,986.4043,222.34248,353.12506,895.0528,312.36649,361.91037,854.85889
79,0.65,270.84091,347.74765,986.3114,222.34248,353.12506,895.0528,312.49316,361.96747,854.74554
80,0.658,270.84091,347.74765,986.3114,222.34248,353.12506,895.0528,312.49316,361.96747,854.74554
81,0.667,270.84091,347.74765,986.3114,222.66957,353.29077,895.05005,312.3125,362.37393,854.69379
82,0.675,270.93875,347.67999,986.36707,222.66957,353.29077,895.05005,312.41412,362.1792,854.55627
83,0.683,270.79312,347.6644,986.4043,222.62024,352.61786,894.45001,312.41412,362.1792,854.55627
84,0.692,271.00266,347.77161,986.26337,223.10205,352.71103,894.27423,312.49316,361.96747,854.74554
85,0.7,270.93875,347.67999,986.36707,223.10205,352.71103,894.27423,312.39151,362.16223,854.88306
86,0.708,270.93976,347.57428,986.47614,223.63753,353.37491,895.1463,312.49316,361.96747,854.74554
87,0.717,270.84091,347.74765,986.3114,223.63753,353.37491,895.1463,312.84036,361.86322,854.81915
88,0.725,270.79312,347.6644,986.4043,224.41197,353.68005,895.30817,312.73871,362.05795,854.9566
89,0.733,271.10974,347.58371,986.44177,223.92578,353.68958,895.03619,312.73871,362.05795,854.9566
90,0.742,270.79312,347.6644,986.4043,222.66957,353.29077,895.05005,311.89099,362.30966,853.57721
91,0.75,270.93976,347.57428,986.47614,222.66957,353.29077,895.05005,311.89099,362.30966,853.57721
92,0.758,270.17621,348.05896,986.19476,223.15579,353.28162,895.32202,311.70398,362.38156,853.52307
93,0.767,270.17621,348.05896,986.19476,222.34248,353.12506,895.0528,311.66553,362.34848,853.84308
94,0.775,270.05676,348.13098,986.13226,222.34248,353.12506,895.0528,311.66553,362.34848,853.84308
95,0.783,270.17621,348.05896,986.19476,222.34248,353.12506,895.0528,311.47855,362.63425,853.86731
96,0.792,269.78046,348.23132,986.25714,222.34248,353.12506,895.0528,311.26804,362.64539,853.87939
97,0.8,269.78046,348.23132,986.25714,222.34248,353.12506,895.0528,311.14297,362.73706,853.79456
98,0.808,269.78046,348.23132,986.25714,222.34248,353.12506,895.0528,311.12411,362.62711,853.91479
99,0.817,269.58676,348.3295,986.43634,222.03468,353.0419,895.45081,310.93991,363.29825,853.85925
100,0.825,269.58676,348.3295,986.43634,222.03468,353.0419,895.45081,310.86661,363.21405,854.03564
101,0.833,269.58676,348.3295,986.43634,222.02196,353.54907,895.61304,310.43915,363.31,854.02899
102,0.842,269.24173,348.12054,986.39838,222.02196,353.54907,895.61304,310.43018,362.99384,854.21155
103,0.85,269.24173,348.12054,986.39838,222.02196,353.54907,895.61304,310.06992,363.03201,854.00592
104,0.858,269.24173,348.12054,986.39838,221.82176,353.57947,895.52911,309.9584,363.00732,853.77081
105,0.867,268.72687,348.54449,986.30377,221.52293,353.30414,895.61279,310.69629,363.16437,855.2749
106,0.875,268.72687,348.54449,986.30377,221.46744,353.6875,895.53644,310.23886,362.17517,854.27924
107,0.883,268.36475,348.62451,986.29565,221.2953,352.86334,895.38452,311.08585,362.89935,855.12891
108,0.892,267.9281,348.11243,986.15857,221.47812,353.16257,895.24811,310.45071,362.64951,855.88672
109,0.9,267.9281,348.11243,986.15857,221.30788,352.35605,895.22229,310.45071,362.64951,855.88672
110,0.908,267.50415,348.00003,986.02936,221.56544,353.32095,895.07788,309.3858,360.91721,852.94702
111,0.917,267.47186,348.08936,985.94385,221.71805,353.51639,894.95197,309.4263,360.69507,852.83691
112,0.925,267.21738,348.05084,985.62341,221.35339,353.22296,894.5976,309.4263,360.69507,852.83691
113,0.933,267.82468,347.58206,985.60693,221.20078,353.0275,894.72357,309.4263,360.69507,852.83691
114,0.942,267.56656,347.29099,985.22021,220.78391,351.18359,894.1889,310.05371,361.41608,853.46454
115,0.95,267.91849,346.5195,985.35944,220.78391,351.18359,894.1889,310.05371,361.41608,853.46454
116,0.958,267.60425,346.15277,985.33307,220.73914,351.04211,893.82391,310.12021,360.90277,853.67725
117,0.967,267.44241,346.11093,985.39935,220.73914,351.04211,893.82391,310.07437,360.43866,853.43964
118,0.975,267.44241,346.11093,985.39935,220.73914,351.04211,893.82391,310.07437,360.43866,853.43964
119,0.983,267.44241,346.11093,985.39935,220.73914,351.04211,893.82391,310.07437,360.43866,853.43964
120,0.992,267.44241,346.11093,985.39935,220.73914,351.04211,893.82391,310.07437,360.43866,853.43964
121,1,267.44241,346.11093,985.39935,220.73914,351.04211,893.82391,310.17654,359.97177,853.49548
122,1.008,267.44241,346.11093,985.39935,220.73914,351.04211,893.82391,310.17654,359.97177,853.49548
123,1.017,267.44241,346.11093,985.39935,220.73914,351.04211,893.82391,310.17654,359.97177,853.49548
124,1.025,267.33826,346.18027,985.52228,220.35384,349.79715,893.90503,309.20065,359.5173,852.37292
125,1.033,267.25217,345.97208,985.54181,220.09135,349.58902,894.01489,308.83411,359.17426,852.5553
126,1.042,267.44241,346.11093,985.39935,220.09135,349.58902,894.01489,308.83411,359.17426,852.5553
127,1.05,267.18332,345.61331,985.55145,220.44011,350.72501,893.93506,309.42175,359.20581,853.44373
128,1.058,266.02335,346.33511,985.61383,220.31615,350.40088,893.90845,308.83411,359.17426,852.5553
129,1.067,265.90323,346.24051,985.71472,220.09135,349.58902,894.01489,308.83966,358.88422,852.34912
130,1.075,265.90323,346.24051,985.71472,219.69855,349.45895,893.86462,308.83411,359.17426,852.5553
131,1.083,265.78839,345.69443,985.84454,219.99564,350.51306,893.73682,309.29138,359.3974,852.9295
132,1.092,265.55084,346.11377,985.50903,219.99564,350.51306,893.73682,309.29138,359.3974,852.9295
133,1.1,265.26688,345.75677,985.57324,219.99564,350.51306,893.73682,309.39359,358.93066,852.98529
134,1.108,265.2478,345.80771,985.33002,219.66132,350.30844,893.45605,309.39359,358.93066,852.98529
135,1.117,265.2478,345.80771,985.33002,219.12167,350.1373,893.46191,309.39359,358.93066,852.98529
136,1.125,265.2478,345.80771,985.33002,218.91109,349.22174,893.66907,308.77621,358.81763,852.0354
137,1.133,266.09604,344.88135,985.37964,218.91109,349.22174,893.66907,308.77621,358.81763,852.0354
138,1.142,265.87674,344.89679,985.39539,219.12167,350.1373,893.46191,309.05344,358.89493,853.12238
139,1.15,265.72424,344.98035,985.69775,219.12167,350.1373,893.46191,309.05344,358.89493,853.12238
140,1.158,265.7063,344.88742,985.42993,218.91109,349.22174,893.66907,308.14035,358.80923,851.92383
141,1.167,265.68475,345.02222,985.42615,219.12167,350.1373,893.46191,308.78406,358.91183,852.91089
142,1.175,265.72424,344.98035,985.69775,218.91109,349.22174,893.66907,308.01779,358.74255,851.99939
143,1.183,265.57736,345.07047,985.62598,218.91109,349.22174,893.66907,307.6138,359.38968,852.13306
144,1.192,265.53397,344.84134,985.84021,218.91109,349.22174,893.66907,307.41742,359.44345,852.10358
145,1.2,265.00006,345.09705,985.87585,219.12167,350.1373,893.46191,307.84067,359.38229,853.39301
146,1.208,265.00006,345.09705,985.87585,218.91139,350.18893,893.80554,307.71661,359.40735,853.37726
147,1.217,264.96494,345.52505,985.98914,218.11424,349.08795,893.96375,307.18945,359.44165,852.42871
148,1.225,264.39868,345.23709,985.72443,218.11424,349.08795,893.96375,306.88699,359.5304,852.37366
149,1.233,264.36362,345.66507,985.83771,218.11424,349.08795,893.96375,306.80753,359.71487,852.52765
150,1.242,264.34418,344.98007,986.05084,218.317,349.98154,893.75513,307.672,359.9588,855.43085
151,1.25,264.21783,345.61926,985.90631,218.03415,349.6489,893.88129,307.672,359.9588,855.43085
152,1.258,262.87567,346.31458,985.6474,218.317,349.98154,893.75513,307.672,359.9588,855.43085
153,1.267,262.15387,346.12433,985.56409,218.03415,349.6489,893.88129,307.672,359.9588,855.43085
154,1.275,261.64157,345.97653,985.81024,217.86859,348.87006,894.08569,306.62534,360.29034,854.38989
155,1.283,262.19226,346.16202,985.73254,218.03415,349.6489,893.88129,307.672,359.9588,855.43085
156,1.292,262.01404,345.90677,985.87598,217.62973,348.80386,894.08246,307.672,359.9588,855.43085
157,1.3,262.02383,345.97556,986.11255,217.62973,348.80386,894.08246,306.72455,359.96585,855.10406
158,1.308,261.79108,345.90439,985.81927,217.77666,349.55014,893.86298,307.18671,359.85696,855.69135
159,1.317,261.79108,345.90439,985.81927,217.24275,349.25143,893.88678,306.77866,360.25446,855.29089
160,1.325,261.62042,346.082,985.95813,217.06053,348.81174,893.82361,306.06348,360.46036,854.57068
161,1.333,261.79108,345.90439,985.81927,217.24275,349.25143,893.88678,306.46506,359.74478,855.48431
162,1.342,261.93167,345.65793,985.71991,216.84767,349.19708,894.09436,306.66656,359.66345,855.33142
163,1.35,261.82883,345.60681,985.48517,216.66104,348.75586,894.02356,305.0929,360.19122,854.24329
164,1.358,261.82883,345.60681,985.48517,216.56436,348.85486,894.22681,305.7363,359.88861,855.30115
165,1.367,262.09631,345.44376,985.73444,216.41573,348.5318,894.15094,305.18564,359.90771,854.33606
166,1.375,261.98361,345.3237,985.26306,216.02547,347.70804,894.8703,305.45941,359.82187,854.84161
167,1.383,261.98361,345.3237,985.26306,215.98041,347.78064,894.72968,304.62314,359.94055,853.94208
168,1.392,262.21469,345.25534,985.04449,216.28485,348.64743,894.27277,305.35315,359.69125,854.76233
169,1.4,262.2049,345.18668,984.8078,216.16612,348.74976,894.16821,305.45486,359.49646,854.62469
170,1.408,262.2049,345.18668,984.8078,216.16612,348.74976,894.16821,305.36584,359.08942,854.12946
171,1.417,262.2049,345.18668,984.8078,215.3857,348.33353,893.68842,305.36948,358.91385,853.76593
172,1.425,262.2049,345.18668,984.8078,215.3857,348.33353,893.68842,305.36948,358.91385,853.76593
173,1.433,262.16748,345.00699,984.66003,215.22404,348.18188,893.12744,305.36948,358.91385,853.76593
174,1.442,261.89917,345.33768,984.20868,215.22404,348.18188,893.12744,305.36948,358.91385,853.76593
175,1.45,262.04678,344.22955,984.14856,215.09135,348.25189,893.03943,305.36948,358.91385,853.76593
176,1.458,262.41785,344.58768,983.25995,215.09135,348.25189,893.03943,305.18933,359.15414,853.13123
177,1.467,262.7536,344.13782,983.10895,215.35681,348.2373,892.75177,305.18933,359.15414,853.13123
178,1.475,262.7536,344.13782,983.10895,215.35681,348.2373,892.75177,305.18933,359.15414,853.13123
179,1.483,262.87579,343.38718,983.06952,215.35681,348.2373,892.75177,304.89282,359.02164,852.85419
180,1.492,262.87579,343.38718,983.06952,215.35681,348.2373,892.75177,304.89282,359.02164,852.85419
181,1.5,262.87579,343.38718,983.06952,215.22369,347.88025,892.73059,305.1474,358.84653,853.06256
182,1.508,263.00073,343.25253,983.04395,215.35583,347.83603,892.79962,304.35248,358.6875,851.82813
183,1.517,263.20282,343.21796,983.20642,215.78546,348.41263,892.77454,305.22617,358.70901,852.83545
184,1.525,263.20282,343.21796,983.20642,215.62042,347.99747,892.72925,305.22617,358.70901,852.83545
185,1.533,264.24124,342.66907,983.15515,215.78546,348.41263,892.77454,305.18985,358.3587,852.90704
186,1.542,264.30753,342.37308,983.44397,216.76712,348.7496,893.45374,305.07074,358.28027,853.19269
187,1.55,264.30753,342.37308,983.44397,217.24275,349.25143,893.88678,305.18985,358.3587,852.90704
188,1.558,264.30753,342.37308,983.44397,216.84837,348.48431,893.62311,304.36081,358.23465,851.90234
189,1.567,264.70563,342.28067,983.651,216.87097,348.25427,893.82715,305.11716,358.41379,852.52301
190,1.575,264.70563,342.28067,983.651,217.25693,349.03262,894.034,306.09286,358.33606,853.60114
191,1.583,264.73676,342.55011,983.9408,216.90089,348.11267,893.95276,306.01404,358.47363,853.82819
192,1.592,265.3017,342.58795,984.06702,217.3131,348.33899,894.57239,306.01404,358.47363,853.82819
193,1.6,265.3017,342.58795,984.06702,217.77509,348.70959,894.47894,305.87024,358.88983,854.32867
194,1.608,265.53546,342.97855,984.12695,217.57472,348.42441,894.60065,306.26053,358.62469,854.18262
195,1.617,266.18555,343.10834,984.39777,217.57472,348.42441,894.60065,305.87024,358.88983,854.32867
196,1.625,266.3371,343.28122,984.854,218.68457,349.19476,895.03839,306.24091,358.84244,854.3125
197,1.633,266.47964,343.24841,984.87671,218.68457,349.19476,895.03839,306.58887,359.06488,854.32202
198,1.642,266.62637,343.33707,985.27911,218.96713,349.5271,894.91223,307.55338,358.68686,854.20898
199,1.65,266.92194,343.76883,985.5528,218.96713,349.5271,894.91223,308.29529,359.04303,853.93884
200,1.658,267.52493,343.98895,985.42236,218.96713,349.5271,894.91223,308.78812,359.69296,854.09473
201,1.667,267.52493,343.98895,985.42236,219.8625,349.73065,895.17908,310.04379,359.34521,854.49048
202,1.675,268.22162,344.05939,985.40723,219.8625,349.73065,895.17908,309.98602,359.59634,854.74365
