Frame#,Time,R.Forearm.x,R.Forearm.y,R.Forearm.z,R.Ulna.x,R.Ulna.y,R.Ulna.z,R.Radius.x,R.Radius.y,R.Radius.z
1,0,303.80301,-310.34293,993.18268,261.22888,-344.58374,919.06183,341.43878,-337.39615,863.46558
2,0.008,303.59509,-310.36163,993.35217,261.14435,-344.66202,918.91052,341.43878,-337.39615,863.46558
3,0.017,303.59509,-310.36163,993.35217,261.14435,-344.66202,918.91052,340.77493,-338.34967,863.52313
4,0.025,303.46179,-310.51785,993.39227,261.14435,-344.66202,918.91052,340.71423,-338.53952,863.45148
5,0.033,303.25229,-310.58813,993.40442,260.73221,-344.94064,918.95831,340.71423,-338.53952,863.45148
6,0.042,302.99695,-310.93759,993.2984,260.30548,-345.4332,918.94525,340.48672,-338.48624,863.28308
7,0.05,302.70154,-311.28607,993.39258,260.25159,-345.57022,918.84637,340.80118,-339.20514,863.45776
8,0.058,302.70154,-311.28607,993.39258,260.13715,-345.59653,918.84894,340.37695,-338.77213,863.35626
9,0.067,302.46375,-311.58582,993.27246,259.89435,-345.86749,918.76593,340.06061,-338.68408,863.41144
10,0.075,302.46375,-311.58582,993.27246,259.89435,-345.86749,918.76593,340.06061,-338.68408,863.41144
11,0.083,302.14694,-311.58502,993.25708,259.89435,-345.86749,918.76593,340.06061,-338.68408,863.41144
12,0.092,301.9375,-311.71069,993.21783,259.89435,-345.86749,918.76593,339.58145,-338.87061,863.54871
13,0.1,301.9375,-311.71069,993.21783,259.89435,-345.86749,918.76593,339.46478,-338.8208,863.21289
14,0.108,301.8786,-311.75528,993.12836,259.89435,-345.86749,918.76593,339.46478,-338.8208,863.21289
15,0.117,301.01401,-311.77228,992.9552,259.89435,-345.86749,918.76593,339.46478,-338.8208,863.21289
16,0.125,301.01401,-311.77228,992.9552,259.90985,-345.80533,918.55109,339.00394,-338.6626,862.79645
17,0.133,301.01401,-311.77228,992.9552,259.73172,-345.65775,918.38666,338.80994,-338.78027,862.65308
18,0.142,301.01401,-311.77228,992.9552,259.17526,-345.71771,918.07031,338.80994,-338.78027,862.65308
19,0.15,300.62354,-311.60336,992.70117,258.91653,-345.64597,917.89868,338.61606,-338.89807,862.5097
20,0.158,300.42206,-311.77469,992.54559,258.30698,-345.9122,917.88574,338.41205,-338.68069,862.45886
21,0.167,300.42206,-311.77469,992.54559,258.26251,-345.6615,917.64612,338.1853,-338.83035,862.28845
22,0.175,300.35071,-311.63736,991.99359,257.32559,-345.17755,917.42407,337.8717,-338.43433,861.86371
23,0.183,300.21658,-311.62839,991.89557,257.23898,-345.28232,917.35809,337.98184,-338.23502,861.69812
24,0.192,300.21658,-311.62839,991.89557,257.30084,-345.17365,917.3006,337.98184,-338.23502,861.69812
25,0.2,300.21658,-311.62839,991.89557,256.96143,-345.18484,917.35571,338.18704,-338.18317,861.77478
26,0.208,300.1319,-311.17377,991.88977,257.08047,-345.1889,917.16656,338.18704,-338.18317,861.77478
27,0.217,300.07904,-311.06268,991.84497,256.828,-345.26535,916.9151,338.18704,-338.18317,861.77478
28,0.225,300.07904,-311.06268,991.84497,256.59323,-345.09933,916.78558,338.06891,-338.19482,861.46906
29,0.233,300.07904,-311.06268,991.84497,256.59323,-345.09933,916.78558,336.62903,-337.72348,860.78174
30,0.242,299.73578,-311.0816,991.30908,256.66403,-345.07965,916.37518,336.64554,-337.87186,860.63055
31,0.25,299.97125,-310.12027,991.50305,256.28482,-344.87784,916.36865,336.64554,-337.87186,860.63055
32,0.258,299.48758,-310.81915,990.52502,256.48376,-345.04959,916.11768,336.50781,-336.84213,860.22369
33,0.267,299.48758,-310.81915,990.52502,256.57318,-345.24591,915.88208,336.66306,-336.78922,860.0697
34,0.275,299.21878,-310.90964,990.37854,256.57318,-345.24591,915.88208,336.57565,-336.7522,859.81744
35,0.283,298.99786,-311.04968,990.01819,256.37637,-344.95587,915.65253,336.57565,-336.7522,859.81744
36,0.292,299.01529,-311.10724,989.95142,256.39178,-344.89392,915.43768,336.55978,-336.36349,859.44946
37,0.3,298.99786,-311.04968,990.01819,256.63605,-344.90207,915.21027,336.55978,-336.36349,859.44946
38,0.308,298.99286,-311.14001,989.65961,256.51505,-344.78058,914.93915,336.55978,-336.36349,859.44946
39,0.317,298.85812,-311.25998,989.57312,256.6972,-344.81567,914.46143,336.55978,-336.36349,859.44946
40,0.325,298.82635,-311.21103,989.21338,256.8486,-344.62888,914.29449,336.72644,-336.25198,859.32715
41,0.333,298.82635,-311.21103,989.21338,256.71237,-344.38074,914.02319,337.3909,-336.02597,859.25171
42,0.342,299.06378,-311.11871,988.81854,256.71237,-344.38074,914.02319,337.3909,-336.02597,859.25171
43,0.35,299.06378,-311.11871,988.81854,256.6348,-344.39078,913.92798,337.3909,-336.02597,859.25171
44,0.358,298.64185,-311.13589,988.5686,256.67969,-344.16849,913.75385,337.3909,-336.02597,859.25171
45,0.367,298.64185,-311.13589,988.5686,256.44492,-344.00284,913.62427,336.85449,-336.06256,858.77277
46,0.375,298.42737,-311.24222,988.27039,256.36728,-344.01297,913.52911,336.22845,-335.10403,858.09735
47,0.383,298.42737,-311.24222,988.27039,256.36728,-344.01297,913.52911,335.9155,-334.70798,857.67224
48,0.392,298.37054,-310.87729,987.93982,256.04221,-343.84018,913.52356,335.9155,-334.70798,857.67224
49,0.4,298.78012,-310.96579,988.02637,256.31326,-343.82993,913.43976,335.9155,-334.70798,857.67224
50,0.408,298.72205,-310.87796,987.71814,256.43039,-343.95761,913.22308,335.71121,-334.85867,857.54956
51,0.417,298.86569,-310.07095,987.64923,256.37451,-343.72046,913.10217,335.45334,-334.54861,857.25568
52,0.425,298.86569,-310.07095,987.64923,256.02139,-343.51538,913.05078,335.24899,-334.69931,857.133
53,0.433,299.09033,-309.38391,987.33923,256.2742,-343.60907,912.92957,335.24899,-334.69931,857.133
54,0.442,299.32092,-309.58936,987.19958,255.99902,-343.6178,912.82935,335.22803,-334.50504,856.99426
55,0.45,299.32092,-309.58936,987.19958,255.99902,-343.6178,912.82935,335.22803,-334.50504,856.99426
56,0.458,299.32092,-309.58936,987.19958,256.73715,-343.22556,912.6637,335.22803,-334.50504,856.99426
57,0.467,299.41125,-309.83923,987.08734,256.72754,-343.19403,912.52606,335.30841,-334.90353,856.32159
58,0.475,299.12863,-309.82507,987.21198,255.98444,-343.52151,912.52216,335.22125,-334.86688,856.06909
59,0.483,299.62994,-309.66617,987.00226,255.75964,-343.27521,912.12762,335.22125,-334.86688,856.06909
60,0.492,299.49191,-309.0488,986.94647,255.37135,-343.10965,912.24652,335.22125,-334.86688,856.06909
61,0.5,299.45026,-308.86288,986.83026,255.93127,-343.44791,912.38171,334.96725,-334.93011,855.97491
62,0.508,299.73297,-308.87704,986.70557,256.06921,-343.5798,912.1427,334.96725,-334.93011,855.97491
63,0.517,299.51624,-309.12442,986.77155,256.02448,-343.82797,911.95337,334.90265,-335.05994,855.83368
64,0.525,299.73297,-308.87704,986.70557,255.63582,-343.27921,912.34076,334.90265,-335.05994,855.83368
65,0.533,299.51624,-309.12442,986.77155,255.31638,-343.46921,911.995,334.90265,-335.05994,855.83368
66,0.542,299.04129,-309.34598,986.90857,254.92148,-343.18231,912.16876,334.90265,-335.05994,855.83368
67,0.55,298.75339,-309.61725,987.00055,254.94617,-343.23206,911.8631,334.90265,-335.05994,855.83368
68,0.558,298.75339,-309.61725,987.00055,254.92148,-343.18231,912.16876,334.90265,-335.05994,855.83368
69,0.567,299.1134,-309.70178,987.02313,254.93692,-343.12073,911.95374,334.90265,-335.05994,855.83368
70,0.575,299.15506,-309.88776,987.13934,254.86113,-343.39481,912.01178,334.90265,-335.05994,855.83368
71,0.583,298.79507,-309.80322,987.1167,254.58626,-343.80545,912.00409,334.90265,-335.05994,855.83368
72,0.592,299.00684,-310.85828,986.88684,254.50128,-343.88342,911.85309,334.90265,-335.05994,855.83368
73,0.6,298.40924,-310.93079,987.10406,254.35147,-343.85352,912.03925,334.16891,-335.0842,855.72839
74,0.608,298.40924,-310.93079,987.10406,254.24677,-343.91653,911.87891,334.07816,-335.42358,855.45917
75,0.617,298.2648,-311.06824,987.1629,254.21733,-343.784,911.72968,333.75931,-335.20984,855.73218
76,0.625,298.2648,-311.06824,987.1629,254.24677,-343.91653,911.87891,333.93146,-335.5502,855.73749
77,0.633,297.77487,-311.0928,987.10272,254.26219,-343.85495,911.664,333.7804,-335.40417,855.87097
78,0.642,298.13007,-311.16785,987.1145,254.26219,-343.85495,911.664,333.73752,-335.74173,855.60754
79,0.65,297.99286,-311.19867,987.13818,254.24677,-343.91653,911.87891,333.61316,-335.55319,855.69836
80,0.658,298.13007,-311.16785,987.1145,254.26219,-343.85495,911.664,333.96991,-336.13083,855.5636
81,0.667,297.46466,-311.20663,987.11072,254.30209,-343.79733,911.57275,333.94226,-336.29129,855.30652
82,0.675,297.62772,-311.16629,987.08636,254.27759,-343.79352,911.44904,333.91165,-336.59985,855.07465
83,0.683,297.46466,-311.20663,987.11072,254.26219,-343.85495,911.664,333.91165,-336.59985,855.07465
84,0.692,297.98288,-311.24136,987.09808,254.26219,-343.85495,911.664,333.91165,-336.59985,855.07465
85,0.7,298.13538,-311.34564,987.12457,254.27759,-343.79352,911.44904,333.91165,-336.59985,855.07465
86,0.708,297.81979,-311.28174,987.1225,254.27759,-343.79352,911.44904,334.03818,-336.64661,854.87933
87,0.717,297.47641,-311.2543,986.71997,254.32249,-343.86447,911.38342,333.89575,-337.01782,854.76923
88,0.725,297.15692,-311.23508,986.0177,254.1869,-343.89828,911.28796,333.89575,-337.01782,854.76923
89,0.733,297.34531,-311.18048,985.99768,254.24525,-344.1907,910.9823,333.89575,-337.01782,854.76923
90,0.742,297.19363,-311.26154,985.92163,254.24525,-344.1907,910.9823,333.89575,-337.01782,854.76923
91,0.75,297.38202,-311.20694,985.90167,254.4463,-344.24527,910.8244,333.89575,-337.01782,854.76923
92,0.758,297.38202,-311.20694,985.90167,254.4463,-344.24527,910.8244,333.92639,-336.82062,854.51556
93,0.767,297.34048,-311.04572,985.79535,254.4463,-344.24527,910.8244,333.92639,-336.82062,854.51556
94,0.775,297.34048,-311.04572,985.79535,254.40804,-344.37924,910.78723,333.83905,-336.784,854.26294
95,0.783,297.1521,-311.10031,985.81537,254.40804,-344.37924,910.78723,333.83905,-336.784,854.26294
96,0.792,297.43173,-310.97888,985.55304,254.40804,-344.37924,910.78723,333.83905,-336.784,854.26294
97,0.8,297.24329,-311.03351,985.57306,254.45282,-344.42023,910.69373,333.83905,-336.784,854.26294
98,0.808,296.90372,-311.13998,985.66772,254.27231,-344.28397,910.56512,333.83905,-336.784,854.26294
99,0.817,296.95599,-311.22656,985.33356,254.27231,-344.28397,910.56512,333.83905,-336.784,854.26294
100,0.825,296.87939,-311.15567,985.32727,254.31696,-344.06113,910.39099,333.83905,-336.784,854.26294
101,0.833,296.78326,-311.20831,985.52167,254.31696,-344.06113,910.39099,333.83905,-336.784,854.26294
102,0.842,296.85544,-311.25812,985.23114,254.31696,-344.06113,910.39099,333.85983,-336.94049,854.11499
103,0.85,296.54919,-311.38696,984.87671,254.31696,-344.06113,910.39099,333.85983,-336.94049,854.11499
104,0.858,296.68369,-311.26697,984.9632,254.09538,-343.90469,910.18579,333.85983,-336.94049,854.11499
105,0.867,296.65631,-311.31317,984.7959,253.91301,-343.72189,909.9201,333.85983,-336.94049,854.11499
106,0.875,296.65631,-311.31317,984.7959,253.79344,-343.5593,909.93372,333.6752,-337.047,853.94458
107,0.883,296.44073,-311.18808,984.70862,253.79344,-343.5593,909.93372,333.6752,-337.047,853.94458
108,0.892,296.31699,-311.29294,984.77588,253.4054,-343.50073,909.37335,333.47122,-337.19797,853.82172
109,0.9,296.25095,-311.13287,983.77454,253.4054,-343.50073,909.37335,334.56107,-338.08569,853.69891
110,0.908,296.10776,-311.14697,983.55652,253.01889,-343.31775,909.4267,332.83649,-336.31949,853.44836
111,0.917,296.10776,-311.14697,983.55652,253.27156,-343.41132,909.30548,332.38959,-336.2337,853.4502
112,0.925,296.04303,-310.55258,983.55304,253.27156,-343.41132,909.30548,332.38959,-336.2337,853.4502
113,0.933,295.81552,-310.46884,983.28723,253.27156,-343.41132,909.30548,332.38959,-336.2337,853.4502
114,0.942,295.85843,-310.35397,983.22192,253.34322,-343.27197,909.22156,332.38959,-336.2337,853.4502
115,0.95,295.55176,-310.09418,983.05493,253.09055,-343.17841,909.34277,332.56503,-335.84839,853.16669
116,0.958,295.55176,-310.09418,983.05493,252.96707,-342.71774,909.2196,332.56503,-335.84839,853.16669
117,0.967,295.55176,-310.09418,983.05493,253.01848,-342.50861,908.53375,333.21793,-336.25159,852.44543
118,0.975,295.55176,-310.09418,983.05493,252.26003,-342.10641,908.52069,332.9053,-335.85556,852.01947
119,0.983,295.59998,-310.18082,982.93872,252.03116,-341.8772,908.18195,332.9053,-335.85556,852.01947
120,0.992,295.5639,-309.88193,983.03381,251.84807,-341.65137,908.18207,332.9053,-335.85556,852.01947
121,1,295.41748,-310.28503,982.90521,251.84807,-341.65137,908.18207,331.73975,-334.84103,852.03809
122,1.008,295.33298,-309.82959,982.89886,251.64336,-341.37738,907.69244,331.73975,-334.84103,852.03809
123,1.017,295.61368,-308.84171,982.99689,251.76474,-341.52737,907.44904,331.85675,-334.39322,851.56561
124,1.025,295.67755,-308.82355,983.05206,251.76474,-341.52737,907.44904,331.85675,-334.39322,851.56561
125,1.033,295.62241,-308.75327,983.01697,251.76474,-341.52737,907.44904,331.85675,-334.39322,851.56561
126,1.042,295.32996,-309.70212,982.64935,251.77989,-341.12473,907.15552,331.85675,-334.39322,851.56561
127,1.05,295.59619,-308.93961,982.36389,251.63713,-340.84003,907.09167,331.85675,-334.39322,851.56561
128,1.058,295.52322,-308.80728,982.39014,251.63713,-340.84003,907.09167,331.85675,-334.39322,851.56561
129,1.067,295.44006,-308.82147,982.08319,251.63713,-340.84003,907.09167,331.85675,-334.39322,851.56561
130,1.075,294.86142,-308.68832,982.05353,251.79135,-341.06888,906.91541,331.85675,-334.39322,851.56561
131,1.083,294.77466,-308.70673,981.95087,251.79135,-341.06888,906.91541,331.85675,-334.39322,851.56561
132,1.092,294.86142,-308.68832,982.05353,251.69269,-341.20432,906.86188,331.85675,-334.39322,851.56561
133,1.1,294.86142,-308.68832,982.05353,251.94547,-341.298,906.7406,332.02594,-334.34293,851.39478
134,1.108,294.77466,-308.70673,981.95087,252.04414,-341.16257,906.79407,332.02594,-334.34293,851.39478
135,1.117,294.77466,-308.70673,981.95087,252.04414,-341.16257,906.79407,331.85675,-334.39322,851.56561
136,1.125,294.86142,-308.68832,982.05353,251.79135,-341.06888,906.91541,331.85675,-334.39322,851.56561
137,1.133,294.8075,-308.58258,981.57715,251.61073,-340.9328,906.78668,331.85675,-334.39322,851.56561
138,1.142,294.98969,-308.52173,981.81274,251.8093,-340.99774,906.66443,332.02594,-334.34293,851.39478
139,1.15,294.68683,-308.63412,981.79346,251.8093,-340.99774,906.66443,332.47318,-334.4288,851.39294
140,1.158,294.68683,-308.63412,981.79346,251.61073,-340.9328,906.78668,331.85675,-334.39322,851.56561
141,1.167,294.73349,-308.58691,981.84875,251.61073,-340.9328,906.78668,331.85675,-334.39322,851.56561
142,1.175,294.73349,-308.58691,981.84875,251.61073,-340.9328,906.78668,332.47318,-334.4288,851.39294
143,1.183,294.77466,-308.70673,981.95087,252.04414,-341.16257,906.79407,332.30402,-334.47913,851.56378
144,1.192,295.44006,-308.82147,982.08319,252.04414,-341.16257,906.79407,332.30402,-334.47913,851.56378
145,1.2,295.0939,-308.86151,982.0545,252.04414,-341.16257,906.79407,332.47318,-334.4288,851.39294
146,1.208,295.0939,-308.86151,982.0545,252.20102,-341.24091,906.69965,332.47318,-334.4288,851.39294
147,1.217,295.0939,-308.86151,982.0545,252.22047,-341.13159,906.78229,332.64728,-334.31436,851.25439
148,1.225,295.04776,-309.71719,981.45673,252.37526,-341.03641,906.50159,332.47318,-334.4288,851.39294
149,1.233,295.04776,-309.71719,981.45673,252.36589,-341.00488,906.36371,332.64728,-334.31436,851.25439
150,1.242,295.48199,-309.9144,981.77319,252.70784,-341.24112,906.30084,332.64728,-334.31436,851.25439
151,1.25,295.48199,-309.9144,981.77319,253.04947,-341.51151,906.13245,332.64728,-334.31436,851.25439
152,1.258,295.36172,-309.88882,981.54456,253.04947,-341.51151,906.13245,333.42551,-334.56332,851.15039
153,1.267,295.62155,-309.98773,981.67902,253.65913,-341.85132,906.1156,333.42551,-334.56332,851.15039
154,1.275,295.6243,-310.06284,981.6004,253.65913,-341.85132,906.1156,333.42551,-334.56332,851.15039
155,1.283,295.90009,-310.00427,981.72906,253.70413,-341.92242,906.04993,333.42551,-334.56332,851.15039
156,1.292,295.93344,-310.46725,981.6908,253.82758,-342.38303,906.1734,333.42551,-334.56332,851.15039
157,1.3,296.22897,-310.2673,981.77698,253.9413,-342.34244,906.18213,333.42551,-334.56332,851.15039
158,1.308,296.22897,-310.2673,981.77698,254.04843,-342.69351,906.14087,334.01291,-334.62183,851.24829
159,1.317,296.34348,-310.11743,981.69098,254.04843,-342.69351,906.14087,334.71234,-334.2977,851.30975
160,1.325,296.31403,-310.19052,981.9165,254.47734,-342.6488,906.25439,334.91809,-334.15033,851.43628
161,1.333,296.4505,-310.06592,981.98975,254.60086,-342.2648,906.54822,334.91809,-334.15033,851.43628
162,1.342,296.65262,-309.98239,981.99408,254.5876,-342.04813,906.7171,335.19055,-334.10507,851.53436
163,1.35,296.65262,-309.98239,981.99408,254.73254,-342.04596,906.9502,335.19055,-334.10507,851.53436
164,1.358,296.67923,-309.88202,982.09076,254.68782,-342.2692,907.12445,335.23901,-334.13409,851.51062
165,1.367,296.9621,-310.16589,982.49579,255.09337,-342.74371,907.22406,335.55124,-334.52985,851.93634
166,1.375,296.9621,-310.16589,982.49579,255.1476,-342.92703,907.3136,335.55124,-334.52985,851.93634
167,1.383,296.9621,-310.16589,982.49579,255.1476,-342.92703,907.3136,335.86252,-334.48795,852.01483
168,1.392,296.9621,-310.16589,982.49579,255.1476,-342.92703,907.3136,335.92331,-334.29788,852.08667
169,1.4,296.9621,-310.16589,982.49579,255.1476,-342.92703,907.3136,335.92331,-334.29788,852.08667
170,1.408,297.0784,-310.64117,982.88916,255.1476,-342.92703,907.3136,335.86252,-334.48795,852.01483
171,1.417,297.0784,-310.64117,982.88916,255.1476,-342.92703,907.3136,336.11966,-334.85385,852.25671
172,1.425,297.0784,-310.64117,982.88916,255.20366,-343.1644,907.43475,336.19748,-335.05347,852.6969
173,1.433,297.58795,-310.69461,982.86078,255.63812,-343.37219,907.51672,336.56924,-336.10345,853.13843
174,1.442,298.29102,-311.37784,982.7533,256.04904,-343.60986,907.45483,336.56924,-336.10345,853.13843
175,1.45,298.29102,-311.37784,982.7533,256.37399,-343.78253,907.46039,336.24277,-336.47018,853.28619
176,1.458,298.29102,-311.37784,982.7533,256.37399,-343.78253,907.46039,336.24277,-336.47018,853.28619
177,1.467,298.29102,-311.37784,982.7533,256.39169,-344.02255,907.40222,336.24277,-336.47018,853.28619
178,1.475,298.29129,-311.53104,982.6377,256.62631,-344.18756,907.5318,336.41882,-336.65567,853.08075
179,1.483,298.29129,-311.53104,982.6377,256.80423,-344.33405,907.69629,336.41882,-336.65567,853.08075
180,1.492,298.46378,-311.52206,982.90576,256.52365,-344.24323,907.50867,336.41827,-337.43045,853.08234
181,1.5,298.46378,-311.52206,982.90576,256.78632,-344.34311,907.80908,336.07553,-337.35641,853.40997
182,1.508,298.46378,-311.52206,982.90576,256.69843,-344.40393,908.12933,335.98569,-337.7933,853.52411
183,1.517,298.53278,-311.57306,982.96472,256.67151,-344.44852,908.13763,335.73193,-337.85687,853.42999
184,1.525,298.42368,-311.84879,983.1767,256.18259,-344.38898,908.44653,335.54745,-337.96338,853.2597
185,1.533,298.35025,-311.97302,983.30243,255.99005,-344.39468,908.77802,335.3714,-337.77795,853.46515
186,1.542,298.35025,-311.97302,983.30243,255.48778,-344.45364,908.98633,334.95685,-338.2529,853.23376
187,1.55,298.53998,-312.05975,983.4408,255.37973,-344.5304,908.94751,335.1329,-338.43829,853.02826
188,1.558,298.36841,-312.16998,983.61047,255.37973,-344.5304,908.94751,334.63956,-338.16473,853.2887
189,1.567,298.40619,-312.16711,983.73773,255.02695,-344.5896,909.38702,334.43552,-338.39447,853.32141
190,1.575,298.27219,-312.315,983.81061,255.0968,-344.5675,908.97644,333.91919,-338.57587,853.32526
191,1.583,298.20126,-313.01392,983.90039,254.82796,-344.63199,909.09186,334.02484,-339.66507,853.7984
192,1.592,298.01025,-313.36734,984.04956,254.68446,-344.98987,909.21252,333.45795,-339.7569,853.55316
193,1.6,297.81836,-313.71191,984.04651,254.34259,-345.02759,909.66174,333.45087,-339.91962,853.43536
194,1.608,298.12567,-313.86261,984.38245,254.02983,-345.56433,909.96332,333.10724,-340.4455,853.67847
195,1.617,297.91,-313.99594,984.70593,253.37038,-346.16714,910.04803,333.35904,-341.40436,853.72235
196,1.625,297.96033,-314.16074,984.46136,253.32816,-346.54926,910.12079,333.55753,-341.37506,853.7746
