Frame#,Time,L.Forearm.x,L.Forearm.y,L.Forearm.z,L.Ulna.x,L.Ulna.y,L.Ulna.z,L.Radius.x,L.Radius.y,L.Radius.z
1,0,375.8775,378.52194,1266.32483,463.11597,391.51721,1238.26123,489.06332,310.02441,1281.06567
2,0.008,375.70148,378.9816,1265.59583,463.51157,391.68457,1237.66858,489.06332,310.02441,1281.06567
3,0.017,376.08069,378.03546,1266.39844,463.10046,392.65405,1237.2959,489.06332,310.02441,1281.06567
4,0.025,376.01071,378.63251,1266.46729,463.39407,391.69284,1237.90796,489.06332,310.02441,1281.06567
5,0.033,375.88193,378.03415,1266.11328,463.39407,391.69284,1237.90796,489.09344,310.38681,1280.96423
6,0.042,375.797,378.64374,1266.14465,463.28387,391.7334,1238.03015,489.06332,310.02441,1281.06567
7,0.05,375.797,378.64374,1266.14465,463.4014,391.72516,1237.79089,489.06332,310.02441,1281.06567
8,0.058,375.70148,378.9816,1265.59583,463.28387,391.7334,1238.03015,489.19681,310.01761,1281.06335
9,0.067,375.70148,378.9816,1265.59583,463.28387,391.7334,1238.03015,489.19681,310.01761,1281.06335
10,0.075,375.88837,379.21344,1265.74768,463.28387,391.7334,1238.03015,489.19681,310.01761,1281.06335
11,0.083,376.1409,379.02487,1265.55396,463.51157,391.68457,1237.66858,489.19681,310.01761,1281.06335
12,0.092,376.11612,378.07816,1265.42358,463.51157,391.68457,1237.66858,489.19681,310.01761,1281.06335
13,0.1,376.1409,379.02487,1265.55396,463.7684,391.98419,1237.6543,489.19681,310.01761,1281.06335
14,0.108,375.67596,378.56757,1264.97021,463.7684,391.98419,1237.6543,489.34506,309.95984,1281.11292
15,0.117,375.92523,378.88879,1265.03809,463.7684,391.98419,1237.6543,489.19681,310.01761,1281.06335
16,0.125,376.02344,378.93082,1264.98706,463.86154,391.91,1237.75964,489.14594,310.06189,1280.68054
17,0.133,375.73831,378.65662,1264.88611,464.38596,392.34091,1237.33972,489.12967,310.10773,1280.97498
18,0.142,375.87912,378.31192,1265.53699,464.38596,392.34091,1237.33972,489.19681,310.01761,1281.06335
19,0.15,375.83652,378.69864,1264.83508,463.97903,391.90173,1237.52026,489.34506,309.95984,1281.11292
20,0.158,375.96658,378.32419,1265.49426,463.78009,391.85004,1237.3551,489.26184,310.25476,1280.82361
21,0.167,375.96658,378.32419,1265.49426,463.97903,391.90173,1237.52026,489.21951,310.48239,1280.42468
22,0.175,375.73831,378.65662,1264.88611,464.38596,392.34091,1237.33972,489.21951,310.48239,1280.42468
23,0.183,375.83652,378.69864,1264.83508,464.18704,392.28928,1237.17468,489.2345,310.75714,1280.61646
24,0.192,375.96658,378.32419,1265.49426,463.58115,391.79858,1237.19006,489.23422,311.05267,1280.52747
25,0.2,375.73831,378.65662,1264.88611,463.58115,391.79858,1237.19006,489.23422,311.05267,1280.52747
26,0.208,375.83652,378.69864,1264.83508,463.9881,392.23782,1237.00952,489.23422,311.05267,1280.52747
27,0.217,375.83652,378.69864,1264.83508,463.9881,392.23782,1237.00952,489.12067,310.74701,1280.57947
28,0.225,375.83652,378.69864,1264.83508,463.9881,392.23782,1237.00952,489.26184,310.25476,1280.82361
29,0.233,375.96658,378.32419,1265.49426,463.78009,391.85004,1237.3551,489.23422,311.05267,1280.52747
30,0.242,375.96658,378.32419,1265.49426,463.97903,391.90173,1237.52026,489.15945,310.55093,1280.35339
31,0.25,375.96658,378.32419,1265.49426,464.38596,392.34091,1237.33972,489.18231,310.68674,1280.64697
32,0.258,375.73831,378.65662,1264.88611,464.18704,392.28928,1237.17468,489.18231,310.68674,1280.64697
33,0.267,375.83652,378.69864,1264.83508,463.9881,392.23782,1237.00952,489.29974,311.09,1280.48181
34,0.275,376.18658,378.49393,1265.86194,463.97903,391.90173,1237.52026,489.12067,310.74701,1280.57947
35,0.283,376.30142,379.15588,1265.41882,463.7684,391.98419,1237.6543,489.17416,311.12122,1280.45618
36,0.292,376.18658,378.49393,1265.86194,464.17535,392.4234,1237.47375,489.17416,311.12122,1280.45618
37,0.3,376.09915,378.48166,1265.90466,464.17535,392.4234,1237.47375,489.17416,311.12122,1280.45618
38,0.308,375.96658,378.32419,1265.49426,463.56818,391.94733,1237.52246,489.15945,310.55093,1280.35339
39,0.317,375.96658,378.32419,1265.49426,463.7684,391.98419,1237.6543,489.29907,310.66257,1280.69971
40,0.325,375.96658,378.32419,1265.49426,463.7684,391.98419,1237.6543,489.17416,311.12122,1280.45618
41,0.333,375.87912,378.31192,1265.53699,464.17535,392.4234,1237.47375,489.12067,310.74701,1280.57947
42,0.342,375.84955,378.6983,1266.07568,463.7684,391.98419,1237.6543,489.23422,311.05267,1280.52747
43,0.35,375.84955,378.6983,1266.07568,463.7684,391.98419,1237.6543,489.12067,310.74701,1280.57947
44,0.358,375.76382,379.07071,1265.5116,463.7684,391.98419,1237.6543,489.2345,310.75714,1280.61646
45,0.367,375.76382,379.07071,1265.5116,463.7684,391.98419,1237.6543,489.11588,310.75253,1280.63037
46,0.375,375.75153,378.83545,1265.27136,463.6759,392.14142,1237.60815,489.18231,310.68674,1280.64697
47,0.383,375.76382,379.07071,1265.5116,463.6759,392.14142,1237.60815,489.17416,311.12122,1280.45618
48,0.392,375.82794,378.23889,1265.57825,463.6759,392.14142,1237.60815,489.05624,311.11432,1280.47217
49,0.4,375.76382,379.07071,1265.5116,463.6759,392.14142,1237.60815,489.1058,311.04941,1280.54004
50,0.408,375.76382,379.07071,1265.5116,463.6759,392.14142,1237.60815,489.00378,310.74173,1280.5929
51,0.417,375.76382,379.07071,1265.5116,463.6759,392.14142,1237.60815,489.00378,310.74173,1280.5929
52,0.425,375.74173,378.53247,1265.51404,463.6759,392.14142,1237.60815,489.00378,310.74173,1280.5929
53,0.433,375.66431,379.48822,1265.427,463.6759,392.14142,1237.60815,489.00378,310.74173,1280.5929
54,0.442,375.76382,379.07071,1265.5116,463.47568,392.10455,1237.4762,489.05624,311.11432,1280.47217
55,0.45,375.75897,379.01889,1265.98145,463.6759,392.14142,1237.60815,489.05624,311.11432,1280.47217
56,0.458,375.42294,379.48758,1266.06018,463.6759,392.14142,1237.60815,488.90765,310.78595,1280.54663
57,0.467,375.63611,379.37643,1265.92834,463.6759,392.14142,1237.60815,488.90765,310.78595,1280.54663
58,0.475,375.42294,379.48758,1266.06018,463.6759,392.14142,1237.60815,488.96094,311.16425,1280.42407
59,0.483,375.465,379.10776,1266.21814,463.6759,392.14142,1237.60815,488.96094,311.16425,1280.42407
60,0.492,375.51755,379.16232,1266.14929,463.52686,392.14038,1237.64258,488.96094,311.16425,1280.42407
61,0.5,375.58389,378.75485,1266.27649,463.32663,392.10349,1237.51062,488.96094,311.16425,1280.42407
62,0.508,375.465,379.10776,1266.21814,463.47568,392.10455,1237.4762,488.96094,311.16425,1280.42407
63,0.517,375.51755,379.16232,1266.14929,463.32663,392.10349,1237.51062,488.96094,311.16425,1280.42407
64,0.525,375.465,379.10776,1266.21814,463.21866,392.1586,1237.61194,488.8399,310.73175,1280.61475
65,0.533,375.51755,379.16232,1266.14929,463.47568,392.10455,1237.4762,488.90765,310.78595,1280.54663
66,0.542,375.51755,379.16232,1266.14929,463.32663,392.10349,1237.51062,488.96094,311.16425,1280.42407
67,0.55,375.42294,379.48758,1266.06018,463.47568,392.10455,1237.4762,488.90765,310.78595,1280.54663
68,0.558,375.2352,379.06647,1266.03015,463.47568,392.10455,1237.4762,488.96094,311.16425,1280.42407
69,0.567,375.61975,378.65701,1265.88757,463.73355,392.54269,1237.33008,488.96094,311.16425,1280.42407
70,0.575,375.40656,378.37454,1265.9657,463.31778,392.0484,1237.31079,488.96094,311.16425,1280.42407
71,0.583,375.27356,378.57309,1265.95361,463.47568,392.10455,1237.4762,489.05624,311.11432,1280.47217
72,0.592,375.4462,378.54849,1265,463.32663,392.10349,1237.51062,488.96094,311.16425,1280.42407
73,0.6,375.3526,379.05579,1265.03735,463.31778,392.0484,1237.31079,488.89081,311.10178,1280.4978
74,0.608,375.66,378.12097,1265.6394,463.16873,392.04733,1237.34534,488.96094,311.16425,1280.42407
75,0.617,375.3526,379.05579,1265.03735,463.16873,392.04733,1237.34534,488.96094,311.16425,1280.42407
76,0.625,375.33878,379.53751,1264.83337,463.31778,392.0484,1237.31079,488.90765,310.78595,1280.54663
77,0.633,375.02802,378.98651,1264.80664,463.06076,392.10248,1237.44653,488.89081,311.10178,1280.4978
78,0.642,375.33878,379.53751,1264.83337,463.57568,392.48657,1237.16479,488.96094,311.16425,1280.42407
79,0.65,375.09036,379.07553,1264.72253,463.16873,392.04733,1237.34534,488.90765,310.78595,1280.54663
80,0.658,375.02802,378.98651,1264.80664,463.07025,392.10611,1237.28125,488.96094,311.16425,1280.42407
81,0.667,374.96841,378.71826,1264.54822,463.16873,392.04733,1237.34534,488.96094,311.16425,1280.42407
82,0.675,374.96841,378.71826,1264.54822,463.07025,392.10611,1237.28125,488.90765,310.78595,1280.54663
83,0.683,375.03079,378.80728,1264.46411,463.57568,392.48657,1237.16479,488.96094,311.16425,1280.42407
84,0.692,375.21686,379.18027,1264.65918,463.4772,392.54535,1237.10083,488.96094,311.16425,1280.42407
85,0.7,375.33878,379.53751,1264.83337,463.24106,392.01355,1237.11426,488.90765,310.78595,1280.54663
86,0.708,375.02802,378.98651,1264.80664,462.89319,391.89594,1237.0979,488.90765,310.78595,1280.54663
87,0.717,375.03079,378.80728,1264.46411,462.74677,391.89804,1237.1272,488.96094,311.16425,1280.42407
88,0.725,374.94397,378.92142,1264.38379,463.07025,392.10611,1237.28125,488.96094,311.16425,1280.42407
89,0.733,375.03079,378.80728,1264.46411,462.74677,391.89804,1237.1272,488.96094,311.16425,1280.42407
90,0.742,375.03079,378.80728,1264.46411,463.07025,392.10611,1237.28125,488.96094,311.16425,1280.42407
91,0.75,375.03079,378.80728,1264.46411,463.07025,392.10611,1237.28125,488.90765,310.78595,1280.54663
92,0.758,375.03079,378.80728,1264.46411,463.4772,392.54535,1237.10083,488.96094,311.16425,1280.42407
93,0.767,375.03079,378.80728,1264.46411,463.32446,392.24472,1236.77979,488.96094,311.16425,1280.42407
94,0.775,375.03079,378.80728,1264.46411,462.9176,391.80545,1236.96021,489.01297,311.04691,1280.43506
95,0.783,375.03079,378.80728,1264.46411,463.07025,392.10611,1237.28125,488.96094,311.16425,1280.42407
96,0.792,374.94397,378.92142,1264.38379,462.74677,391.89804,1237.1272,488.96094,311.16425,1280.42407
97,0.8,374.94397,378.92142,1264.38379,463.32446,392.24472,1236.77979,489.07098,311.46167,1280.30164
98,0.808,375.03079,378.80728,1264.46411,463.36111,392.3562,1236.64807,489.07098,311.46167,1280.30164
99,0.817,375.03079,378.80728,1264.46411,462.8649,391.88971,1236.88806,489.07098,311.46167,1280.30164
100,0.825,375.03079,378.80728,1264.46411,462.83612,391.92529,1237.06775,489.08771,311.55341,1280.19958
101,0.833,375.33484,378.0705,1264.47607,462.36514,392.9711,1236.6073,489.08771,311.55341,1280.19958
102,0.842,375.4635,379.34567,1264.36084,462.82022,392.06525,1236.79749,489.08771,311.55341,1280.19958
103,0.85,374.94397,378.92142,1264.38379,462.95422,391.91696,1236.82849,489.08771,311.55341,1280.19958
104,0.858,374.94397,378.92142,1264.38379,462.97073,391.922,1237.04285,489.08771,311.55341,1280.19958
105,0.867,375.21503,378.88367,1264.25,462.82022,392.06525,1236.79749,489.08771,311.55341,1280.19958
106,0.875,375.21503,378.88367,1264.25,463.34525,392.49609,1236.37769,489.08771,311.55341,1280.19958
107,0.883,374.94397,378.92142,1264.38379,463.34525,392.49609,1236.37769,489.08771,311.55341,1280.19958
108,0.892,374.94397,378.92142,1264.38379,462.97073,391.922,1237.04285,489.00467,311.79807,1280.14905
109,0.9,375.21503,378.88367,1264.25,462.80374,392.06021,1236.58301,489.00467,311.79807,1280.14905
110,0.908,375.21503,378.88367,1264.25,462.80374,392.06021,1236.58301,489.00467,311.79807,1280.14905
111,0.917,374.9711,379.21011,1264.65222,462.80374,392.06021,1236.58301,489.00467,311.79807,1280.14905
112,0.925,375.21503,378.88367,1264.25,462.95422,391.91696,1236.82849,489.00467,311.79807,1280.14905
113,0.933,375.21503,378.88367,1264.25,462.80374,392.06021,1236.58301,489.08771,311.55341,1280.19958
114,0.942,374.9711,379.21011,1264.65222,462.93835,392.05692,1236.55823,489.00467,311.79807,1280.14905
115,0.95,374.9711,379.21011,1264.65222,462.93835,392.05692,1236.55823,489.08771,311.55341,1280.19958
116,0.958,375.21948,378.30875,1264.18372,463.07916,392.25504,1236.51599,489.00467,311.79807,1280.14905
117,0.967,375.21503,378.88367,1264.25,463.08884,391.91364,1236.80359,489.00467,311.79807,1280.14905
118,0.975,375.21503,378.88367,1264.25,463.07916,392.25504,1236.51599,489.13309,311.81525,1280.12109
119,0.983,375.21948,378.30875,1264.18372,463.07916,392.25504,1236.51599,489.21695,311.42636,1279.97717
120,0.992,375.26407,378.38861,1264.09705,463.48611,392.69415,1236.33557,489.13391,311.67099,1279.92664
121,1,375.50235,379.45667,1264.26245,463.48611,392.69415,1236.33557,489.21695,311.42636,1279.97717
122,1.008,375.21503,378.88367,1264.25,463.24997,392.16238,1236.349,489.08853,311.40918,1280.00525
123,1.017,375.4635,379.34567,1264.36084,463.23981,392.21152,1236.27954,489.21695,311.42636,1279.97717
124,1.025,375.21503,378.88367,1264.25,463.23981,392.21152,1236.27954,489.21695,311.42636,1279.97717
125,1.033,375.50235,379.45667,1264.26245,463.65689,392.6015,1236.16858,489.21695,311.42636,1279.97717
126,1.042,375.45206,378.13416,1264.09949,463.76486,392.54636,1236.06726,489.21695,311.42636,1279.97717
127,1.05,375.21503,378.88367,1264.25,463.76486,392.54636,1236.06726,489.21695,311.42636,1279.97717
128,1.058,375.59787,379.51123,1264.20166,463.76486,392.54636,1236.06726,489.21695,311.42636,1279.97717
129,1.067,375.80615,378.97156,1264.3606,463.76486,392.54636,1236.06726,489.21695,311.42636,1279.97717
130,1.075,375.80615,378.97156,1264.3606,463.91537,392.40314,1236.31274,489.21695,311.42636,1279.97717
131,1.083,375.70123,379.08939,1264.28027,463.76486,392.54636,1236.06726,489.21695,311.42636,1279.97717
132,1.092,375.80615,378.97156,1264.3606,463.76486,392.54636,1236.06726,489.21695,311.42636,1279.97717
133,1.1,375.80615,378.97156,1264.3606,463.91537,392.40314,1236.31274,489.21695,311.42636,1279.97717
134,1.108,375.70123,379.08939,1264.28027,463.91537,392.40314,1236.31274,489.21613,311.57059,1280.17163
135,1.117,375.80615,378.97156,1264.3606,463.9754,392.46411,1235.93335,489.21613,311.57059,1280.17163
136,1.125,375.80615,378.97156,1264.3606,463.76486,392.54636,1236.06726,489.21613,311.57059,1280.17163
137,1.133,375.91492,378.15784,1264.5553,464.12592,392.32086,1236.17883,489.21613,311.57059,1280.17163
138,1.142,375.80615,378.97156,1264.3606,464.12592,392.32086,1236.17883,489.21695,311.42636,1279.97717
139,1.15,375.80615,378.97156,1264.3606,463.9754,392.46411,1235.93335,489.21613,311.57059,1280.17163
140,1.158,375.80615,378.97156,1264.3606,463.98508,392.1228,1236.22095,489.21613,311.57059,1280.17163
141,1.167,375.80615,378.97156,1264.3606,464.12592,392.32086,1236.17883,489.21613,311.57059,1280.17163
142,1.175,375.80615,378.97156,1264.3606,464.40375,392.52658,1236.28394,489.21613,311.57059,1280.17163
143,1.183,375.80615,378.97156,1264.3606,464.25317,392.66983,1236.03845,489.21613,311.57059,1280.17163
144,1.192,375.80615,378.97156,1264.3606,464.40375,392.52658,1236.28394,489.21613,311.57059,1280.17163
145,1.2,375.80615,378.97156,1264.3606,464.40375,392.52658,1236.28394,489.21613,311.57059,1280.17163
146,1.208,375.80615,378.97156,1264.3606,464.40375,392.52658,1236.28394,489.36047,311.43304,1279.96069
147,1.217,375.80615,378.97156,1264.3606,464.31,392.62158,1235.76892,489.58868,311.37854,1279.88379
148,1.225,375.80615,378.97156,1264.3606,464.31,392.62158,1235.76892,489.72461,311.3512,1279.90442
149,1.233,376.19891,378.26917,1263.89758,464.18271,392.27258,1235.9093,489.62918,311.4166,1279.83911
150,1.242,376.19891,378.26917,1263.89758,464.18271,392.27258,1235.9093,489.72461,311.3512,1279.90442
151,1.25,376.19891,378.26917,1263.89758,464.03223,392.4158,1235.66382,489.99896,311.14233,1279.57959
152,1.258,376.19891,378.26917,1263.89758,464.03223,392.4158,1235.66382,489.98434,310.57199,1279.47668
153,1.267,376.19891,378.26917,1263.89758,464.45248,392.5325,1235.93726,489.99896,311.14233,1279.57959
154,1.275,376.19891,378.26917,1263.89758,464.57523,392.49258,1235.96838,489.99896,311.14233,1279.57959
155,1.283,376.19891,378.26917,1263.89758,464.14517,392.48819,1235.53333,489.99896,311.14233,1279.57959
156,1.292,376.19891,378.26917,1263.89758,464.42294,392.69394,1235.63855,490.0892,310.63174,1279.40369
157,1.3,376.69604,378.13989,1264.03784,464.57349,392.55075,1235.88403,490.55981,310.69858,1279.4928
158,1.308,376.20059,378.2807,1263.90796,464.69467,392.36328,1235.92236,490.21576,311.11121,1279.39575
159,1.317,377.00775,378.41943,1264.12207,464.54413,392.5065,1235.67676,490.67181,310.60764,1279.38196
160,1.325,377.54016,378.87851,1263.89575,464.54413,392.5065,1235.67676,490.67181,310.60764,1279.38196
161,1.333,376.72531,378.23761,1264.03149,464.64838,391.84503,1235.30603,490.83215,310.52545,1279.21252
162,1.342,377.39661,378.4173,1263.96021,464.69467,392.36328,1235.92236,491.11948,310.57959,1279.17957
163,1.35,377.39661,378.4173,1263.96021,464.54413,392.5065,1235.67676,491.11948,310.57959,1279.17957
164,1.358,377.44257,378.50906,1263.74365,464.54413,392.5065,1235.67676,491.134,311.15002,1279.28247
165,1.367,377.54382,377.93839,1264.11084,464.69467,392.36328,1235.92236,491.2388,311.20978,1279.20947
166,1.375,377.55374,378.47888,1263.73645,464.69467,392.36328,1235.92236,491.2388,311.20978,1279.20947
167,1.383,377.46439,378.21637,1263.66797,464.54413,392.5065,1235.67676,491.22433,310.63934,1279.10657
168,1.392,377.67218,379.07861,1264.19385,464.54413,392.5065,1235.67676,491.22433,310.63934,1279.10657
169,1.4,377.7764,378.97174,1264.26526,464.82346,392.30933,1235.97253,491.22433,310.63934,1279.10657
170,1.408,377.94376,378.33707,1264.16443,464.82346,392.30933,1235.97253,491.3721,311.36987,1279.37549
171,1.417,377.68927,379.16769,1264.41248,464.82346,392.30933,1235.97253,491.70032,310.60147,1278.9823
172,1.425,377.89233,378.84125,1264.53906,464.61563,391.9342,1235.12537,491.22433,310.63934,1279.10657
173,1.433,378.12619,379.04526,1264.59766,464.64838,391.84503,1235.30603,491.3721,311.36987,1279.37549
174,1.442,378.12619,379.04526,1264.59766,464.65662,391.78873,1235.38416,491.83353,310.76151,1279.14832
175,1.45,378.12619,379.04526,1264.59766,465.19308,392.26816,1235.97058,491.83353,310.76151,1279.14832
176,1.458,378.12619,379.04526,1264.59766,464.67291,392.45255,1235.72705,491.83353,310.76151,1279.14832
177,1.467,378.12729,379.10202,1264.69336,464.81564,392.39822,1236.17188,491.3721,311.36987,1279.37549
178,1.475,378.02167,378.1709,1265.28223,464.80991,392.33981,1236.2583,491.84793,311.33209,1279.25134
179,1.483,378.02167,378.1709,1265.28223,465.1524,392.35272,1236.15198,491.84793,311.33209,1279.25134
180,1.492,378.02167,378.1709,1265.28223,465.66919,392.26779,1236.08691,491.97656,310.7731,1279.12549
181,1.5,378.08362,377.74713,1265.26843,465.65805,392.21915,1236.19409,491.97656,310.7731,1279.12549
182,1.508,378.02167,378.1709,1265.28223,465.43518,392.29019,1236.08008,492.30377,311.40634,1279.32336
183,1.517,378.08362,377.74713,1265.26843,464.95004,393.27243,1235.68713,492.28949,310.83575,1279.22046
184,1.525,378.02167,378.1709,1265.28223,465.42947,392.23178,1236.1665,492.40903,310.80927,1279.24121
185,1.533,378.09467,378.43762,1265.25684,465.65805,392.21915,1236.19409,492.30377,311.40634,1279.32336
186,1.542,378.09467,378.43762,1265.25684,465.73413,392.23721,1236.25354,492.28949,310.83575,1279.22046
187,1.55,378.14615,378.08774,1265.3136,465.73413,392.23721,1236.25354,492.51315,311.36771,1279.20972
188,1.558,378.02167,378.1709,1265.28223,465.43518,392.29019,1236.08008,492.40903,310.80927,1279.24121
189,1.567,378.14615,378.08774,1265.3136,465.86862,392.24164,1236.21729,492.28949,310.83575,1279.22046
190,1.575,378.31372,377.97159,1265.27637,465.73413,392.23721,1236.25354,492.4989,310.79706,1279.10681
191,1.583,378.21857,378.35126,1265.28748,465.85611,392.18948,1236.29614,492.81189,310.83325,1279.04077
192,1.592,378.31372,377.97159,1265.27637,465.85611,392.18948,1236.29614,492.4989,310.79706,1279.10681
193,1.6,378.31372,377.97159,1265.27637,465.85611,392.18948,1236.29614,492.40903,310.80927,1279.24121
194,1.608,378.21857,378.35126,1265.28748,465.85611,392.18948,1236.29614,492.51315,311.36771,1279.20972
195,1.617,378.25809,379.01804,1264.7323,465.85611,392.18948,1236.29614,492.40903,310.80927,1279.24121
196,1.625,378.21857,378.35126,1265.28748,465.85611,392.18948,1236.29614,492.40903,310.80927,1279.24121
197,1.633,378.25809,379.01804,1264.7323,465.85611,392.18948,1236.29614,492.72202,310.84543,1279.17517
