Frame#,Time,L.Forearm.x,L.Forearm.y,L.Forearm.z,L.Ulna.x,L.Ulna.y,L.Ulna.z,L.Radius.x,L.Radius.y,L.Radius.z
1,0,57.46938,329.54138,948.90649,153.513,330.01202,951.91382,170.75107,287.44812,1012.88812
2,0.008,57.29238,329.66351,949.01678,153.513,330.01202,951.91382,171.31259,287.8667,1012.65857
3,0.017,57.29238,329.66351,949.01678,153.70599,330.29166,951.93488,171.39607,288.14993,1012.63593
4,0.025,57.29238,329.66351,949.01678,153.70599,330.29166,951.93488,171.4462,288.04794,1012.56116
5,0.033,57.29238,329.66351,949.01678,153.513,330.01202,951.91382,171.2173,287.81982,1012.73126
6,0.042,57.22295,329.61264,949.20996,153.513,330.01202,951.91382,171.2173,287.81982,1012.73126
7,0.05,57.29238,329.66351,949.01678,153.513,330.01202,951.91382,170.54842,287.38654,1012.88013
8,0.058,57.29238,329.66351,949.01678,153.70599,330.29166,951.93488,170.9496,287.86337,1012.78796
9,0.067,57.01599,329.70309,949.32806,153.70599,330.29166,951.93488,170.9496,287.86337,1012.78796
10,0.075,57.01599,329.70309,949.32806,153.59076,330.37915,952.06866,170.9496,287.86337,1012.78796
11,0.083,56.83894,329.82538,949.43842,153.59076,330.37915,952.06866,170.9496,287.86337,1012.78796
12,0.092,56.83894,329.82538,949.43842,153.59076,330.37915,952.06866,170.80159,287.99191,1012.8042
13,0.1,56.83894,329.82538,949.43842,153.20842,330.53964,952.11072,170.80159,287.99191,1012.8042
14,0.108,56.81092,330.00745,949.60785,153.06166,330.3768,952.2453,171.05438,288.46384,1013.00812
15,0.117,56.81092,330.00745,949.60785,152.9314,330.78397,952.38947,170.82895,288.62048,1013.12512
16,0.125,56.64732,330.26251,949.67468,152.9314,330.78397,952.38947,170.31305,287.90414,1013.12543
17,0.133,56.63405,330.49008,949.74982,152.9314,330.78397,952.38947,170.862,288.68323,1013.2309
18,0.142,56.63405,330.49008,949.74982,152.73982,330.8909,952.48859,170.70525,288.69894,1013.24396
19,0.15,56.6093,330.42636,949.82434,152.73982,330.8909,952.48859,170.70525,288.69894,1013.24396
20,0.158,56.58049,330.44281,950.04504,152.51106,331.11099,952.74139,170.82642,288.82877,1013.53497
21,0.167,56.75615,330.64404,950.29816,152.68863,330.88681,952.69366,170.82642,288.82877,1013.53497
22,0.175,56.44008,330.19513,950.17804,152.51106,331.11099,952.74139,170.98315,288.81302,1013.52191
23,0.183,56.75615,330.64404,950.29816,152.69713,331.07175,952.85071,171.16502,288.82687,1013.63202
24,0.192,56.61573,330.39636,950.43115,152.69713,331.07175,952.85071,170.95056,288.79178,1014.14801
25,0.2,56.61573,330.39636,950.43115,152.77119,330.99722,953.09088,170.79385,288.80753,1014.16107
26,0.208,56.49763,330.08102,950.75195,152.73546,330.95599,953.15564,170.95056,288.79178,1014.14801
27,0.217,56.58154,329.84793,950.82361,152.73546,330.95599,953.15564,170.95056,288.79178,1014.14801
28,0.225,56.58399,329.66525,950.92859,152.65852,330.93665,953.21332,170.95056,288.79178,1014.14801
29,0.233,56.71467,329.57623,951.10327,152.61838,330.63425,953.49725,170.95056,288.79178,1014.14801
30,0.242,56.71467,329.57623,951.10327,152.61838,330.63425,953.49725,170.63107,288.45575,1014.42877
31,0.25,56.63536,329.14587,951.39984,152.59784,330.81256,953.71313,170.67682,288.27036,1014.69104
32,0.258,56.63536,329.14587,951.39984,152.3027,330.96231,953.83704,170.70285,288.20422,1014.76166
33,0.267,56.63536,329.14587,951.39984,152.52193,330.89716,954.10657,170.53743,288.21655,1014.78033
34,0.275,56.60228,329.19928,951.54529,152.69954,330.67291,954.0589,170.6613,288.13644,1014.84766
35,0.283,56.59893,328.97888,951.44055,152.52193,330.89716,954.10657,170.48112,288.14481,1014.87378
36,0.292,56.60228,329.19928,951.54529,152.52193,330.89716,954.10657,170.15303,288.22293,1015.22375
37,0.3,56.78516,329.14969,951.74341,152.56148,330.86847,954.38788,170.03084,288.17719,1015.3006
38,0.308,56.78516,329.14969,951.74341,152.56148,330.86847,954.38788,169.97487,288.2695,1015.59589
39,0.317,56.78516,329.14969,951.74341,152.56148,330.86847,954.38788,169.69679,288.37802,1015.49188
40,0.325,56.78516,329.14969,951.74341,152.56148,330.86847,954.38788,169.77983,288.3255,1015.71924
41,0.333,56.78516,329.14969,951.74341,152.56148,330.86847,954.38788,169.8597,288.33948,1015.80945
42,0.342,56.78516,329.14969,951.74341,152.56148,330.86847,954.38788,170.04819,288.04285,1016.12146
43,0.35,56.78516,329.14969,951.74341,152.56148,330.86847,954.38788,169.56987,288.02667,1016.06818
44,0.358,56.78516,329.14969,951.74341,152.56148,330.86847,954.38788,169.45325,287.34854,1016.21997
45,0.367,56.78516,329.14969,951.74341,152.49553,330.71005,954.43109,169.23715,286.7973,1016.5929
46,0.375,56.75722,329.33163,951.91272,152.49553,330.71005,954.43109,169.20049,286.69351,1016.72351
47,0.383,56.75722,329.33163,951.91272,152.49553,330.71005,954.43109,168.8559,286.86523,1016.71027
48,0.392,56.75722,329.33163,951.91272,152.49553,330.71005,954.43109,169.04776,286.72375,1016.71912
49,0.4,56.66241,329.43237,952.22742,152.42482,330.80554,954.71161,169.17575,286.76266,1016.82721
50,0.408,56.66241,329.43237,952.22742,152.03897,331.04514,954.86713,168.98387,286.90414,1016.81836
51,0.417,56.52414,329.51431,952.2196,151.47961,330.90067,955.16705,168.94377,286.83673,1016.90363
52,0.425,56.52571,329.32004,952.40436,151.47961,330.90067,955.16705,169.06696,286.8736,1017.09509
53,0.433,56.41465,329.3064,952.57355,151.32095,330.86768,955.64777,168.80029,286.84509,1017.17999
54,0.442,56.18134,329.30359,952.69708,151.36542,331.02173,955.92328,168.79701,286.75961,1017.31226
55,0.45,56.2082,329.45227,952.96155,151.26794,330.87943,956.16217,168.60518,286.90109,1017.30334
56,0.458,55.99307,329.83401,953.29956,151.27144,330.78781,956.27673,168.42358,286.77069,1017.72491
57,0.467,55.99307,329.83401,953.29956,151.21048,330.81461,956.69843,168.30612,286.58798,1017.51782
58,0.475,55.71827,330.09625,953.5509,151.42973,330.98834,956.99884,168.4136,286.65414,1017.83441
59,0.483,55.71827,330.09625,953.5509,151.2597,330.99475,957.20453,168.24216,286.83017,1017.99512
60,0.492,55.71891,329.97614,953.67444,151.56686,330.59357,957.8161,168.44707,287.25653,1018.26141
61,0.5,55.60275,329.66739,953.97711,151.45618,330.52499,958.07495,168.37228,286.96771,1018.2677
62,0.508,55.60938,329.44653,954.28198,151.65372,330.21945,958.43213,168.41234,286.91647,1018.51672
63,0.517,55.50528,328.74008,954.62811,151.62279,330.47928,958.67419,168.40172,286.94208,1018.97223
64,0.525,55.50528,328.74008,954.62811,151.89485,330.40302,959.11243,168.23611,287.32114,1019.47272
65,0.533,54.92927,328.83585,954.71808,151.54842,330.40308,959.35687,168.11748,287.24683,1019.90826
66,0.542,54.73149,328.80533,955.25812,151.62309,330.32825,959.59711,167.80408,287.53415,1020.06372
67,0.55,54.55775,329.07019,955.63837,151.62309,330.32825,959.59711,167.80408,287.53415,1020.06372
68,0.558,54.67187,329.15631,955.72058,151.62309,330.32825,959.59711,167.69606,287.1337,1020.37488
69,0.567,54.56296,328.99799,955.70593,151.52156,330.40558,959.69171,167.38898,287.08737,1020.6792
70,0.575,54.2046,329.19513,955.72076,151.29591,330.51907,959.76776,167.50618,287.02213,1021.26605
71,0.583,54.63081,328.88159,956.09235,151.29591,330.51907,959.76776,167.44394,286.99194,1021.46552
72,0.592,54.28024,329.04236,955.97748,151.1593,330.50568,960.11115,167.44394,286.99194,1021.46552
73,0.6,54.77037,328.89035,956.50092,151.03603,330.5177,960.15295,167.2574,287.05353,1021.60944
74,0.608,54.11434,328.83411,956.84808,150.98241,330.58423,960.29535,167.40396,287.15915,1021.87109
75,0.617,54.01002,328.8407,956.89581,151.11134,330.79596,960.52289,167.40396,287.15915,1021.87109
76,0.625,54.51794,328.64093,956.94659,151.02206,330.50272,960.7041,167.40396,287.15915,1021.87109
77,0.633,54.58745,328.85327,956.94849,151.01834,330.57855,960.97113,167.29677,287.03998,1022.10608
78,0.642,54.39735,328.4693,957.07947,151.15263,330.48984,961.0152,167.29677,287.03998,1022.10608
79,0.65,54.39735,328.4693,957.07947,151.15263,330.48984,961.0152,167.45271,286.57632,1021.95068
80,0.658,53.99372,328.66248,956.9809,151.25391,330.40942,961.14807,167.29425,286.8519,1022.36652
81,0.667,54.39735,328.4693,957.07947,151.25391,330.40942,961.14807,167.41045,286.41727,1022.15479
82,0.675,54.10117,328.64383,957.13873,151.25391,330.40942,961.14807,167.41045,286.41727,1022.15479
83,0.683,54.39735,328.4693,957.07947,151.25391,330.40942,961.14807,167.41045,286.41727,1022.15479
84,0.692,54.10117,328.64383,957.13873,151.25391,330.40942,961.14807,167.29652,286.39322,1022.20459
85,0.7,54.10117,328.64383,957.13873,150.9481,330.23904,961.26349,167.16786,286.29773,1022.37347
86,0.708,54.32439,328.52008,957.34711,151.14726,330.35275,961.26392,167.23938,286.07404,1022.42963
87,0.717,54.25988,328.5863,957.47211,150.85335,330.10596,961.59131,167.23938,286.07404,1022.42963
88,0.725,54.25988,328.5863,957.47211,150.85335,330.10596,961.59131,167.22948,286.12985,1022.61951
89,0.733,54.33876,328.48444,957.60498,150.85335,330.10596,961.59131,167.22948,286.12985,1022.61951
90,0.742,54.33876,328.48444,957.60498,150.85335,330.10596,961.59131,167.11,285.9718,1022.8139
91,0.75,54.33876,328.48444,957.60498,150.68221,329.89743,961.75726,167.20168,286.2894,1023.13068
92,0.758,54.44155,328.13443,957.75909,150.54379,329.75873,961.92291,166.91528,286.40756,1023.38324
93,0.767,54.44155,328.13443,957.75909,150.61795,329.80661,962.18921,167.01895,286.27789,1023.3158
94,0.775,54.44155,328.13443,957.75909,150.67664,329.21274,962.29004,167.01895,286.27789,1023.3158
95,0.783,54.48313,327.97937,958.24957,150.79028,329.2948,962.6203,166.96678,286.27374,1023.76733
96,0.792,54.21022,327.81064,958.44385,150.77089,329.18655,962.93115,167.15178,286.15628,1023.78656
97,0.8,54.21022,327.81064,958.44385,150.59944,328.77365,963.07733,167.15178,286.15628,1023.78656
98,0.808,54.32754,327.54825,958.4787,150.97095,328.63495,963.07227,167.35078,285.92349,1023.84003
99,0.817,54.28223,327.49631,958.55286,151.15184,328.79611,963.35205,167.33667,285.94373,1024.4198
100,0.825,54.24353,327.30084,959.01642,151.02602,328.08676,963.2276,166.88864,285.87161,1024.71265
101,0.833,54.03663,327.12943,959.23279,150.86722,327.66574,963.17047,167.00507,284.95383,1025.04932
102,0.842,53.8561,327.01663,959.40302,150.76317,327.70526,963.39349,167.02637,285.05374,1025.19043
103,0.85,53.8561,327.01663,959.40302,150.74068,327.76993,963.85913,167.02637,285.05374,1025.19043
104,0.858,54.00587,327.25742,959.9278,150.96152,327.71616,963.96387,167.03876,284.7998,1025.18274
105,0.867,54.26809,327.14182,960.03033,151.25333,327.41336,964.33582,166.89758,284.7515,1025.47449
106,0.875,54.43099,326.73453,960.3858,150.88509,327.29471,964.59637,166.88869,284.43008,1025.66577
107,0.883,54.54586,326.88309,960.50006,151.09038,327.21841,964.76593,167.11336,284.56036,1026.02612
108,0.892,54.2757,327.03574,960.52728,150.96515,327.35162,965.06732,167.28168,284.12198,1026.03528
109,0.9,54.29473,327.18564,960.63135,151.10863,327.58948,965.17273,167.01274,284.00894,1026.38708
110,0.908,54.78437,326.99631,960.92657,150.91731,327.57007,965.48108,166.64177,283.47778,1026.4187
111,0.917,54.78951,326.92422,960.99426,150.92151,327.4632,965.61493,166.67897,283.24319,1026.56421
112,0.925,54.90586,326.98251,961.0722,150.93332,327.39294,965.87549,166.53568,283.39108,1026.61865
113,0.933,55.10546,326.53482,961.13062,150.77234,327.11218,966.45081,166.53568,283.39108,1026.61865
114,0.942,54.96101,326.32254,961.26593,150.77234,327.11218,966.45081,166.50313,282.95673,1026.43433
115,0.95,54.96101,326.32254,961.26593,150.83513,327.08487,966.85242,166.62367,282.82596,1026.74658
116,0.958,55.09877,326.12924,961.45197,150.93886,327.04541,966.62933,166.68919,282.50385,1026.95471
117,0.967,55.26117,326.07816,961.89307,150.80663,326.97025,967.30945,166.43167,282.04434,1027.21765
118,0.975,55.26117,326.07816,961.89307,150.80663,326.97025,967.30945,166.23207,281.57501,1027.75012
119,0.983,55.26117,326.07816,961.89307,150.75856,326.78235,967.47461,165.93251,281.81125,1028.51111
120,0.992,55.26117,326.07816,961.89307,150.7726,326.724,967.53766,165.93251,281.81125,1028.51111
121,1,55.26117,326.07816,961.89307,150.71878,326.70078,967.58997,166.27312,281.53497,1028.60474
122,1.008,55.10323,326.21063,962.04163,150.85664,326.64453,967.76636,166.09366,281.74771,1028.58508
123,1.017,55.10323,326.21063,962.04163,150.85664,326.64453,967.76636,166.27312,281.53497,1028.60474
124,1.025,55.10323,326.21063,962.04163,150.99869,326.66913,968.01709,166.35873,281.61987,1028.71155
125,1.033,55.10939,326.12439,962.12274,151.06049,326.59802,968.07367,166.1611,281.44818,1028.87292
126,1.042,55.10939,326.12439,962.12274,151.06049,326.59802,968.07367,166.3419,281.3645,1028.94214
127,1.05,54.96118,326.58038,962.48438,151.06049,326.59802,968.07367,166.22227,281.39368,1028.92822
128,1.058,54.92986,326.39392,962.7973,151.32669,326.5217,968.16315,166.23927,281.39224,1029.06506
129,1.067,54.92986,326.39392,962.7973,151.33464,326.46552,968.22662,166.24892,281.7623,1029.25903
130,1.075,54.72357,326.48297,962.91528,151.33464,326.46552,968.22662,166.39417,281.62442,1029.21887
131,1.083,54.80239,326.38123,963.04828,151.20609,326.40805,968.33185,166.24892,281.7623,1029.25903
132,1.092,54.92965,325.62289,963.0824,151.21346,326.22476,968.5614,166.08415,281.58658,1029.29553
133,1.1,54.72342,325.71198,963.20032,151.21346,326.22476,968.5614,166.1055,281.79538,1029.50171
134,1.108,54.92002,326.09207,963.11078,151.26086,326.40704,968.65723,166.23903,281.8187,1029.44922
135,1.117,54.92002,326.09207,963.11078,151.26086,326.40704,968.65723,166.4442,281.5412,1029.4906
136,1.125,54.72342,325.71198,963.20032,151.1234,326.27063,968.62897,166.30916,281.76746,1029.64795
137,1.133,54.64826,325.51022,963.2428,151.26086,326.40704,968.65723,166.14462,281.94159,1029.84509
138,1.142,54.7199,325.61163,963.4295,150.44534,325.97369,969.15747,166.14462,281.94159,1029.84509
139,1.15,54.7199,325.61163,963.4295,150.83044,325.61008,969.19781,166.14462,281.94159,1029.84509
140,1.158,54.79706,325.69803,963.6355,150.4258,325.8255,969.23364,166.21805,281.9733,1029.94922
141,1.167,54.74858,325.65393,963.70392,150.55934,325.74152,969.27283,166.21805,281.9733,1029.94922
142,1.175,54.74858,325.65393,963.70392,150.43663,325.74921,969.31982,166.24448,282.10907,1030.26025
143,1.183,54.86626,325.36475,963.76642,150.43663,325.74921,969.31982,166.24448,282.10907,1030.26025
144,1.192,54.71643,325.42432,963.94104,150.43663,325.74921,969.31982,166.19527,281.95844,1030.36914
145,1.2,54.69556,325.13477,964.12,150.43663,325.74921,969.31982,166.30807,281.83426,1030.55591
146,1.208,54.57788,325.42404,964.05737,150.53752,325.66904,969.45294,166.19527,281.95844,1030.36914
147,1.217,54.79053,325.33936,964.17523,150.53752,325.66904,969.45294,166.19527,281.95844,1030.36914
148,1.225,54.90823,325.05005,964.23779,150.43663,325.74921,969.31982,166.19527,281.95844,1030.36914
149,1.233,54.79053,325.33936,964.17523,150.43663,325.74921,969.31982,166.24448,282.10907,1030.26025
150,1.242,54.69556,325.13477,964.12,150.43663,325.74921,969.31982,166.19527,281.95844,1030.36914
151,1.25,54.72321,324.95441,963.95111,150.43663,325.74921,969.31982,166.19527,281.95844,1030.36914
152,1.258,54.72321,324.95441,963.95111,150.43663,325.74921,969.31982,166.3663,281.83237,1030.36633
153,1.267,54.72321,324.95441,963.95111,150.43663,325.74921,969.31982,166.12183,281.92673,1030.26489
154,1.275,54.72321,324.95441,963.95111,150.05835,325.51746,969.34027,166.33443,281.68314,1030.15503
155,1.283,54.57954,324.92175,963.51276,150.19257,325.42892,969.38452,166.21584,281.97476,1030.06995
156,1.292,54.50722,325.26279,963.37598,150.13426,325.32297,969.20258,166.35083,281.7485,1029.91272
157,1.3,54.50722,325.26279,963.37598,150.25496,325.65546,969.17981,166.28928,281.30905,1029.33691
158,1.308,54.50722,325.26279,963.37598,150.3979,325.79144,969.06171,165.95059,281.56326,1029.34814
159,1.317,54.33078,325.06305,963.1236,150.15379,325.47122,969.1264,166.09583,281.42538,1029.30798
160,1.325,54.33078,325.06305,963.1236,150.1386,325.79346,968.92432,166.09583,281.42538,1029.30798
161,1.333,54.27398,325.17914,963.00348,150.47218,325.80212,968.75378,165.95059,281.56326,1029.34814
162,1.342,54.53327,325.27765,962.83014,150.24338,326.04459,968.43585,165.825,281.53638,1029.14648
163,1.35,54.71716,325.36511,962.52875,150.59818,325.98788,968.25439,165.825,281.53638,1029.14648
164,1.358,54.62933,325.61023,962.27319,150.36925,326.09775,968.08618,165.99762,281.4274,1028.92798
165,1.367,54.50041,325.57767,962.16858,150.44664,326.30713,967.86377,166.1611,281.44818,1028.87292
166,1.375,54.66619,325.53333,961.93921,150.45451,326.21667,967.59229,166.02702,281.35904,1028.70923
167,1.383,54.8241,325.40082,961.79065,150.2563,326.35846,967.51398,165.88737,281.49536,1028.45776
168,1.392,54.8241,325.40082,961.79065,150.33989,326.42731,967.37244,165.97961,281.52432,1028.24902
169,1.4,54.58029,325.21994,961.5719,150.16287,326.16202,967.32373,165.86182,281.49265,1027.8606
170,1.408,54.43615,324.91861,961.27161,150.18292,326.0278,966.99487,165.89708,281.72266,1027.53076
171,1.417,53.89331,325.42523,960.8631,150.09303,326.2113,966.59033,165.93346,281.8266,1027.3999
172,1.425,53.85633,325.3085,960.73846,150.13857,326.29453,966.24304,165.96989,281.9306,1027.26892
173,1.433,53.56948,325.30145,960.62469,150.59258,326.81464,966.1994,165.89624,282.06519,1027.14014
174,1.442,53.71057,325.54865,960.49158,150.75891,326.52789,965.9198,165.96265,282.11932,1027.06433
175,1.45,53.71057,325.54865,960.49158,150.80928,326.25223,965.68042,165.96265,282.11932,1027.06433
176,1.458,53.71057,325.54865,960.49158,150.71901,325.78836,965.46436,165.79259,282.09857,1026.93823
177,1.467,53.71057,325.54865,960.49158,150.59702,326.13922,965.00714,166.15094,281.96375,1026.47278
178,1.475,53.71057,325.54865,960.49158,150.59702,326.13922,965.00714,166.05739,282.37567,1026.70728
179,1.483,53.71057,325.54865,960.49158,150.81827,326.4884,965.12067,166.32678,282.25027,1026.60266
180,1.492,53.62488,325.54507,960.29492,150.67906,326.38541,964.96368,165.99545,282.82727,1026.28723
181,1.5,53.27361,325.70593,960.17981,150.67906,326.38541,964.96368,166.45796,283.25302,1026.02881
182,1.508,53.32716,325.96909,960.05035,150.77431,326.58191,964.76556,166.45796,283.25302,1026.02881
183,1.517,53.77729,325.79791,960.12402,150.54761,326.43439,964.67072,166.50871,283.23346,1025.79456
184,1.525,53.45549,325.94147,959.78851,150.49548,326.5657,964.62885,166.45416,283.40234,1025.73206
185,1.533,53.35658,325.95184,959.8299,150.25157,326.24545,964.6933,166.45416,283.40234,1025.73206
186,1.542,53.45549,325.94147,959.78851,150.57426,326.48746,964.48279,166.60834,283.34097,1025.57263
187,1.55,53.28605,326.2674,959.83081,150.49693,326.77905,964.4834,166.45416,283.40234,1025.73206
188,1.558,53.45549,325.94147,959.78851,150.36261,326.86768,964.43927,166.45416,283.40234,1025.73206
189,1.567,53.28143,326.33258,959.76959,150.36261,326.86768,964.43927,166.45416,283.40234,1025.73206
190,1.575,53.09536,326.44739,959.75452,150.36261,326.86768,964.43927,166.60834,283.34097,1025.57263
191,1.583,53.09536,326.44739,959.75452,150.21901,326.62988,964.3338,166.60834,283.34097,1025.57263
192,1.592,53.2171,326.4252,959.71271,150.36261,326.86768,964.43927,166.45416,283.40234,1025.73206
193,1.6,53.09536,326.44739,959.75452,150.38132,326.94409,964.26221,166.31087,283.55023,1025.7865
194,1.608,53.0385,326.56357,959.63458,150.38132,326.94409,964.26221,166.31087,283.55023,1025.7865
195,1.617,53.2171,326.4252,959.71271,150.38132,326.94409,964.26221,166.46501,283.48889,1025.62708
196,1.625,53.1919,327.00571,959.50995,150.38132,326.94409,964.26221,166.46501,283.48889,1025.62708
197,1.633,53.3313,326.53134,959.32086,150.15463,326.79651,964.1673,166.46501,283.48889,1025.62708
198,1.642,53.3313,326.53134,959.32086,150.23772,326.7063,964.1568,166.46501,283.48889,1025.62708
199,1.65,53.28462,326.61905,959.25958,149.80489,326.84982,963.88867,166.33121,283.51727,1025.5437
200,1.658,53.22621,327.02634,959.14087,149.80489,326.84982,963.88867,166.30881,283.9762,1025.43066
201,1.667,53.22621,327.02634,959.14087,150.15984,327.22968,963.70294,166.30881,283.9762,1025.43066
202,1.675,53.22621,327.02634,959.14087,150.15984,327.22968,963.70294,166.49953,284.41962,1025.22375
