Frame#,Time,L.Forearm.x,L.Forearm.y,L.Forearm.z,L.Ulna.x,L.Ulna.y,L.Ulna.z,L.Radius.x,L.Radius.y,L.Radius.z
1,0,113.72034,50.30262,1052.26038,204.88901,86.16119,1058.31445,262.6478,-0.71643,1070.73682
2,0.008,113.52617,49.5291,1052.20374,205.12135,85.21651,1058.06824,263.03052,-1.36815,1070.13818
3,0.017,113.64603,49.08023,1052.01343,205.53905,85.25428,1058.36609,263.03052,-1.36815,1070.13818
4,0.025,114.42926,47.3162,1052.33923,205.42815,84.99323,1058.31079,263.03052,-1.36815,1070.13818
5,0.033,115.75137,45.76211,1052.55811,206.0802,84.16524,1058.26111,262.71762,-1.70682,1071.03955
6,0.042,116.01041,45.75557,1053.86902,206.49522,83.44317,1058.29211,263.44647,-2.21383,1071.38623
7,0.05,116.08982,45.70821,1054.0387,206.86797,82.91476,1058.7124,265.41702,-2.40068,1071.45691
8,0.058,116.45656,45.67271,1054.54211,206.91505,82.12325,1058.62207,265.02103,-3.0856,1072.07983
9,0.067,116.35226,45.71488,1055.10889,207.45125,80.854,1058.28906,265.29752,-5.12717,1071.8811
10,0.075,115.89397,44.68241,1055.50769,207.55095,80.63619,1058.31543,265.58386,-5.38801,1070.90332
11,0.083,116.13307,43.79852,1055.30872,207.62396,79.4437,1058.64624,265.27045,-7.81589,1071.07324
12,0.092,115.96641,42.92221,1054.48804,207.68681,78.81075,1059.1687,265.58484,-8.3553,1069.89746
13,0.1,115.73334,42.38142,1054.3418,207.5728,78.60814,1059.22449,266.53464,-9.61092,1069.42065
14,0.108,115.49525,41.65212,1054.1344,207.79889,76.97131,1059.35193,266.28674,-10.26741,1069.3092
15,0.117,115.55737,41.96289,1053.87354,207.92014,76.64119,1059.16016,266.35583,-11.21047,1069.3468
16,0.125,115.55737,41.96289,1053.87354,207.87999,75.72974,1058.71228,266.25763,-11.46289,1069.04651
17,0.133,115.75716,41.72897,1053.91199,207.91972,76.03069,1058.30945,266.25763,-11.46289,1069.04651
18,0.142,115.82673,41.71333,1054.12756,209.10182,76.58801,1057.72498,266.25763,-11.46289,1069.04651
19,0.15,116.07072,41.46655,1054.66992,209.11099,76.54395,1057.52698,266.54037,-11.42133,1069.33215
20,0.158,116.87347,40.65632,1054.89209,209.35217,76.68323,1057.51038,267.43057,-10.77962,1069.32996
21,0.167,118.19281,38.98183,1055.29907,209.61197,76.59743,1057.54321,268.38785,-10.61553,1068.87793
22,0.175,118.49694,38.64266,1055.43835,209.5685,75.9547,1057.52466,268.9444,-10.19374,1068.55591
23,0.183,118.31928,37.90202,1055.40332,209.65428,75.20276,1057.93225,269.22467,-10.2219,1067.8158
24,0.192,118.62762,37.35409,1054.81433,209.07036,74.68737,1057.91516,268.8829,-10.50724,1067.5459
25,0.2,118.10504,37.0522,1054.36011,208.79736,74.07887,1058.04712,268.97394,-11.01827,1067.7749
26,0.208,118.10504,37.0522,1054.36011,207.95895,73.62292,1057.42322,268.3363,-13.02112,1067.52148
27,0.217,117.63906,36.96667,1054.4679,207.72154,73.18001,1057.15552,268.32504,-13.01152,1067.5354
28,0.225,116.89218,36.94527,1054.30481,207.60335,73.1539,1056.56067,266.61423,-12.83291,1067.1991
29,0.233,116.36135,36.99468,1054.58215,206.85278,72.64068,1056.38672,265.95569,-14.18141,1066.55652
30,0.242,115.04565,37.02706,1054.50085,206.15527,72.21378,1056.11768,265.51733,-14.67732,1066.31653
31,0.25,113.01839,37.21019,1053.92932,205.76912,72.00386,1056.16516,264.9509,-15.08282,1066.08057
32,0.258,112.47279,37.36564,1053.69568,205.65041,71.36077,1056.44885,264.02744,-15.43424,1064.55249
33,0.267,111.83622,36.79237,1053.26147,204.35727,70.96069,1056.50391,263.65805,-15.44543,1064.11646
34,0.275,111.38309,35.64858,1052.62793,202.90265,70.12656,1057.92114,263.38934,-15.42666,1064.22839
35,0.283,110.53154,34.87765,1052.86743,202.33885,70.0322,1058.63245,262.89703,-14.99367,1064.57593
36,0.292,109.92365,33.85831,1053.55066,201.45976,70.69348,1059.18921,263.30264,-14.38108,1065.15503
37,0.3,109.98199,31.58683,1054.37366,200.93211,70.30466,1060.38477,263.53415,-14.98602,1066.28369
38,0.308,110.05643,31.11773,1055.93701,201.067,69.96632,1061.60229,263.8548,-14.74324,1067.27075
39,0.317,110.33797,30.42612,1057.03711,200.68698,70.01516,1062.42725,262.79517,-13.2934,1068.45593
40,0.325,109.32069,30.69493,1059.05823,200.77574,70.60226,1063.38989,262.9552,-12.41332,1070.41907
41,0.333,109.76731,29.58173,1059.96082,200.32436,70.92126,1064.47815,263.51584,-11.585,1071.70679
42,0.342,109.89692,29.80275,1061.22461,199.13329,70.99172,1065.13794,262.88248,-11.55512,1073.98193
43,0.35,109.35445,28.71017,1062.49646,198.77464,70.96309,1065.45496,262.81702,-11.72394,1074.24658
44,0.358,108.99306,28.74305,1063.18164,198.08308,70.9613,1066.02478,262.82321,-11.6793,1074.72607
45,0.367,108.21868,28.60502,1063.28601,197.77856,70.35347,1067.52747,262.16006,-12.39721,1075.16101
46,0.375,107.08622,28.66348,1063.80457,196.96877,69.81351,1069.28674,261.5018,-12.51386,1076.46863
47,0.383,106.66117,27.90217,1064.22656,196.34166,68.89693,1070.36121,260.81076,-12.69826,1076.97107
48,0.392,106.01579,26.89159,1064.26196,195.774,68.80123,1071.12231,260.49811,-12.28071,1077.55322
49,0.4,104.91975,28.58562,1064.12354,194.3772,68.13359,1072.16028,259.17581,-12.68582,1078.92346
50,0.408,103.87389,26.0335,1064.87927,193.27936,67.38062,1073.10925,258.58206,-12.271,1079.72473
51,0.417,103.29375,25.46096,1065.61206,192.6472,67.99075,1074.64246,257.62347,-12.93024,1080.35803
52,0.425,103.02739,24.97013,1066.22083,192.41096,67.69347,1075.29114,257.16483,-14.13108,1081.80713
53,0.433,102.9019,24.804,1066.33459,192.43657,67.64265,1075.91113,256.96405,-14.12064,1081.9281
54,0.442,102.15793,23.61744,1066.6532,191.67853,67.46761,1076.77295,255.64029,-15.19893,1083.08264
55,0.45,101.88646,23.52505,1067.27051,191.43434,66.92905,1077.40894,254.82014,-15.02385,1084.40039
56,0.458,101.75925,23.52261,1067.33728,190.65277,66.15799,1077.20996,254.76161,-14.59593,1084.85803
57,0.467,101.11923,22.59437,1067.16052,190.45114,66.07713,1077.34692,254.52689,-14.48913,1085.85339
58,0.475,100.61874,22.11922,1067.65076,190.45114,66.07713,1077.34692,254.19801,-14.61166,1086.12024
59,0.483,100.53265,22.38861,1068.38086,190.13844,65.21973,1077.38232,254.19801,-14.61166,1086.12024
60,0.492,100.29826,21.95757,1068.21338,189.80348,64.51385,1078.0105,254.19801,-14.61166,1086.12024
61,0.5,100.09936,21.46674,1068.06958,188.95569,64.42356,1078.6001,253.49863,-15.11331,1086.2063
62,0.508,100.18753,21.30577,1068.01721,189.03932,64.69421,1079.17896,253.49863,-15.11331,1086.2063
63,0.517,99.9496,21.63604,1068.22961,189.03932,64.69421,1079.17896,253.49863,-15.11331,1086.2063
64,0.525,99.96604,21.29538,1068.19507,189.03932,64.69421,1079.17896,253.49863,-15.11331,1086.2063
65,0.533,100.11181,21.90862,1068.51843,189.17094,64.68467,1079.15759,253.49863,-15.11331,1086.2063
66,0.542,100.3277,22.30887,1068.56189,189.17094,64.68467,1079.15759,254.05241,-14.51839,1086.26868
67,0.55,100.47491,22.36554,1068.6853,189.17094,64.68467,1079.15759,254.05241,-14.51839,1086.26868
68,0.558,100.58606,22.43203,1068.67346,189.08031,65.07289,1078.86865,254.38527,-14.46845,1086.20605
69,0.567,100.52448,22.69438,1069.04163,189.14371,67.2113,1078.97461,254.63499,-14.12249,1086.13684
70,0.575,100.58522,23.08457,1069.1554,188.8793,67.47796,1078.55798,254.40628,-14.04174,1086.30078
71,0.583,100.67105,23.46694,1069.32349,188.78618,67.93758,1077.92932,254.40628,-14.04174,1086.30078
72,0.592,100.40209,24.09598,1069.44788,188.55399,68.00679,1078.04077,253.53833,-13.237,1086.27942
73,0.6,99.76976,24.7643,1069.45679,188.33696,68.82397,1077.80701,252.98485,-12.93949,1086.52539
74,0.608,99.22049,25.68254,1069.62085,188.19133,68.92633,1077.72424,252.89085,-12.6061,1086.04736
75,0.617,97.73592,27.29052,1069.20313,188.1055,69.22794,1077.80884,252.46915,-12.14268,1086.0564
76,0.625,97.80685,28.45801,1069.03711,187.78139,69.58329,1077.74133,251.91437,-12.22621,1086.16077
77,0.633,97.57004,29.05218,1068.94727,187.25755,69.77545,1077.79053,250.57738,-11.28996,1087.47388
78,0.642,97.70859,29.39354,1068.82849,187.03506,70.01514,1077.68555,250.34505,-11.06365,1087.43701
79,0.65,97.32768,29.9175,1068.66235,186.77402,71.73525,1077.71313,249.75034,-10.33672,1087.64526
80,0.658,96.82794,30.69911,1068.71948,186.55931,72.83454,1078.44104,248.6658,-8.3461,1088.67566
81,0.667,96.4864,31.30448,1068.96509,185.80113,73.69469,1079.2406,247.91838,-8.19023,1089.12585
82,0.675,96.85041,32.20884,1069.02515,185.00858,74.79952,1079.26526,248.37912,-7.20111,1090.51904
83,0.683,95.79371,33.34207,1069.10962,185.05846,75.70705,1079.0603,248.39919,-6.1617,1091.00159
84,0.692,95.91817,34.54559,1069.31262,184.67119,76.25752,1079.11682,247.12888,-4.03187,1091.60974
85,0.7,95.55424,35.44872,1069.40979,184.29581,77.42598,1079.06445,248.08099,-2.78593,1091.91577
86,0.708,95.8424,36.82272,1069.58435,184.84827,79.59464,1078.47803,247.86392,-1.40041,1092.00342
87,0.717,96.43645,37.91988,1069.77441,184.69255,82.52354,1079.18982,248.57027,0.48658,1092.68494
88,0.725,96.45837,38.84339,1069.75012,185.06886,82.98451,1079.10962,249.46698,3.13497,1092.17444
89,0.733,96.98788,40.98976,1069.85974,185.20764,83.83701,1079.17896,247.99513,3.57647,1093.13574
90,0.742,96.93855,43.16165,1069.90259,185.21983,86.37585,1078.95496,248.10075,5.29464,1093.65125
91,0.75,96.93312,45.89823,1070.09717,185.88309,88.7555,1078.14893,247.07397,7.4662,1093.92883
92,0.758,96.76196,49.19719,1069.06348,186.20888,89.62628,1077.73828,247.0674,7.75892,1094.27124
93,0.767,96.58636,51.66951,1068.9176,185.88963,91.04041,1077.15295,246.25558,8.04834,1094.7052
94,0.775,96.30045,53.20729,1068.33887,186.02849,94.45148,1076.13428,244.55771,9.54131,1095.20447
95,0.783,95.98745,57.3829,1067.44263,186.1068,95.65751,1075.72192,244.47191,11.09405,1094.62036
96,0.792,95.34618,60.33924,1066.65796,186.73337,97.80412,1074.70923,242.78952,13.19041,1094.62439
97,0.8,95.6785,63.95111,1065.69824,186.48059,99.04893,1073.78711,238.89398,13.55171,1096.58386
98,0.808,93.9374,67.73179,1065.07471,187.62404,101.70602,1071.8175,238.44821,14.54181,1097.02686
99,0.817,93.61604,71.30744,1063.49915,186.80675,103.15694,1071.14697,235.37335,15.61687,1097.91016
100,0.825,92.35927,74.85384,1062.84229,186.70026,104.80856,1070.25183,233.48128,17.3809,1097.81677
101,0.833,91.90694,78.27731,1061.19629,186.15723,107.27676,1069.1167,231.51009,19.54712,1097.84497
102,0.842,91.20856,81.34119,1060.26904,185.0242,109.62312,1068.21252,228.64859,19.60351,1098.31909
103,0.85,89.84876,86.29355,1059.09875,184.2765,111.62659,1066.76721,227.02374,21.55656,1098.29395
104,0.858,89.40524,88.45103,1056.58594,183.88316,112.88264,1065.52368,224.84776,23.51107,1097.71021
105,0.867,87.87156,91.934,1055.07251,183.81905,115.14196,1063.1521,221.16013,25.14922,1097.70789
106,0.875,87.24187,96.32043,1052.99976,183.31531,116.55988,1062.35571,217.99789,26.83129,1097.11877
107,0.883,86.28859,99.04653,1050.91772,181.70844,117.92989,1059.03357,214.4913,27.97533,1096.73572
108,0.892,85.33633,103.50407,1048.6366,180.41963,120.34792,1058.20605,211.15306,29.61009,1096.26953
109,0.9,83.37174,107.91741,1046.70898,180.26558,122.88746,1055.74597,206.75468,31.17249,1095.35498
110,0.908,82.28368,111.80023,1044.99939,179.71033,124.2163,1052.94788,203.23997,33.08253,1094.68201
111,0.917,80.79804,115.75791,1042.80823,177.99672,125.5047,1050.89417,199.65294,35.32156,1092.70764
112,0.925,79.23371,118.58041,1039.97815,176.90477,128.16641,1048.86108,195.85406,36.30251,1091.93677
113,0.933,77.36573,122.35163,1038.16809,175.04639,129.83974,1046.9541,191.41733,37.48187,1089.5769
114,0.942,76.60144,124.86597,1034.20093,172.63432,130.36234,1044.42639,187.9084,39.60909,1087.11328
115,0.95,74.23399,128.35881,1032.67969,170.94032,130.51498,1041.7616,183.62643,40.24086,1085.6106
116,0.958,72.72395,130.89601,1029.0376,168.19226,132.89209,1039.82581,179.80849,42.34158,1084.01868
117,0.967,70.32025,134.81845,1026.31287,166.0657,133.49809,1036.7301,174.79379,44.33196,1082.25073
118,0.975,68.44492,137.72069,1023.72693,163.67281,135.24794,1034.75403,168.88187,46.13821,1082.32153
119,0.983,66.09915,141.64932,1020.021,159.80217,137.04283,1031.54541,164.03879,45.92144,1077.84509
120,0.992,62.90366,144.88773,1016.88434,156.75255,138.20845,1029.81909,158.25623,45.51812,1074.66553
121,1,60.04691,147.57838,1013.33606,152.9243,137.83536,1026.44348,151.94925,44.70564,1069.06726
122,1.008,57.11159,151.28471,1008.82831,148.9706,140.67975,1023.69177,144.63713,44.11005,1065.46802
123,1.017,53.57909,153.24979,1003.50647,144.8027,142.29617,1020.5788,139.51826,46.31702,1061.08923
124,1.025,50.22588,156.09167,997.95123,140.40454,143.22218,1016.62323,133.5368,47.63418,1058.00012
125,1.033,47.08381,159.16309,992.82458,137.20586,145.17793,1013.15625,128.03899,50.67804,1054.43298
126,1.042,43.93981,160.84778,987.98071,133.0152,147.92824,1008.89801,123.65964,51.14065,1051.41675
127,1.05,40.67046,165.11124,983.44385,130.42032,148.63257,1004.85474,118.78826,53.41566,1048.21472
128,1.058,38.68115,167.29958,978.27478,127.9007,150.64171,1002.20947,115.81927,55.40394,1045.3728
129,1.067,36.46837,169.11845,974.84296,125.78754,152.67499,998.25269,112.23648,56.87357,1042.9364
130,1.075,35.06802,170.84399,971.66901,124.33988,153.23581,995.4668,110.20448,59.09349,1041.24255
131,1.083,33.73027,172.94069,970.00592,122.89722,154.70781,992.48871,108.3792,60.95147,1038.36475
132,1.092,32.14591,174.56592,967.74548,121.27168,154.64354,990.15601,105.76238,62.26185,1036.95105
133,1.1,31.58529,174.7549,966.88214,120.15653,155.80501,987.77313,105.41415,63.03832,1035.56238
134,1.108,31.05499,175.56355,965.64948,119.16291,155.85085,985.5318,102.33305,64.32017,1034.80225
135,1.117,30.56978,176.53038,965.09003,117.82919,156.81772,984.23108,98.76222,65.48222,1033.60144
136,1.125,29.63544,177.76477,964.52368,115.7976,158.06329,983.49231,96.48853,66.51523,1032.48523
137,1.133,27.88643,178.84845,963.47559,113.3959,158.03738,981.98047,94.11188,68.30347,1031.47913
138,1.142,26.05502,179.59369,962.74792,111.04057,158.66333,980.57745,89.35532,69.90518,1030.52588
139,1.15,22.94079,181.81161,962.1391,108.69953,158.70419,980.15045,84.9278,71.09473,1030.6582
140,1.158,21.1315,182.87939,961.33142,106.18504,159.03136,980.00507,78.78135,71.06151,1029.50488
141,1.167,17.98453,185.19778,960.65686,102.56663,159.58943,979.13794,72.99259,72.76487,1030.32898
142,1.175,15.99467,186.29961,959.57306,98.39356,158.79233,979.87683,67.59177,74.08579,1031.18311
143,1.183,12.27495,189.07214,959.71619,95.83074,159.90887,980.12671,62.2257,75.83245,1031.21936
144,1.192,9.46289,190.18187,959.12909,92.50801,160.01967,981.51019,56.19578,75.7903,1032.06006
145,1.2,6.94944,192.64819,959.88318,88.58473,159.37987,982.46875,50.46408,78.58833,1032.18103
146,1.208,4.59012,194.70303,959.97015,86.03115,160.34074,983.02679,46.91884,80.62901,1033.32544
147,1.217,3.07272,196.05627,960.4397,83.47179,160.44073,983.46283,42.25542,81.72204,1034.95313
148,1.225,0.10376,197.66222,961.29315,81.1915,161.63031,984.15656,38.41016,85.37022,1036.38428
149,1.233,-0.84084,199.64241,961.67651,78.83154,161.01711,984.20819,34.80225,87.32687,1037.18469
150,1.242,-1.83235,200.14102,961.40851,75.74858,160.99454,984.37427,30.39847,88.34991,1039.40747
151,1.25,-3.4098,201.68553,961.85266,73.88174,160.8358,984.1557,27.39451,89.3353,1039.69238
152,1.258,-4.99081,202.52327,962.5885,72.56884,162.22293,986.20367,24.99569,90.73973,1040.65894
153,1.267,-6.4794,204.0276,961.91302,69.99162,162.32298,985.38367,21.59707,92.42181,1041.01563
154,1.275,-7.28534,204.5267,962.039,68.42554,161.57831,985.35687,20.24302,94.22288,1041.50818
155,1.283,-8.61076,206.14285,962.82214,66.4881,161.67036,984.79584,16.76152,95.29617,1041.7926
156,1.292,-10.24452,207.09775,963.2724,65.18932,162.65993,985.54559,14.41226,96.63463,1041.64905
157,1.3,-10.17621,208.71141,963.08997,63.94912,162.18683,986.29779,11.81884,97.49241,1041.57654
158,1.308,-10.72616,208.95349,962.86584,62.67506,163.28815,985.70721,9.32931,98.23904,1043.04785
159,1.317,-11.46424,209.44383,962.67596,61.39853,163.02232,985.67572,7.78073,99.08405,1042.73157
160,1.325,-12.42027,210.59135,963.18457,60.50304,163.11418,985.89606,5.97829,100.52738,1042.4563
161,1.333,-13.39596,211.43379,962.66571,58.61097,160.41904,985.56128,4.57472,101.90518,1042.48303
162,1.342,-13.84372,211.97226,963.08417,56.76907,161.84911,985.54242,3.345,102.33161,1042.77527
163,1.35,-14.19804,212.50534,962.94696,55.96723,161.92725,985.19934,-0.65284,103.88153,1042.48706
164,1.358,-14.96483,213.4724,962.90131,55.19978,162.47839,984.6615,-3.09435,103.6515,1041.98401
165,1.367,-16.10403,213.2227,962.9624,54.33588,161.56619,984.55377,-4.19316,103.11855,1041.72546
166,1.375,-16.75785,213.03224,962.7749,52.86019,161.32463,984.14264,-5.58452,103.32922,1040.73645
167,1.383,-17.4071,213.26704,961.69116,51.30914,161.70015,984.39093,-6.95845,103.95898,1039.71375
168,1.392,-18.14621,213.48207,961.49194,50.58586,161.64284,983.73212,-8.85864,103.36494,1038.7948
169,1.4,-18.57255,213.2491,960.63458,49.32339,161.63333,983.70361,-10.401,104.62946,1038.65625
170,1.408,-18.55534,214.17856,959.97839,48.05327,161.58385,983.39081,-11.15413,105.13248,1038.34583
171,1.417,-18.47616,214.14542,959.48346,47.36334,160.97064,982.99872,-11.70309,105.79688,1038.03992
172,1.425,-18.91463,214.03088,959.07898,46.18202,160.70901,981.89215,-13.13554,105.45544,1037.69324
173,1.433,-19.16188,213.61127,958.78107,45.90051,160.27211,981.39056,-14.80876,106.99624,1037.69177
174,1.442,-19.92507,213.62589,958.56653,45.35848,159.63716,980.42432,-15.59338,106.88594,1036.92322
175,1.45,-20.38559,214.1373,958.35162,44.6381,159.23831,980.25452,-15.95573,107.27184,1036.47327
176,1.458,-20.80222,214.04149,957.88928,44.37709,159.05167,979.72644,-18.5848,108.17976,1035.71704
177,1.467,-21.07585,214.64468,958.25372,43.65132,158.74895,979.5473,-19.46608,107.91045,1035.02002
178,1.475,-21.24089,214.40727,957.69379,42.63602,158.58943,979.03973,-21.04895,107.26941,1034.27368
179,1.483,-21.1997,213.79639,957.18805,41.97056,158.53552,978.71033,-21.89237,106.63892,1033.46863
180,1.492,-21.01442,213.4133,956.73987,41.17058,157.1124,978.00073,-22.94032,106.92004,1033.12976
181,1.5,-21.10383,213.40169,956.63672,40.38351,156.93864,977.05011,-23.78703,107.5831,1032.9967
182,1.508,-21.67381,211.8101,955.84149,39.69863,156.36145,976.7699,-24.68627,108.07477,1033.10425
183,1.517,-21.3434,213.45522,956.83899,39.59828,156.43497,976.49451,-24.9416,108.13957,1032.92102
184,1.525,-22.7111,212.14609,955.91895,38.26051,157.0743,975.69537,-27.63336,108.91781,1031.64966
185,1.533,-22.99475,213.46132,956.85046,36.88365,156.68599,975.33661,-29.47251,107.78933,1029.48474
186,1.542,-23.67306,213.39912,956.44202,35.83843,156.12883,974.87335,-32.59324,109.33933,1027.03894
187,1.55,-24.24977,213.0265,956.12225,34.2868,155.47299,973.73901,-35.48024,108.53056,1024.52979
188,1.558,-25.19759,211.92021,955.81897,32.05836,155.04326,973.22125,-38.48563,107.7746,1022.89636
189,1.567,-26.33934,211.93295,954.75775,30.6033,155.272,971.9762,-40.44129,109.07413,1021.84222
190,1.575,-27.35016,211.84956,954.12854,29.34645,156.47264,970.73376,-43.14533,110.56646,1020.82556
191,1.583,-28.30967,212.82768,953.1665,27.77989,156.5712,969.92749,-44.55832,109.2476,1019.4007
192,1.592,-29.37996,213.35652,952.29443,26.54365,156.43562,968.90881,-45.96506,109.95388,1018.32043
193,1.6,-28.57038,214.2312,950.75354,26.10373,156.69685,967.51501,-47.55375,110.93018,1017.99274
194,1.608,-29.06315,215.38248,950.45856,25.49723,157.1088,966.88965,-48.17266,112.12295,1017.19458
195,1.617,-29.18579,215.63875,950.12744,25.49774,157.53789,966.1723,-48.54851,112.27267,1016.78766
196,1.625,-29.16467,215.79434,949.95123,25.78538,157.53334,965.78302,-48.33095,112.51313,1016.84125
197,1.633,-28.96032,215.52234,950.26306,25.78808,157.36972,965.6239,-48.11796,112.51817,1017.24713
198,1.642,-28.53086,215.36737,950.03534,25.87746,156.78281,965.58209,-47.998,112.59307,1016.80115
199,1.65,-28.33319,215.34076,950.89594,25.87746,156.78281,965.58209,-48.00792,112.05058,1017.23279
200,1.658,-28.1222,215.2084,950.97925,26.19587,156.67537,965.40387,-47.80944,111.70498,1016.5921
201,1.667,-28.03175,213.83305,950.61029,25.85785,156.43852,965.19507,-48.40577,110.0728,1015.84015
202,1.675,-28.28421,213.46246,950.58752,25.70947,155.23123,965.4538,-48.40577,110.0728,1015.84015
203,1.683,-28.2201,212.83981,950.58893,25.54439,154.84454,965.56909,-48.80508,110.1227,1015.38257
