Frame#,Time,R.Forearm.x,R.Forearm.y,R.Forearm.z,R.Ulna.x,R.Ulna.y,R.Ulna.z,R.Radius.x,R.Radius.y,R.Radius.z
1,0,-172.98119,-287.52954,591.36658,-218.80945,-310.03735,500.86307,-126.75477,-305.20297,474.74728
2,0.008,-173.07431,-287.24475,591.67719,-218.80945,-310.03735,500.86307,-126.75477,-305.20297,474.74728
3,0.017,-172.98119,-287.52954,591.36658,-219.3058,-309.60977,500.46497,-126.75477,-305.20297,474.74728
4,0.025,-173.07431,-287.24475,591.67719,-219.42374,-309.71133,500.49896,-126.75477,-305.20297,474.74728
5,0.033,-172.98119,-287.52954,591.36658,-219.6069,-309.8335,500.46765,-126.75477,-305.20297,474.74728
6,0.042,-173.16365,-287.45908,591.51038,-219.68213,-310.01163,500.57816,-126.75477,-305.20297,474.74728
7,0.05,-173.1653,-287.46677,591.27667,-219.68263,-310.32358,500.86136,-127.11591,-305.01047,474.54453
8,0.058,-173.34776,-287.3963,591.42053,-220.47021,-310.25629,500.29578,-127.08364,-305.15112,474.42993
9,0.067,-173.34776,-287.3963,591.42053,-220.0808,-310.55609,500.681,-127.08364,-305.15112,474.42993
10,0.075,-172.98119,-287.52954,591.36658,-220.12682,-310.60361,500.58688,-127.08364,-305.15112,474.42993
11,0.083,-173.1653,-287.46677,591.27667,-220.12682,-310.60361,500.58688,-127.22169,-305.15134,474.27335
12,0.092,-173.1653,-287.46677,591.27667,-220.61134,-310.06647,500.14359,-127.94581,-305.29535,474.22217
13,0.1,-173.23792,-287.63571,591.49994,-220.12682,-310.60361,500.58688,-127.22169,-305.15134,474.27335
14,0.108,-172.93581,-288.25406,591.43799,-220.12682,-310.60361,500.58688,-127.94581,-305.29535,474.22217
15,0.117,-173.00845,-288.42297,591.66113,-220.83948,-310.61871,500.42914,-127.94581,-305.29535,474.22217
16,0.125,-173.20944,-288.91849,591.49573,-220.98059,-310.42886,500.27695,-127.94581,-305.29535,474.22217
17,0.133,-173.22453,-288.67661,591.74316,-220.50343,-310.98111,500.84283,-127.94581,-305.29535,474.22217
18,0.142,-173.30881,-288.51541,591.67419,-220.50343,-310.98111,500.84283,-127.94581,-305.29535,474.22217
19,0.15,-173.69897,-288.60175,591.78271,-220.75194,-310.83838,500.63492,-127.94581,-305.29535,474.22217
20,0.158,-173.69897,-288.60175,591.78271,-220.50343,-310.98111,500.84283,-127.94581,-305.29535,474.22217
21,0.167,-173.46172,-288.34958,591.92194,-220.50343,-310.98111,500.84283,-127.94581,-305.29535,474.22217
22,0.175,-173.27766,-288.41226,592.01178,-220.75194,-310.83838,500.63492,-127.94581,-305.29535,474.22217
23,0.183,-173.46172,-288.34958,591.92194,-220.45743,-310.93362,500.93692,-127.94581,-305.29535,474.22217
24,0.192,-173.22816,-288.67389,591.95959,-220.67885,-310.66907,501.15848,-127.94581,-305.29535,474.22217
25,0.2,-173.00679,-288.41522,591.89478,-220.84645,-310.73181,501.02939,-127.94581,-305.29535,474.22217
26,0.208,-173.00679,-288.41522,591.89478,-220.63676,-311.25763,501.10126,-128.23001,-305.67264,474.47385
27,0.217,-173.00679,-288.41522,591.89478,-220.63676,-311.25763,501.10126,-128.09196,-305.67245,474.63043
28,0.225,-172.82442,-288.48566,591.75098,-220.63676,-311.25763,501.10126,-128.09196,-305.67245,474.63043
29,0.233,-172.82442,-288.48566,591.75098,-220.29764,-311.61859,501.23883,-127.76367,-305.85974,474.80145
30,0.242,-172.82442,-288.48566,591.75098,-220.16034,-311.57925,501.43829,-127.76367,-305.85974,474.80145
31,0.25,-172.82442,-288.48566,591.75098,-219.96146,-311.67044,501.58673,-127.76367,-305.85974,474.80145
32,0.258,-172.78543,-288.74289,591.72174,-219.96146,-311.67044,501.58673,-127.76367,-305.85974,474.80145
33,0.267,-172.68221,-288.86127,591.70337,-219.7972,-311.7619,501.67227,-127.76367,-305.85974,474.80145
34,0.275,-172.71939,-288.61676,591.73145,-219.76318,-311.87527,501.59933,-127.76367,-305.85974,474.80145
35,0.283,-172.71939,-288.61676,591.73145,-219.7972,-311.7619,501.67227,-126.6776,-305.99683,474.96118
36,0.292,-172.55785,-288.64627,591.82941,-219.85913,-312.07727,501.49701,-126.6776,-305.99683,474.96118
37,0.3,-172.49002,-288.98053,592.1123,-219.97653,-311.7717,501.43558,-126.6776,-305.99683,474.96118
38,0.308,-172.49002,-288.98053,592.1123,-219.62125,-312.04996,501.58157,-126.6776,-305.99683,474.96118
39,0.317,-172.49002,-288.98053,592.1123,-219.68547,-311.66135,501.27228,-126.6776,-305.99683,474.96118
40,0.325,-172.49002,-288.98053,592.1123,-219.20908,-311.78101,501.2493,-126.6776,-305.99683,474.96118
41,0.333,-172.49002,-288.98053,592.1123,-218.53517,-311.46173,501.15375,-126.6776,-305.99683,474.96118
42,0.342,-172.04239,-288.80902,592.16888,-218.13651,-311.22928,501.33423,-126.39336,-305.61957,474.70956
43,0.35,-171.63539,-288.91443,592.09839,-218.1451,-311.12241,501.4277,-126.6776,-305.99683,474.96118
44,0.358,-171.75183,-288.73288,592.03815,-217.92276,-311.09283,501.36612,-126.6776,-305.99683,474.96118
45,0.367,-171.67332,-288.68524,592.13184,-217.92276,-311.09283,501.36612,-126.39336,-305.61957,474.70956
46,0.375,-171.67332,-288.68524,592.13184,-217.93135,-310.98593,501.45959,-126.39336,-305.61957,474.70956
47,0.383,-171.67332,-288.68524,592.13184,-217.92276,-311.09283,501.36612,-126.39336,-305.61957,474.70956
48,0.392,-171.67332,-288.68524,592.13184,-217.40927,-311.4787,501.28452,-126.1265,-305.71326,474.91174
49,0.4,-171.67332,-288.68524,592.13184,-217.40927,-311.4787,501.28452,-125.37918,-305.77017,474.76773
50,0.408,-171.67332,-288.68524,592.13184,-217.15868,-311.71082,501.50153,-125.37918,-305.77017,474.76773
51,0.417,-171.46277,-288.9285,592.14362,-217.15868,-311.71082,501.50153,-125.646,-305.67654,474.56555
52,0.425,-171.46277,-288.9285,592.14362,-217.40927,-311.4787,501.28452,-125.37918,-305.77017,474.76773
53,0.433,-171.46277,-288.9285,592.14362,-217.40927,-311.4787,501.28452,-125.27009,-305.99973,474.535
54,0.442,-171.54128,-288.97614,592.04993,-217.40927,-311.4787,501.28452,-125.37918,-305.77017,474.76773
55,0.45,-171.45242,-289.02969,592.07611,-217.40927,-311.4787,501.28452,-125.66341,-306.14752,475.01941
56,0.458,-171.45242,-289.02969,592.07611,-217.40927,-311.4787,501.28452,-125.27009,-305.99973,474.535
57,0.467,-171.45242,-289.02969,592.07611,-217.40927,-311.4787,501.28452,-125.66341,-306.14752,475.01941
58,0.475,-171.91029,-289.09991,592.08698,-217.40927,-311.4787,501.28452,-126.41076,-306.09048,475.16336
59,0.483,-171.90616,-289.21472,592.00482,-217.40927,-311.4787,501.28452,-126.41076,-306.09048,475.16336
60,0.492,-172.49002,-288.98053,592.1123,-218.39919,-312.2251,501.32822,-126.50131,-306.4115,475.55371
61,0.5,-172.27522,-289.33862,592.04199,-218.39919,-312.2251,501.32822,-126.50131,-306.4115,475.55371
62,0.508,-172.48589,-289.09531,592.03015,-219.36588,-312.0574,501.38507,-126.76811,-306.3179,475.35162
63,0.517,-172.25969,-289.76736,592.2735,-219.36588,-312.0574,501.38507,-126.38744,-306.86539,475.92313
64,0.525,-172.48589,-289.09531,592.03015,-219.47234,-312.22018,501.31085,-126.50347,-307.15936,475.91702
65,0.533,-173.002,-289.56265,592.12042,-219.47234,-312.22018,501.31085,-126.78387,-306.87268,476.22507
66,0.542,-172.99786,-289.67737,592.03827,-219.72115,-312.45486,501.27817,-126.78387,-306.87268,476.22507
67,0.55,-173.25766,-289.66589,592.15845,-220.00211,-312.47052,501.33527,-127.09435,-306.92758,475.06821
68,0.558,-173.40271,-289.92236,592.13458,-220.00211,-312.47052,501.33527,-127.56219,-307.25577,475.95175
69,0.567,-173.57803,-289.88086,592.0354,-220.00211,-312.47052,501.33527,-127.86906,-307.82755,476.29385
70,0.575,-173.34763,-290.66779,592.19659,-220.05759,-312.49023,501.2579,-127.86906,-307.82755,476.29385
71,0.583,-173.61879,-291.03619,592.27002,-220.18785,-312.98752,500.96384,-127.86906,-307.82755,476.29385
72,0.592,-173.82065,-291.3176,592.74341,-220.3848,-312.61472,500.85672,-128.20816,-308.47269,475.59079
73,0.6,-173.94394,-290.46255,592.37872,-220.31075,-312.9386,500.88553,-128.49843,-309.25824,476.52036
74,0.608,-173.82065,-291.3176,592.74341,-220.31075,-312.9386,500.88553,-128.65944,-309.02429,476.58939
75,0.617,-174.01398,-291.25583,592.88385,-220.95975,-313.25949,501.3287,-128.99434,-308.71713,475.49356
76,0.625,-174.25116,-291.46219,592.7868,-221.60435,-312.88071,501.37057,-129.55821,-309.05249,475.3555
77,0.633,-174.58591,-292.1579,592.56409,-221.42067,-313.04453,501.57007,-129.45761,-309.31314,476.23584
78,0.642,-174.58591,-292.1579,592.56409,-221.42067,-313.04453,501.57007,-129.85257,-309.4566,476.14554
79,0.65,-175.01807,-292.29092,592.43738,-221.60435,-312.88071,501.37057,-129.85257,-309.4566,476.14554
80,0.658,-175.01807,-292.29092,592.43738,-221.63641,-312.90735,501.71036,-129.85257,-309.4566,476.14554
81,0.667,-175.16743,-292.42331,592.26636,-221.63641,-312.90735,501.71036,-130.12515,-309.64108,476.00159
82,0.675,-175.16743,-292.42331,592.26636,-222.31961,-313.17194,501.36929,-130.12515,-309.64108,476.00159
83,0.683,-175.44112,-292.5119,592.26178,-222.65656,-313.01019,501.11255,-130.94144,-309.15839,475.59616
84,0.692,-175.30038,-292.63712,592.24652,-222.91043,-312.91245,501.23276,-130.94144,-309.15839,475.59616
85,0.7,-175.65471,-292.74051,592.29584,-223.0192,-313.2886,501.09662,-129.71863,-310.6026,476.23965
86,0.708,-175.79546,-292.6153,592.3111,-223.22017,-313.81982,501.46078,-130.18433,-310.67249,476.25745
87,0.717,-176.27957,-293.11685,592.48419,-223.39354,-313.94739,501.42429,-130.18433,-310.67249,476.25745
88,0.725,-176.4203,-292.99167,592.49945,-223.68071,-313.8082,501.20496,-130.65002,-310.74249,476.27539
89,0.733,-176.27957,-293.11685,592.48419,-223.93912,-313.86737,501.25281,-130.94937,-310.62918,476.11371
90,0.742,-177.09798,-292.66992,592.39984,-223.27272,-313.94876,501.57254,-130.94937,-310.62918,476.11371
91,0.75,-177.38531,-293.00092,592.35687,-223.93912,-313.86737,501.25281,-130.94937,-310.62918,476.11371
92,0.758,-177.38531,-293.00092,592.35687,-224.21989,-313.88348,501.31015,-130.94937,-310.62918,476.11371
93,0.767,-177.38531,-293.00092,592.35687,-224.21989,-313.88348,501.31015,-130.94937,-310.62918,476.11371
94,0.775,-177.57193,-292.91318,592.30811,-224.43915,-313.68454,501.1311,-130.94937,-310.62918,476.11371
95,0.783,-177.73343,-293.06738,592.17578,-224.7746,-313.90277,500.96445,-130.94937,-310.62918,476.11371
96,0.792,-178.006,-293.23306,592.12836,-225.55838,-314.21686,500.90378,-131.22032,-310.81723,475.97302
97,0.8,-178.006,-293.23306,592.12836,-225.68776,-314.3075,501.05298,-131.3078,-310.67215,475.24539
98,0.808,-178.006,-293.23306,592.12836,-225.55838,-314.21686,500.90378,-131.67886,-310.83328,475.15176
99,0.817,-178.02399,-293.20425,591.8858,-225.68776,-314.3075,501.05298,-131.67886,-310.83328,475.15176
100,0.825,-178.02399,-293.20425,591.8858,-225.55838,-314.21686,500.90378,-133.12338,-309.09717,474.34534
101,0.833,-178.23953,-293.37796,591.80615,-225.55838,-314.21686,500.90378,-133.12338,-309.09717,474.34534
102,0.842,-178.23451,-293.3201,591.30579,-225.55838,-314.21686,500.90378,-133.12338,-309.09717,474.34534
103,0.85,-178.02399,-293.20425,591.8858,-225.55838,-314.21686,500.90378,-132.69014,-309.80887,474.32587
104,0.858,-178.23953,-293.37796,591.80615,-225.36159,-313.83142,500.50864,-133.12338,-309.09717,474.34534
105,0.867,-178.23451,-293.3201,591.30579,-225.58157,-313.68735,500.31146,-131.65288,-311.31769,474.92361
106,0.875,-178.23451,-293.3201,591.30579,-225.55278,-313.34314,499.95602,-133.42659,-308.9624,474.14725
107,0.883,-178.23451,-293.3201,591.30579,-225.55278,-313.34314,499.95602,-132.99327,-309.67416,474.12784
108,0.892,-178.23451,-293.3201,591.30579,-225.55278,-313.34314,499.95602,-133.42659,-308.9624,474.14725
109,0.9,-178.01892,-293.14636,591.3855,-225.55278,-313.34314,499.95602,-133.42659,-308.9624,474.14725
110,0.908,-177.99512,-293.08408,590.89648,-225.84047,-312.62079,499.72293,-133.03146,-308.81821,474.23727
111,0.917,-178.17256,-292.98074,590.8678,-225.6646,-312.72311,499.74374,-133.03146,-308.81821,474.23727
112,0.925,-177.99512,-293.08408,590.89648,-225.67465,-312.38181,499.59894,-132.72829,-308.95297,474.43533
113,0.933,-177.58664,-292.66818,590.52405,-225.22791,-311.96481,499.60425,-133.03146,-308.81821,474.23727
114,0.942,-177.63219,-292.39438,590.2804,-225.22791,-311.96481,499.60425,-132.45563,-308.7681,474.57935
115,0.95,-177.57742,-292.2952,590.06158,-225.22791,-311.96481,499.60425,-132.75879,-308.63339,474.38132
116,0.958,-177.53929,-292.01794,590.11255,-224.25972,-311.99356,499.89352,-132.45563,-308.7681,474.57935
117,0.967,-177.3618,-292.12137,590.1413,-223.99757,-312.14725,499.59521,-132.45563,-308.7681,474.57935
118,0.975,-177.53929,-292.01794,590.11255,-223.99757,-312.14725,499.59521,-132.45563,-308.7681,474.57935
119,0.983,-177.53929,-292.01794,590.11255,-223.78171,-312.28436,499.45471,-132.45563,-308.7681,474.57935
120,0.992,-177.53929,-292.01794,590.11255,-223.57689,-312.20502,499.65411,-132.45563,-308.7681,474.57935
121,1,-177.53929,-292.01794,590.11255,-223.65353,-311.50958,498.96194,-132.45563,-308.7681,474.57935
122,1.008,-177.53929,-292.01794,590.11255,-223.85823,-311.5889,498.76257,-131.92969,-308.73679,474.54602
123,1.017,-177.53929,-292.01794,590.11255,-223.65353,-311.50958,498.96194,-132.23282,-308.60208,474.34802
124,1.025,-177.75493,-292.1918,590.03284,-224.02855,-312.02719,499.0661,-131.92969,-308.73679,474.54602
125,1.033,-177.53929,-292.01794,590.11255,-223.85823,-311.5889,498.76257,-132.23282,-308.60208,474.34802
126,1.042,-177.71007,-292.31793,589.9519,-223.85823,-311.5889,498.76257,-132.23282,-308.60208,474.34802
127,1.05,-177.53929,-292.01794,590.11255,-224.0446,-311.44543,498.70389,-132.23282,-308.60208,474.34802
128,1.058,-177.75493,-292.1918,590.03284,-223.85823,-311.5889,498.76257,-132.23282,-308.60208,474.34802
129,1.067,-177.53929,-292.01794,590.11255,-223.85823,-311.5889,498.76257,-132.23282,-308.60208,474.34802
130,1.075,-177.6461,-292.04745,590.0144,-224.0446,-311.44543,498.70389,-132.62866,-308.3219,474.20148
131,1.083,-177.6461,-292.04745,590.0144,-224.0446,-311.44543,498.70389,-132.23282,-308.60208,474.34802
132,1.092,-177.79401,-291.99887,589.95746,-224.0446,-311.44543,498.70389,-132.35976,-308.50827,473.99088
133,1.1,-178.00963,-292.1727,589.87775,-224.65179,-311.27045,498.33374,-132.35976,-308.50827,473.99088
134,1.108,-177.86172,-292.22128,589.93469,-225.1032,-310.88004,498.12885,-132.35976,-308.50827,473.99088
135,1.117,-178.00641,-292.2139,589.84363,-224.55006,-311.00839,498.44165,-132.57002,-308.82446,473.71402
136,1.125,-178.15462,-292.16193,589.78955,-224.55006,-311.00839,498.44165,-133.31812,-308.7677,473.858
137,1.133,-178.45395,-291.93768,589.64801,-225.1032,-310.88004,498.12885,-133.31812,-308.7677,473.858
138,1.142,-178.6106,-292.07816,589.41504,-225.2446,-310.73053,498.13245,-133.31812,-308.7677,473.858
139,1.15,-178.15462,-292.16193,589.78955,-225.2446,-310.73053,498.13245,-133.42735,-308.53799,474.09067
140,1.158,-178.59888,-291.92688,589.55975,-225.2446,-310.73053,498.13245,-133.31812,-308.7677,473.858
141,1.167,-178.59888,-291.92688,589.55975,-226.00267,-309.85342,498.21094,-133.42735,-308.53799,474.09067
142,1.175,-178.59888,-291.92688,589.55975,-226.00267,-309.85342,498.21094,-133.31812,-308.7677,473.858
143,1.183,-178.6106,-292.07816,589.41504,-225.09528,-310.8472,498.04959,-133.31812,-308.7677,473.858
144,1.192,-178.6106,-292.07816,589.41504,-224.98637,-311.19199,498.3031,-133.31812,-308.7677,473.858
145,1.2,-178.6106,-292.07816,589.41504,-223.74832,-312.0528,498.54565,-133.31812,-308.7677,473.858
146,1.208,-178.6106,-292.07816,589.41504,-224.70251,-310.84933,498.43353,-133.7973,-308.89771,473.79178
147,1.217,-178.6106,-292.07816,589.41504,-225.87614,-311.0896,498.39343,-133.7973,-308.89771,473.79178
148,1.225,-178.87502,-292.29291,589.05365,-225.03517,-310.9169,498.47577,-133.7973,-308.89771,473.79178
149,1.233,-178.87502,-292.29291,589.05365,-225.85884,-311.54865,498.36694,-133.7973,-308.89771,473.79178
150,1.242,-179.09364,-291.64072,588.93744,-226.04968,-311.371,498.52109,-133.7973,-308.89771,473.79178
151,1.25,-179.10666,-291.80365,589.12616,-226.54585,-311.64767,499.14243,-133.7973,-308.89771,473.79178
152,1.258,-179.10666,-291.80365,589.12616,-226.9445,-311.87839,498.96185,-133.7973,-308.89771,473.79178
153,1.267,-179.097,-291.96631,588.97034,-226.881,-312.26883,498.51483,-133.7973,-308.89771,473.79178
154,1.275,-179.32497,-291.98257,588.50623,-227.17508,-312.24924,498.01468,-134.04642,-308.57544,472.10339
155,1.283,-179.76175,-292.25168,588.55621,-227.73581,-312.21835,497.95953,-134.07852,-308.98135,472.29361
156,1.292,-180.97946,-291.2175,588.04327,-227.73314,-312.46869,498.18732,-134.21541,-309.22107,471.40469
157,1.3,-180.71101,-291.50421,588.12073,-228.23625,-312.14078,497.39825,-134.5938,-309.01999,470.91861
158,1.308,-180.9216,-291.35587,587.76123,-228.59134,-311.8595,497.16159,-134.5938,-309.01999,470.91861
159,1.317,-180.41515,-291.77606,587.59369,-228.59134,-311.8595,497.16159,-134.5938,-309.01999,470.91861
160,1.325,-179.92317,-292.46036,587.79303,-229.04637,-311.58047,497.31302,-134.5938,-309.01999,470.91861
161,1.333,-179.78214,-292.70145,587.96307,-229.04637,-311.58047,497.31302,-134.81644,-308.83514,470.86316
162,1.342,-179.646,-293.05203,588.19281,-229.04637,-311.58047,497.31302,-135.13091,-309.03662,470.81476
163,1.35,-180.12955,-291.88739,587.46606,-228.84308,-311.87613,497.62259,-135.03627,-309.03333,470.70651
164,1.358,-180.20892,-291.91635,587.37396,-228.78905,-312.07666,497.4838,-135.37706,-309.48199,470.9165
165,1.367,-180.65988,-292.04849,587.24426,-228.84308,-311.87613,497.62259,-135.26714,-309.87335,470.91302
166,1.375,-180.65988,-292.04849,587.24426,-228.78905,-312.07666,497.4838,-135.47148,-309.47867,470.71982
167,1.383,-180.86891,-292.46478,586.95538,-228.78043,-312.18356,497.3905,-135.47148,-309.47867,470.71982
168,1.392,-180.86374,-292.22818,587.16144,-228.78043,-312.18356,497.3905,-135.3409,-309.19904,470.42612
169,1.4,-180.87042,-292.37424,587.04285,-228.95038,-311.85577,497.29965,-135.29388,-308.8844,470.09753
170,1.408,-180.86891,-292.46478,586.95538,-228.8855,-311.74286,496.78897,-135.29388,-308.8844,470.09753
171,1.417,-180.86374,-292.22818,587.16144,-228.89412,-311.63596,496.88226,-135.29388,-308.8844,470.09753
172,1.425,-181.05573,-292.30124,586.96606,-228.71448,-311.4451,496.33392,-135.3085,-308.68756,470.30457
173,1.433,-180.86891,-292.46478,586.95538,-228.96532,-311.21405,496.11703,-135.29388,-308.8844,470.09753
174,1.442,-181.15016,-292.43396,586.61462,-229.06958,-311.27789,495.97537,-135.29388,-308.8844,470.09753
175,1.45,-180.94643,-292.50519,586.70782,-229.29762,-311.01764,495.70984,-135.29388,-308.8844,470.09753
176,1.458,-181.15016,-292.43396,586.61462,-229.30783,-310.39032,495.89429,-135.29388,-308.8844,470.09753
177,1.467,-181.15016,-292.43396,586.61462,-229.63789,-310.06168,495.1741,-135.29388,-308.8844,470.09753
178,1.475,-181.15016,-292.43396,586.61462,-229.77585,-310.10065,494.97491,-135.29388,-308.8844,470.09753
179,1.483,-181.15016,-292.43396,586.61462,-230.04109,-309.90942,495.11115,-135.29388,-308.8844,470.09753
180,1.492,-181.15553,-292.44351,586.63068,-230.2518,-309.72534,495.07767,-135.29388,-308.8844,470.09753
181,1.5,-181.83372,-292.12274,586.53046,-230.2518,-309.72534,495.07767,-135.29388,-308.8844,470.09753
182,1.508,-182.088,-291.82529,586.48798,-229.87163,-309.99478,495.4339,-135.29388,-308.8844,470.09753
183,1.517,-181.87944,-291.8486,586.28632,-230.08614,-309.32382,495.14044,-134.85573,-309.48682,470.25278
184,1.525,-181.40546,-291.96722,586.39185,-230.08614,-309.32382,495.14044,-135.01921,-309.42175,470.17834
185,1.533,-181.40546,-291.96722,586.39185,-230.13004,-309.15576,494.99237,-135.29388,-308.8844,470.09753
186,1.542,-182.15874,-291.66345,585.95813,-230.13004,-309.15576,494.99237,-135.48004,-308.62384,469.35599
187,1.55,-181.99751,-291.50906,586.09082,-230.34076,-308.97171,494.95895,-135.53876,-308.86459,469.25055
188,1.558,-182.15874,-291.66345,585.95813,-230.50833,-309.05679,494.77924,-136.27803,-308.02811,468.74396
189,1.567,-182.23901,-290.95169,585.6825,-230.50833,-309.05679,494.77924,-136.27803,-308.02811,468.74396
190,1.575,-182.23381,-291.10699,585.50391,-230.49098,-309.16428,494.68948,-135.49271,-308.8429,468.63675
191,1.583,-182.21141,-291.04529,585.01447,-230.49098,-309.16428,494.68948,-135.77544,-308.28726,468.70279
