Frame#,Time,L.Forearm.x,L.Forearm.y,L.Forearm.z,L.Ulna.x,L.Ulna.y,L.Ulna.z,L.Radius.x,L.Radius.y,L.Radius.z
1,0,-172.90417,309.34607,856.87848,-103.16894,315.31122,823.19586,-99.97563,233.06915,858.3634
2,0.008,-173.313,309.27548,857.79779,-102.86826,315.36316,823.80054,-100.21722,232.78136,858.25513
3,0.017,-173.313,309.27548,857.79779,-103.10509,315.69818,824.34851,-100.21364,232.52052,858.31946
4,0.025,-173.89793,308.89709,858.55115,-103.10433,316.15659,825.40198,-100.21364,232.52052,858.31946
5,0.033,-174.11809,308.81525,858.69489,-103.34797,316.29581,825.565,-100.97877,232.94208,859.30084
6,0.042,-174.09917,309.05042,858.948,-103.50492,316.33011,826.01288,-101.32898,232.66458,859.94696
7,0.05,-174.13876,308.96262,859.04218,-103.75695,315.87067,826.22815,-101.57264,232.84575,860.0932
8,0.058,-174.45758,309.07065,858.89569,-103.93716,315.80688,826.19873,-101.91691,233.04633,860.05286
9,0.067,-174.45758,309.07065,858.89569,-104.16219,316.40427,826.69263,-101.91691,233.04633,860.05286
10,0.075,-174.20085,309.49521,859.67328,-104.31375,316.36407,826.68011,-101.91691,233.04633,860.05286
11,0.083,-174.20085,309.49521,859.67328,-104.31375,316.36407,826.68011,-102.04721,232.83966,860.21936
12,0.092,-174.38351,309.12344,859.3894,-104.13038,316.43054,826.7113,-101.85541,233.12862,860.27716
13,0.1,-174.30666,309.55243,859.08661,-103.79536,316.86636,826.68842,-101.56003,233.27559,860.24579
14,0.108,-174.2334,309.97247,859.3479,-103.87182,316.76886,826.4054,-100.90482,233.60626,860.2876
15,0.117,-174.37041,311.89804,859.25354,-103.60898,316.5683,826.26178,-100.53089,233.63168,859.97498
16,0.125,-174.38055,309.86731,858.36066,-103.61546,317.0914,825.6673,-100.05484,234.10269,860.11194
17,0.133,-174.21231,310.06717,857.8833,-103.61526,317.05789,825.0191,-99.85627,234.41679,859.67346
18,0.142,-174.21231,310.06717,857.8833,-104.3115,317.75861,823.85242,-100.07958,234.28094,859.67688
19,0.15,-174.12091,310.38339,857.86353,-104.15839,319.1665,824.37646,-100.03362,234.9691,859.36243
20,0.158,-174.0004,311.47607,857.49713,-104.31258,318.84546,824.01495,-100.44312,234.86909,858.43292
21,0.167,-174.20001,311.52011,857.284,-104.19327,318.96194,823.86127,-100.36973,234.86778,857.99176
22,0.175,-174.38293,311.14819,856.99957,-104.21506,318.92072,823.65533,-100.63567,234.3425,858.00079
23,0.183,-174.38293,311.14819,856.99957,-104.21506,318.92072,823.65533,-100.99502,234.35818,857.75476
24,0.192,-174.57854,310.93973,856.95087,-104.21506,318.92072,823.65533,-101.12682,234.51875,857.65607
25,0.2,-174.5976,310.70447,856.69739,-104.20218,318.31857,822.95111,-101.03166,234.97636,857.31903
26,0.208,-174.70763,310.66357,856.76917,-104.51353,318.41251,823.19269,-101.24486,235.10568,857.52893
27,0.217,-174.70882,310.75427,856.43335,-104.51353,318.41251,823.19269,-101.24486,235.10568,857.52893
28,0.225,-175.3015,310.98434,856.45331,-104.80305,318.43234,823.30396,-102.01395,235.64305,857.8382
29,0.233,-175.52971,311.10394,856.15509,-105.0299,318.74026,823.92804,-102.01395,235.64305,857.8382
30,0.242,-175.63284,311.12085,856.42242,-105.2414,318.80682,823.52869,-102.11823,235.48256,858.59473
31,0.25,-175.72942,311.14835,855.94177,-105.8526,318.95944,823.70807,-102.18754,235.35345,859.07916
32,0.258,-175.79721,312.11072,855.89496,-105.8945,318.75928,823.87,-102.57985,234.92758,859.24207
33,0.267,-175.79721,312.11072,855.89496,-106.02602,318.64294,823.83459,-102.57985,234.92758,859.24207
34,0.275,-175.88947,311.21686,855.9267,-106.02602,318.64294,823.83459,-102.798,235.40944,860.45526
35,0.283,-176.60851,311.82837,855.87512,-106.14552,318.41953,824.12195,-102.86604,236.07669,860.64551
36,0.292,-176.54092,310.866,855.92188,-106.49158,318.0842,824.41425,-103.24814,235.02866,860.18573
37,0.3,-176.60851,311.82837,855.87512,-106.5966,318.19604,824.35638,-103.12621,235.10777,860.23578
38,0.308,-176.75246,311.84824,855.90076,-106.58343,318.28751,823.97046,-103.45034,234.42744,859.30353
39,0.317,-176.89941,310.53497,855.9826,-106.63712,318.077,823.89905,-103.45034,234.42744,859.30353
40,0.325,-176.68489,310.88586,855.94751,-106.63712,318.077,823.89905,-103.13179,234.53891,859.23248
41,0.333,-176.68489,310.88586,855.94751,-106.45258,318.13489,823.92236,-103.13179,234.53891,859.23248
42,0.342,-176.54092,310.866,855.92188,-106.29581,318.43439,823.80243,-103.00132,234.74568,859.06592
43,0.35,-176.54092,310.866,855.92188,-106.13102,318.75476,823.77673,-102.9664,235.05641,858.49707
44,0.358,-176.2861,311.27185,855.8288,-106.1422,318.66501,823.35803,-102.9664,235.05641,858.49707
45,0.367,-176.38924,311.28879,856.09619,-106.07539,318.64386,823.47839,-102.94144,235.1091,858.79944
46,0.375,-176.12033,311.20477,856.26031,-106.1422,318.66501,823.35803,-102.90031,235.13382,858.40973
47,0.383,-176.18806,312.16721,856.2135,-106.1422,318.66501,823.35803,-102.55413,236.27104,858.71057
48,0.392,-176.18806,312.16721,856.2135,-106.1422,318.66501,823.35803,-102.4483,236.91412,858.82013
49,0.4,-176.46986,312.78256,856.33429,-105.83887,318.66217,823.27875,-102.38199,237.39445,859.09753
50,0.408,-176.73865,312.86646,856.17023,-106.076,319.05011,823.59827,-102.27753,237.81163,859.18481
51,0.417,-176.73865,312.86646,856.17023,-106.55165,319.3172,823.53802,-102.18988,238.20143,859.33643
52,0.425,-176.73865,312.86646,856.17023,-105.93197,318.96054,823.55591,-102.00758,238.46957,859.69647
53,0.433,-176.73865,312.86646,856.17023,-105.93197,318.96054,823.55591,-101.96962,238.40697,859.5061
54,0.442,-176.88254,312.88629,856.19586,-105.83887,318.66217,823.27875,-101.90665,238.64111,859.29358
55,0.45,-176.73865,312.86646,856.17023,-106.50658,319.05444,823.31482,-102.19296,238.35826,859.21112
56,0.458,-176.77936,312.86938,855.92847,-106.62019,319.09808,823.20538,-102.18988,238.20143,859.33643
57,0.467,-176.88254,312.88629,856.19586,-106.42627,319.06906,823.14905,-102.21457,238.04578,858.97217
58,0.475,-176.90469,313.09064,855.74768,-106.73116,318.94812,823.2038,-102.23945,237.99333,858.67023
59,0.483,-176.9213,312.93866,855.90735,-106.71809,318.9151,823.02832,-102.52151,237.41722,858.39514
60,0.492,-176.9213,312.93866,855.90735,-106.8887,319.02151,823.07941,-102.90482,236.5448,858.1745
61,0.5,-176.80092,312.76337,855.78448,-106.71809,318.9151,823.02832,-102.93941,235.83998,857.91864
62,0.508,-176.80157,312.96994,855.61877,-106.79452,318.75439,823.1604,-103.04699,235.5117,857.43744
63,0.517,-176.82109,312.72333,855.53247,-106.9791,318.69644,823.13708,-103.62138,234.78477,857.48474
64,0.525,-176.92545,312.45972,855.70392,-107.11837,318.57178,823.04669,-103.55177,234.91003,857.19531
65,0.533,-177.03914,311.57367,855.54694,-107.32224,318.25888,823.00348,-103.77119,234.98811,856.94489
66,0.542,-177.03705,311.62656,855.49677,-107.32224,318.25888,823.00348,-103.77119,234.98811,856.94489
67,0.55,-176.92827,311.88962,855.32202,-107.30918,318.22583,822.82788,-103.77119,234.98811,856.94489
68,0.558,-176.67349,312.29547,855.229,-107.0131,318.05933,822.44391,-103.55177,234.91003,857.19531
69,0.567,-176.4781,311.36203,855.20941,-106.67004,318.49692,822.57751,-103.55177,234.91003,857.19531
70,0.575,-176.54579,312.32443,855.16278,-106.87383,318.18396,822.5343,-103.62138,234.78477,857.48474
71,0.583,-176.27931,312.55884,855.26447,-106.85769,318.59012,822.46979,-103.62138,234.78477,857.48474
72,0.592,-176.27931,312.55884,855.26447,-106.72861,318.45407,822.05658,-103.41843,235.27975,857.43921
73,0.6,-176.04361,312.76663,855.04303,-106.46455,318.61301,821.87012,-102.79189,235.67848,857.71558
74,0.608,-176.04361,312.76663,855.04303,-106.51828,318.40244,821.79865,-102.79189,235.67848,857.71558
75,0.617,-176.04361,312.76663,855.04303,-106.49285,318.86169,821.57843,-102.60551,235.86432,857.82526
76,0.625,-176.04361,312.76663,855.04303,-106.29179,318.80338,821.4292,-102.35863,236.22176,857.98676
77,0.633,-176.16965,312.84509,855.00824,-106.16933,319.02536,821.25568,-102.16916,236.26132,857.36774
78,0.642,-176.04361,312.76663,855.04303,-106.1072,319.02164,821.13116,-101.98732,236.1051,857.16443
79,0.65,-176.04361,312.76663,855.04303,-106.1072,319.02164,821.13116,-101.98732,236.1051,857.16443
80,0.658,-176.04361,312.76663,855.04303,-106.1072,319.02164,821.13116,-101.93805,235.47191,856.58002
81,0.667,-176.35297,312.47272,854.72351,-106.15057,319.11206,821.06329,-101.93805,235.47191,856.58002
82,0.675,-176.4138,312.59473,854.62817,-106.84119,319.02869,821.19452,-101.93805,235.47191,856.58002
83,0.683,-176.61946,312.23834,854.62177,-107.33984,318.80411,821.20911,-102.5842,235.30923,856.32501
84,0.692,-176.69504,311.12082,854.81256,-107.25648,318.56955,821.33929,-102.5842,235.30923,856.32501
85,0.7,-176.78531,311.05957,854.8974,-107.3444,318.311,821.57251,-103.05322,234.82326,856.51086
86,0.708,-176.78531,311.05957,854.8974,-107.3444,318.311,821.57251,-103.64724,234.59489,856.17822
87,0.717,-177.04015,310.65378,854.99042,-107.6153,317.93509,821.66809,-103.64724,234.59489,856.17822
88,0.725,-177.64404,310.20059,854.8493,-107.65639,318.08099,821.80585,-103.47737,234.47118,856.44305
89,0.733,-177.64404,310.20059,854.8493,-107.65639,318.08099,821.80585,-103.47737,234.47118,856.44305
90,0.742,-178.02196,309.74515,854.84357,-107.66412,318.08121,822.19904,-104.28776,233.93475,856.98431
91,0.75,-178.05655,310.298,854.88495,-107.66412,318.08121,822.19904,-104.28776,233.93475,856.98431
92,0.758,-177.98405,310.41608,854.75226,-107.66412,318.08121,822.19904,-104.30688,234.3013,857.28619
93,0.767,-178.02823,309.94354,854.56628,-107.33862,317.77756,821.68817,-104.30688,234.3013,857.28619
94,0.775,-177.87222,310.41,854.62964,-107.28244,317.35788,821.49249,-103.97138,234.65657,857.4007
95,0.783,-177.43323,310.56638,854.56702,-107.28244,317.35788,821.49249,-103.86366,234.2872,857.05194
96,0.792,-177.43323,310.56638,854.56702,-107.1105,317.46988,821.56616,-103.54696,234.34605,856.73254
97,0.8,-177.02516,310.92438,854.47162,-106.97434,317.45413,821.40747,-103.33168,234.2592,856.93256
98,0.808,-176.7001,311.50131,854.40973,-106.68597,317.69058,821.18048,-103.05914,234.87943,856.59753
99,0.817,-176.48233,312.07687,854.02716,-106.29504,317.51309,820.8327,-102.635,235.23149,856.66534
100,0.825,-176.47842,311.33469,853.8877,-106.35524,317.68808,820.65283,-102.85017,235.31831,856.46539
101,0.833,-176.67674,312.39102,853.79309,-106.50925,317.95895,820.49097,-102.43934,235.27577,856.29755
102,0.842,-176.36806,312.18719,853.6701,-106.42443,318.11612,820.45197,-102.29885,235.37614,855.95288
103,0.85,-176.49872,312.28152,853.62201,-106.42443,318.11612,820.45197,-102.1734,235.41357,855.87555
104,0.858,-176.49872,312.28152,853.62201,-106.42443,318.11612,820.45197,-102.1734,235.41357,855.87555
105,0.867,-176.47072,310.95605,853.53168,-106.16631,318.40042,820.51556,-102.31724,235.39594,855.72034
106,0.875,-176.4325,311.88712,853.31323,-106.16631,318.40042,820.51556,-102.31724,235.39594,855.72034
107,0.883,-176.4325,311.88712,853.31323,-106.05279,318.11121,820.38458,-102.31724,235.39594,855.72034
108,0.892,-176.4325,311.88712,853.31323,-106.05279,318.11121,820.38458,-102.31724,235.39594,855.72034
109,0.9,-176.4325,311.88712,853.31323,-106.39575,317.66971,820.35999,-102.56483,235.38524,856.09332
110,0.908,-176.43861,312.02679,853.05115,-106.39575,317.66971,820.35999,-102.56483,235.38524,856.09332
111,0.917,-176.53967,311.74496,852.93475,-106.30909,316.92654,820.41003,-102.85017,235.31831,856.46539
112,0.925,-176.84819,311.85153,853.23181,-106.57158,316.62933,820.54547,-103.27437,234.96619,856.39758
113,0.933,-176.87555,311.67645,852.57971,-106.49133,316.51047,820.64221,-103.27437,234.96619,856.39758
114,0.942,-177.07962,311.55823,852.11072,-106.58755,316.56131,820.64069,-103.27437,234.96619,856.39758
115,0.95,-177.21674,311.63855,852.07782,-106.51133,316.45419,820.7254,-103.2621,234.3844,856.64307
116,0.958,-177.45056,311.16962,852.04041,-106.58755,316.56131,820.64069,-103.2621,234.3844,856.64307
117,0.967,-177.38055,311.22513,851.96716,-106.84223,316.55359,820.65985,-103.2621,234.3844,856.64307
118,0.975,-177.38055,311.22513,851.96716,-106.82063,316.76633,820.49554,-103.47737,234.47118,856.44305
119,0.983,-177.38055,311.22513,851.96716,-106.87917,316.74911,820.29156,-103.47737,234.47118,856.44305
120,0.992,-177.14673,311.69403,852.00458,-106.83121,316.66498,820.15112,-103.33247,234.43773,856.41565
121,1,-177.01382,311.62222,852.03088,-106.83121,316.66498,820.15112,-102.5193,235.1376,856.28503
122,1.008,-176.86131,311.59045,852.01392,-106.75934,317.49475,819.6875,-102.48418,235.1042,855.69281
123,1.017,-176.86131,311.59045,852.01392,-106.61372,317.0968,819.12122,-102.26539,235.32751,855.50934
124,1.025,-176.68422,311.65604,852.14655,-106.39631,317.21649,818.90027,-102.45398,234.72249,855.24304
125,1.033,-176.47583,311.60593,852.35388,-106.39111,317.48306,818.76929,-102.36529,234.79503,855.15125
126,1.042,-176.47583,311.60593,852.35388,-106.24629,317.47168,818.86847,-102.19833,235.08675,855.17877
127,1.05,-176.47583,311.60593,852.35388,-106.24629,317.47168,818.86847,-102.19833,235.08675,855.17877
128,1.058,-176.47583,311.60593,852.35388,-105.96857,317.77533,818.71753,-102.19833,235.08675,855.17877
129,1.067,-176.47583,311.60593,852.35388,-106.04128,317.742,819.15771,-102.19833,235.08675,855.17877
130,1.075,-176.47583,311.60593,852.35388,-106.21204,318.28253,819.27887,-101.96252,235.45911,855.48822
131,1.083,-176.63216,311.86887,852.04578,-106.24323,318.33984,819.00763,-102.05121,235.38658,855.57996
132,1.092,-176.7711,311.84967,851.91846,-106.19743,318.13519,819.26587,-101.31895,235.6512,855.82593
133,1.1,-176.86131,311.59045,852.01392,-106.19743,318.13519,819.26587,-101.04664,235.53084,856.03253
134,1.108,-176.7711,311.84967,851.91846,-106.01948,318.32846,819.51666,-101.45058,235.47221,856.18719
135,1.117,-176.7711,311.84967,851.91846,-106.07658,318.48792,819.41516,-101.21078,235.75266,856.36823
136,1.125,-176.86131,311.59045,852.01392,-106.28371,318.12747,819.31744,-100.84063,236.28896,856.61078
137,1.133,-176.87158,310.74692,851.6084,-106.61703,317.48108,819.74969,-100.84063,236.28896,856.61078
138,1.142,-176.87158,310.74692,851.6084,-106.10576,318.32074,819.56818,-100.71361,235.61102,856.41882
139,1.15,-176.87158,310.74692,851.6084,-106.54004,317.19751,819.72363,-100.54594,235.72897,856.0174
140,1.158,-176.87158,310.74692,851.6084,-106.28525,317.39685,820.04858,-100.70293,235.33046,856.07275
141,1.167,-176.86131,311.59045,852.01392,-106.60141,317.17953,820.10858,-101.45058,235.47221,856.18719
142,1.175,-176.86131,311.59045,852.01392,-106.49624,317.06744,820.16638,-101.73668,235.18921,856.10474
143,1.183,-176.86131,311.59045,852.01392,-106.7396,317.04895,820.1875,-102.1734,235.41357,855.87555
144,1.192,-177.01382,311.62222,852.03088,-106.71585,317.49023,820.09473,-102.1734,235.41357,855.87555
145,1.2,-176.61665,310.69424,852.19281,-106.76384,317.5744,820.23517,-102.34496,235.06686,855.8736
146,1.208,-176.58006,310.49014,852.37207,-106.76384,317.5744,820.23517,-102.48418,235.1042,855.69281
147,1.217,-176.83502,310.66199,852.28967,-106.60965,317.09583,820.37769,-102.75013,235.11333,855.83325
148,1.225,-176.75702,310.54108,852.3786,-106.97479,317.24503,820.35297,-103.1605,234.6864,856.0235
149,1.233,-176.83502,310.66199,852.28967,-106.97479,317.24503,820.35297,-103.29975,234.72374,855.84271
150,1.242,-176.67625,310.62326,852.27722,-106.76384,317.5744,820.23517,-103.34653,234.83368,856.17645
151,1.25,-176.90253,311.62384,852.24335,-106.99151,317.69836,820.18018,-103.49142,234.86711,856.20386
152,1.258,-177.01382,311.62222,852.03088,-106.99151,317.69836,820.18018,-103.27437,234.96619,856.39758
153,1.267,-177.14673,311.69403,852.00458,-107.09665,317.81036,820.12231,-102.85017,235.31831,856.46539
154,1.275,-177.14673,311.69403,852.00458,-107.04868,317.7262,819.98181,-102.85017,235.31831,856.46539
155,1.283,-177.14673,311.69403,852.00458,-107.26538,317.91568,819.50714,-102.7508,235.53247,856.24628
156,1.292,-177.14673,311.69403,852.00458,-107.22473,318.25558,819.11322,-102.7508,235.53247,856.24628
157,1.3,-177.14673,311.69403,852.00458,-107.46164,317.73358,819.38605,-102.7508,235.53247,856.24628
158,1.308,-177.14673,311.69403,852.00458,-107.55376,318.05695,819.17328,-102.43938,235.42267,856.01599
159,1.317,-177.14673,311.69403,852.00458,-107.46164,317.73358,819.38605,-102.43938,235.42267,856.01599
160,1.325,-177.14673,311.69403,852.00458,-107.35517,318.1413,819.04224,-102.1734,235.41357,855.87555
161,1.333,-177.14673,311.69403,852.00458,-107.50791,318.40686,818.7793,-102.1734,235.41357,855.87555
162,1.342,-177.38055,311.22513,851.96716,-107.54404,318.02789,819.00494,-102.31724,235.39594,855.72034
163,1.35,-177.38055,311.22513,851.96716,-107.58092,317.66504,819.39874,-102.31724,235.39594,855.72034
164,1.358,-177.38055,311.22513,851.96716,-107.6523,317.67996,819.37036,-102.75013,235.11333,855.83325
165,1.367,-177.38055,311.22513,851.96716,-107.70956,317.44992,819.17236,-103.51915,234.80206,855.59222
166,1.375,-177.38055,311.22513,851.96716,-107.50343,317.20233,819.547,-103.66405,234.83551,855.61963
167,1.383,-177.38055,311.22513,851.96716,-107.69871,317.11676,819.50061,-103.66405,234.83551,855.61963
168,1.392,-177.38055,311.22513,851.96716,-107.69871,317.11676,819.50061,-103.66405,234.83551,855.61963
169,1.4,-177.38055,311.22513,851.96716,-107.75716,317.09937,819.29657,-103.66405,234.83551,855.61963
170,1.408,-177.38055,311.22513,851.96716,-107.91838,317.11984,819.34021,-103.66405,234.83551,855.61963
171,1.417,-177.38055,311.22513,851.96716,-107.67765,317.30185,819.66364,-103.63065,234.90443,856.02313
172,1.425,-177.38055,311.22513,851.96716,-107.73608,317.28442,819.45959,-103.63065,234.90443,856.02313
173,1.433,-177.38055,311.22513,851.96716,-107.50463,317.41495,819.54095,-103.63065,234.90443,856.02313
174,1.442,-177.38055,311.22513,851.96716,-107.50463,317.41495,819.54095,-103.63065,234.90443,856.02313
175,1.45,-177.14673,311.69403,852.00458,-107.5348,317.569,819.42084,-103.49142,234.86711,856.20386
176,1.458,-177.14673,311.69403,852.00458,-107.32381,317.89822,819.30316,-102.89566,235.56592,856.27374
177,1.467,-177.14673,311.69403,852.00458,-107.32381,317.89822,819.30316,-102.7508,235.53247,856.24628
178,1.475,-177.14673,311.69403,852.00458,-107.36812,318.17368,819.21783,-102.7508,235.53247,856.24628
179,1.483,-177.14673,311.69403,852.00458,-107.36812,318.17368,819.21783,-102.7508,235.53247,856.24628
180,1.492,-177.14673,311.69403,852.00458,-107.30968,318.1911,819.42188,-102.7508,235.53247,856.24628
181,1.5,-177.14673,311.69403,852.00458,-107.30968,318.1911,819.42188,-102.62864,235.50577,855.95062
182,1.508,-177.14673,311.69403,852.00458,-107.30968,318.1911,819.42188,-102.62864,235.50577,855.95062
183,1.517,-177.14673,311.69403,852.00458,-107.30968,318.1911,819.42188,-102.75451,235.10023,855.79761
184,1.525,-177.32478,311.80328,852.17572,-107.38287,318.02661,819.45673,-102.75451,235.10023,855.79761
185,1.533,-177.32478,311.80328,852.17572,-107.59386,317.69739,819.5744,-103.63065,234.90443,856.02313
186,1.542,-177.32478,311.80328,852.17572,-107.6418,317.78152,819.71497,-103.63065,234.90443,856.02313
187,1.55,-177.14673,311.69403,852.00458,-107.60164,317.6622,820.11835,-103.63065,234.90443,856.02313
188,1.558,-177.97946,311.25415,852.28149,-107.60164,317.6622,820.11835,-103.63065,234.90443,856.02313
189,1.567,-177.97946,311.25415,852.28149,-108.05829,317.49066,819.96338,-103.63065,234.90443,856.02313
190,1.575,-177.97946,311.25415,852.28149,-108.23421,317.58417,819.70886,-103.63065,234.90443,856.02313
191,1.583,-177.80135,311.1449,852.11035,-108.06878,317.3891,819.61884,-103.77702,235.00903,855.99365
192,1.592,-177.8028,310.18634,851.71539,-108.13927,317.23053,819.29999,-103.63065,234.90443,856.02313
193,1.6,-178.22606,309.55862,851.66846,-108.29701,317.30423,819.17548,-103.63065,234.90443,856.02313
194,1.608,-177.98283,310.10657,851.55884,-108.29701,317.30423,819.17548,-103.84589,234.9913,855.82312
195,1.617,-177.98416,310.25839,851.43713,-108.01614,316.77426,818.83606,-103.63065,234.90443,856.02313
196,1.625,-177.98416,310.25839,851.43713,-108.24149,316.72791,818.48407,-103.84589,234.9913,855.82312
