Frame#,Time,R.Forearm.x,R.Forearm.y,R.Forearm.z,R.Ulna.x,R.Ulna.y,R.Ulna.z,R.Radius.x,R.Radius.y,R.Radius.z
1,0,1745.52307,-21.38233,1037.82556,1752.76733,11.10219,947.9718,1716.8512,-59.66217,901.80847
2,0.008,1737.18982,-18.35156,1039.01257,1743.27173,11.50599,947.34613,1709.26172,-57.26074,902.0932
3,0.017,1728.08154,-20.22678,1038.9519,1733.68127,13.33677,947.95343,1698.39355,-54.92162,901.72534
4,0.025,1718.05127,-17.12445,1040.08728,1724.99902,12.04076,947.00635,1688.96448,-55.89222,902.88177
5,0.033,1710.15125,-17.92956,1038.12158,1717.17786,15.07852,947.8783,1679.1156,-53.06357,902.2417
6,0.042,1702.78296,-15.87,1039.78149,1707.51733,15.38232,947.39722,1668.78894,-53.9068,902.44092
7,0.05,1692.82922,-14.56081,1039.57227,1699.90942,16.16385,948.26569,1659.36487,-53.42973,902.75574
8,0.058,1682.35413,-11.81738,1038.95508,1691.60071,16.00012,947.04749,1652.1792,-51.81327,902.16901
9,0.067,1675.11206,-14.0432,1038.47729,1682.38867,17.62071,945.98688,1640.776,-51.84678,902.58002
10,0.075,1668.00024,-11.83227,1038.00439,1674.15112,15.99069,945.69788,1632.01025,-49.58329,902.80042
11,0.083,1658.02136,-11.16906,1036.46191,1665.87463,18.40012,945.89099,1624.25244,-50.70875,902.75543
12,0.092,1649.08435,-12.64339,1036.62866,1657.5011,17.16957,945.43475,1613.64099,-49.02547,901.2179
13,0.1,1640.99585,-11.42755,1036.56799,1649.65869,17.92174,944.97571,1606.0376,-47.1284,902.43817
14,0.108,1634.5094,-13.29467,1036.11682,1641.41138,17.42196,945.06702,1597.90295,-50.12425,901.93909
15,0.117,1626.61096,-11.29663,1035.9895,1630.61316,16.91974,944.00818,1589.20667,-50.66156,900.49048
16,0.125,1619.29797,-14.50028,1034.46826,1624.34619,16.8117,943.46899,1581.07788,-50.79077,900.68591
17,0.133,1610.50928,-13.28197,1034.60486,1615.38708,16.62399,943.98895,1574.23328,-52.98494,900.68085
18,0.142,1604.12122,-14.82812,1033.28662,1606.69958,16.14523,942.63727,1565.00391,-53.24476,899.43365
19,0.15,1595.63208,-15.43992,1033.17749,1599.52576,16.16577,942.35162,1556.97437,-51.76764,898.53705
20,0.158,1589.23572,-15.48732,1032.37036,1591.60352,14.51594,941.45404,1551.18445,-53.6763,898.75574
21,0.167,1581.22949,-16.92195,1032.46033,1583.46362,15.66643,941.99945,1542.90723,-52.2285,899.21216
22,0.175,1574.35706,-17.8688,1032.63684,1573.86133,15.45127,941.02515,1533.11743,-54.48088,897.97485
23,0.183,1566.31372,-17.19808,1031.44055,1567.25085,14.03412,941.26367,1526.22278,-53.27694,898.24139
24,0.192,1559.35242,-17.69547,1030.61658,1560.19275,15.39157,940.5755,1518.99805,-54.05355,897.59583
25,0.2,1551.17603,-18.04884,1030.82483,1550.68066,13.86276,940.66003,1512.17358,-53.18433,896.46179
26,0.208,1544.3241,-19.21933,1030.53088,1543.33521,15.56715,940.24072,1503.83838,-54.2516,896.00079
27,0.217,1535.11731,-16.91557,1029.24158,1536.73718,15.032,940.41193,1495.99915,-53.6712,896.745
28,0.225,1528.0459,-18.3704,1030.17371,1529.75159,15.66948,939.60162,1488.21924,-53.22134,896.83331
29,0.233,1521.31201,-17.07861,1029.98816,1522.10547,15.00518,938.82227,1481.32202,-50.53246,897.14532
30,0.242,1512.9248,-18.67766,1030.95557,1516.07373,16.07877,940.30219,1474.84509,-52.3163,897.10828
31,0.25,1505.43518,-18.98524,1032.49463,1508.41333,14.90373,940.59656,1466.09985,-48.29699,897.93494
32,0.258,1498.28052,-18.72398,1033.4115,1502.36365,15.77211,942.05304,1460.64697,-50.95815,898.07788
33,0.267,1491.86499,-19.3258,1032.97791,1494.92529,14.79274,944.0661,1451.11902,-47.24053,897.70496
34,0.275,1485.05359,-18.26353,1034.89526,1488.99805,15.19945,944.90247,1445.42285,-49.48075,899.72186
35,0.283,1476.58154,-21.06103,1037.93286,1482.84705,13.90093,947.2453,1438.37207,-48.19667,900.7746
36,0.292,1468.84717,-20.72427,1038.41797,1476.23303,14.9535,949.2702,1432.87134,-50.05119,903.25061
37,0.3,1462.6272,-21.96509,1041.31934,1469.50793,13.74686,951.0639,1425.76196,-49.64726,905.36945
38,0.308,1457.76086,-23.66731,1043.27002,1463.94861,14.24262,954.16083,1420.77332,-50.18011,906.27576
39,0.317,1450.84949,-23.85238,1044.4552,1456.71277,12.71329,955.61456,1414.79773,-51.38224,908.41443
40,0.325,1444.01648,-25.09773,1047.16138,1449.72156,12.4774,957.44568,1410.25415,-53.67247,910.95984
41,0.333,1435.87769,-25.17627,1049.50354,1442.75244,12.32558,960.18591,1402.76843,-54.84358,911.37054
42,0.342,1427.953,-25.15329,1051.98132,1436.50317,11.20347,961.86462,1398.80847,-55.00358,914.40778
43,0.35,1423.63696,-25.87172,1052.88855,1430.9071,10.86234,963.54309,1392.974,-57.85393,916.48657
44,0.358,1417.10388,-26.18904,1053.38232,1423.94727,9.54534,964.40283,1386.22656,-55.20995,917.021
45,0.367,1411.49402,-26.24329,1054.7478,1418.35754,9.68457,966.44885,1380.56531,-58.51384,917.23956
46,0.375,1406.28638,-28.06216,1055.77551,1412.62109,9.44726,967.17487,1376.27722,-57.94264,918.49432
47,0.383,1399.04785,-26.59509,1055.53601,1406.51636,9.28276,966.94287,1368.52954,-56.85099,917.26678
48,0.392,1392.5238,-27.42459,1057.11926,1400.16809,8.99387,967.28204,1363.89502,-58.12131,918.711
49,0.4,1385.86523,-26.34185,1057.14648,1394.12256,9.41529,967.01337,1356.17712,-56.49773,919.26416
50,0.408,1379.22791,-27.13956,1056.56299,1388.79883,10.52421,967.07562,1350.86707,-57.74847,918.44537
51,0.417,1372.14868,-26.64578,1057.63025,1381.73108,9.52543,968.10822,1343.9657,-56.0955,919.25574
52,0.425,1365.82239,-27.25685,1056.29004,1376.39966,10.18418,967.69061,1338.50293,-57.68296,917.67755
53,0.433,1358.15137,-26.62407,1057.48767,1369.38733,9.80632,966.99707,1330.81384,-55.59879,917.87012
54,0.442,1351.5155,-26.20433,1056.81445,1363.41724,9.88716,967.97784,1324.28479,-56.62616,918.39716
55,0.45,1345.87585,-26.72147,1056.51489,1355.39819,9.83613,967.00342,1317.27527,-55.60724,918.60254
56,0.458,1338.55786,-26.62687,1055.84949,1349.87671,10.27113,967.70044,1309.97571,-55.40273,917.45508
57,0.467,1331.25208,-26.47058,1056.28418,1342.66235,9.58198,967.30743,1305.16772,-55.44025,916.36597
58,0.475,1324.60437,-26.58181,1056.80164,1336.2666,10.47239,967.25879,1297.43286,-55.05594,917.16046
59,0.483,1317.13196,-27.30665,1055.92102,1329.78943,9.34831,966.55328,1291.71338,-56.79602,917.61578
60,0.492,1311.17346,-26.63611,1054.90137,1324.46301,9.5092,966.92499,1284.83875,-55.58663,916.39978
61,0.5,1304.41431,-27.88969,1055.32813,1317.61279,8.99225,966.5036,1277.92725,-57.39494,916.53369
62,0.508,1297.7948,-26.03945,1054.24438,1309.78418,10.32741,965.27576,1272.05078,-55.94561,916.66168
63,0.517,1291.59814,-28.15969,1054.08301,1303.37048,9.01681,965.32153,1266.23865,-57.55136,916.7049
64,0.525,1285.00537,-26.15822,1052.26343,1296.57996,8.0867,964.59668,1258.60413,-56.1014,914.92236
65,0.533,1277.97119,-27.74892,1053.23376,1290.97937,9.06118,963.66266,1252.9209,-57.94245,914.45837
66,0.542,1270.75098,-26.20793,1051.89246,1283.16321,8.25111,961.75262,1246.68872,-56.7005,912.98334
67,0.55,1264.36743,-27.17556,1050.67505,1277.37305,8.54711,961.13354,1240.70789,-57.87355,913.15472
68,0.558,1257.02039,-26.44479,1049.41064,1269.44678,7.83212,959.43707,1233.02014,-57.70599,910.74725
69,0.567,1249.88452,-25.69819,1047.67896,1263.04541,9.41067,958.89594,1226.83313,-58.10664,909.00049
70,0.575,1243.91089,-27.28805,1047.53149,1256.25854,8.50454,957.58313,1219.27539,-58.48645,907.64893
71,0.583,1236,-25.27341,1046.02283,1248.29041,8.44404,955.36267,1212.39832,-56.87034,906.97345
72,0.592,1227.53064,-25.72469,1043.72046,1240.50354,8.84394,954.92114,1204.35779,-58.59476,905.43439
73,0.6,1220.35803,-25.14086,1042.00378,1232.8031,8.39047,953.77496,1196.81335,-58.54536,904.37012
74,0.608,1212.76904,-25.18861,1040.24316,1225.18262,9.43879,951.57825,1188.90039,-57.14301,902.61334
75,0.617,1205.38184,-24.48881,1038.56763,1217.18005,9.49474,950.41193,1184.19775,-57.07059,900.46576
76,0.625,1197.9613,-23.66739,1037.93604,1210.25586,11.75858,947.76959,1175.11682,-56.74253,899.04016
77,0.633,1190.0509,-23.36948,1036.01733,1202.28296,10.5073,946.55048,1167.05029,-56.78412,897.07043
78,0.642,1181.18591,-22.48027,1035.099,1194.44043,11.43009,945.13373,1158.89697,-55.75713,896.45233
79,0.65,1172.35559,-21.498,1033.06812,1185.37305,13.91793,943.88123,1150.65173,-53.01125,894.46954
80,0.658,1165.37622,-18.84263,1031.97949,1177.62256,14.4097,942.49225,1143.67224,-53.79893,894.10492
81,0.667,1156.953,-18.42335,1029.99768,1170.95813,15.25423,940.59656,1133.73035,-50.9437,892.71722
82,0.675,1150.05249,-17.71146,1029.21472,1162.42664,16.03822,938.86102,1126.34839,-49.68657,890.73444
83,0.683,1141.16565,-16.85337,1027.90674,1154.38855,17.81806,936.72858,1119.05457,-49.32415,888.06189
84,0.692,1133.23242,-14.57031,1025.84778,1146.57312,19.29596,936.53546,1109.54822,-48.40701,886.66248
85,0.7,1124.65137,-13.00548,1024.22888,1137.59045,21.15612,934.59381,1101.89978,-44.93078,886.64557
86,0.708,1116.78455,-11.29078,1022.591,1129.37415,21.42507,933.37189,1092.46936,-44.72483,884.2442
87,0.717,1107.18567,-10.00647,1021.64014,1123.10217,22.57125,931.51794,1084.68469,-45.20754,884.31042
88,0.725,1099.88269,-8.05212,1020.55017,1114.11523,23.15515,930.02319,1076.15759,-42.46331,882.80353
89,0.733,1091.74988,-6.57637,1018.49628,1106.5686,25.04417,929.45874,1067.42346,-42.03007,881.7887
90,0.742,1082.521,-4.98281,1019.04388,1097.495,25.61638,928.58215,1060.34863,-40.34295,880.4704
91,0.75,1074.42065,-3.61129,1018.61676,1088.60388,26.46979,927.5625,1052.28235,-40.96236,880.70862
92,0.758,1067.36646,-2.95132,1018.9455,1080.9408,28.57605,927.91327,1043.86694,-38.2372,881.20441
93,0.767,1056.75464,-3.51611,1018.58844,1072.27222,28.38338,928.11572,1036.02893,-37.54116,881.16156
94,0.775,1050.2063,-1.54311,1019.74774,1063.50281,29.82674,929.3678,1027.01221,-36.98523,880.81128
95,0.783,1040.28284,-1.52834,1019.9751,1055.34705,30.65135,930.56665,1020.51678,-35.92339,881.62457
96,0.792,1032.13611,0.27602,1021.1015,1045.46436,30.85816,931.526,1010.38422,-36.008,882.74377
97,0.8,1024.33667,-0.21038,1023.64252,1037.323,32.66962,933.51599,1002.45923,-36.2422,885.51459
98,0.808,1015.44635,0.18068,1025.27393,1027.42786,33.61894,934.82202,994.24005,-33.97908,886.85132
99,0.817,1007.12311,1.8878,1026.24207,1018.95398,33.4171,935.92175,985.28827,-34.28923,887.26935
100,0.825,997.26776,2.94209,1028.74536,1009.90973,36.45613,938.11469,977.27716,-34.97749,890.79517
101,0.833,989.8244,4.74512,1028.59778,1000.74115,36.55138,939.45935,968.52789,-34.62053,890.6778
102,0.842,980.35236,6.99959,1030.22852,991.21814,37.25258,939.80457,960.01123,-32.22702,891.71997
103,0.85,970.71143,8.6396,1032.3822,982.73218,40.95182,940.44922,950.53644,-30.70389,894.24017
104,0.858,963.33105,11.1508,1032.74683,972.91711,40.57171,941.49005,941.55829,-27.42473,895.32294
105,0.867,954.17798,12.2212,1033.21204,965.06311,42.36698,943.06665,932.21741,-27.95943,896.20367
106,0.875,944.12177,13.13797,1034.14087,955.95081,43.7476,942.9469,924.23688,-28.42529,896.17633
107,0.883,936.05261,15.72416,1035.59985,947.07947,46.01081,943.13184,914.50146,-24.45709,897.70306
108,0.892,926.54199,16.4969,1034.98608,937.7345,47.72377,943.7973,904.59302,-22.1217,899.01025
109,0.9,917.74719,18.14512,1035.67786,930.09479,48.72363,944.39459,894.73553,-22.13161,898.91217
110,0.908,908.44336,18.85238,1034.70605,920.58923,50.12057,945.10699,886.84473,-18.47205,899.05298
111,0.917,900.65283,21.01404,1035.56885,912.12225,51.52568,945.42474,876.52832,-16.23391,899.1156
112,0.925,890.76807,22.5221,1037.63318,903.5,53.46595,945.41278,867.68823,-15.83925,899.28381
113,0.933,881.974,23.17309,1037.79077,894.12726,54.61761,946.45032,858.88995,-13.88804,899.51306
114,0.942,873.30347,24.95313,1037.17908,885.56866,55.53684,945.68652,849.29395,-14.57883,899.56635
115,0.95,864.27997,24.94958,1037.2439,876.61572,55.16073,946.09753,840.44812,-14.17813,900.98541
116,0.958,855.03998,26.09646,1037.0658,868.10535,55.57453,946.38434,832.65265,-12.62245,901.60016
117,0.967,845.15851,25.56704,1038.17554,858.59357,56.13067,947.6463,824.33026,-12.86691,901.6933
118,0.975,837.47321,24.90034,1038.60022,848.83508,55.93045,947.62976,815.89722,-13.21337,901.34967
119,0.983,829.97516,24.51447,1038.06702,839.74945,56.62032,947.90442,805.82306,-12.85627,901.10797
120,0.992,820.93146,24.77312,1037.83057,830.11041,56.41926,948.02014,797.7782,-12.90478,901.23529
121,1,812.75055,24.18599,1037.62781,819.87036,56.69533,947.6087,789.30243,-15.04895,900.53058
122,1.008,803.62598,24.48163,1037.66858,810.70941,57.32666,948.13135,780.19141,-14.16373,901.51135
123,1.017,794.35114,23.97165,1038.0293,801.25238,57.61621,948.45294,770.83887,-12.38308,901.89862
124,1.025,785.47137,25.16428,1039.56714,792.8443,57.11126,948.92358,761.29675,-12.4264,901.68823
125,1.033,776.28149,24.33306,1040.48303,782.83972,57.26549,948.49475,751.99408,-11.78551,901.40552
126,1.042,767.55963,24.36206,1039.62524,773.86523,57.77027,948.80267,742.23413,-10.7422,901.76904
127,1.05,757.86804,25.2413,1038.76843,764.07013,58.63776,948.2854,733.32349,-12.51128,901.81348
128,1.058,749.0426,26.90017,1038.8894,754.69708,59.25478,948.64435,723.73981,-10.12816,900.88306
129,1.067,740.26422,26.55584,1039.19641,746.30652,59.57046,948.62842,714.56909,-10.29432,901.10901
130,1.075,730.64923,27.76874,1039.64026,737.11493,59.94637,947.6629,704.87305,-9.35321,901.2334
131,1.083,721.86633,27.81175,1038.7489,729.55737,59.59123,947.67023,695.24945,-9.35613,900.42432
132,1.092,712.43304,27.91936,1037.64612,719.97815,61.15521,947.51172,685.10419,-7.27069,900.92206
133,1.1,703.79425,26.46781,1037.83655,711.0686,59.98264,946.94116,676.26154,-8.23674,900.70465
134,1.108,697.13477,27.12169,1038.73828,702.36432,61.1097,946.6662,666.6106,-8.23733,900.06714
135,1.117,688.6347,27.19769,1037.66455,694.41479,59.59492,945.93671,658.25153,-7.99273,900.72742
136,1.125,679.9212,26.75198,1037.03638,685.25616,60.26517,946.20758,649.02728,-8.88351,900.28137
137,1.133,670.46582,27.3141,1036.64563,676.59772,60.0817,946.03796,640.23187,-7.88785,900.49115
138,1.142,662.61133,26.77459,1036.34387,667.80566,58.8331,945.34637,631.95367,-8.37743,900.07202
139,1.15,655.84467,24.92114,1036.46448,660.45111,59.56285,944.73547,623.85846,-9.1986,900.08429
140,1.158,647.92462,23.3166,1035.0885,651.90826,58.67854,944.52948,614.505,-10.74149,899.42072
141,1.167,639.81732,24.245,1034.85327,643.53217,56.96709,944.09686,607.07867,-12.42953,899.05554
142,1.175,631.68646,23.61216,1034.50671,634.13916,56.23197,943.39233,600.54999,-12.89037,898.29199
143,1.183,623.40442,22.44795,1033.85291,627.98492,56.4462,942.86823,591.06281,-13.49146,897.60046
144,1.192,617.07605,21.00871,1033.18164,619.08563,54.96824,943.10596,583.547,-14.52653,897.70355
145,1.2,609.65112,19.18503,1032.51526,610.23035,54.19621,942.25311,575.27643,-15.52428,896.84668
146,1.208,601.53357,18.01738,1032.08105,602.96246,53.88428,942.12689,566.41809,-16.38159,896.54828
147,1.217,595.29852,16.97066,1032.66895,594.82721,52.51997,942.50476,559.09399,-17.82297,896.30621
148,1.225,586.97406,15.56409,1032.36658,585.90424,51.71733,942.4939,550.93536,-18.21814,896.46448
149,1.233,579.69818,14.66472,1032.88953,579.12177,49.77178,942.36261,543.85016,-19.92344,896.77173
150,1.242,570.81128,14.12968,1033.0127,571.2973,49.59927,943.08771,535.67004,-20.10573,897.38837
151,1.25,564.58856,12.62985,1033.9751,565.04187,48.55093,943.41699,527.49445,-21.43458,899.05212
152,1.258,557.48236,12.19079,1034.40088,557.81439,49.59375,945.242,520.8493,-20.79925,898.89117
153,1.267,550.09192,11.49281,1034.8031,551.13202,47.21021,945.90826,512.85699,-20.42492,899.19269
154,1.275,541.5304,11.4848,1037.74573,544.16754,46.1634,946.61395,505.9906,-21.44859,900.75336
155,1.283,535.03772,9.00102,1039.13696,536.94165,44.95327,949.04816,499.27478,-22.02343,902.20862
156,1.292,526.44232,7.16815,1040.60437,531.05475,44.34238,950.98889,492.53632,-21.92101,903.57831
157,1.3,518.90991,7.12527,1042.66846,523.39417,43.24093,952.44318,485.9021,-23.7565,905.21222
158,1.308,511.26138,5.86607,1044.4425,517.38281,42.05565,954.97797,478.72327,-23.9749,906.94977
159,1.317,505.14215,4.66049,1045.79248,510.83194,41.44259,956.8653,471.41333,-24.98185,908.4978
160,1.325,497.31567,3.5654,1048.00342,502.99432,40.0889,958.72614,465.85822,-27.17673,911.26337
161,1.333,490.50964,2.26186,1049.64819,497.18658,38.48558,960.5954,458.50458,-28.08424,912.04248
162,1.342,484.24905,1.1771,1051.04639,489.95938,37.29572,961.92719,452.61777,-30.04775,913.71027
163,1.35,477.86932,-0.41557,1052.44055,483.92877,36.47627,962.99139,445.78668,-31.55528,915.10229
164,1.358,471.35226,-1.56799,1053.93018,477.36334,34.2141,963.75049,441.07187,-31.87424,916.52679
165,1.367,464.11487,-3.37495,1054.41248,470.10696,33.39664,964.35095,433.32898,-34.09698,917.27112
166,1.375,457.24359,-4.02631,1055.20142,463.65433,31.56467,964.83081,426.94046,-35.43131,917.62195
167,1.383,450.72577,-4.89032,1055.30017,456.92062,30.65175,965.51422,421.48843,-38.11197,917.73041
168,1.392,444.52841,-5.98746,1056.14514,450.6095,30.11114,965.27979,415.50424,-38.46587,918.15839
169,1.4,437.45569,-6.31909,1055.42102,444.44556,29.3572,964.78638,408.13168,-38.27481,918.1167
170,1.408,431.70468,-7.75756,1055.19312,437.84119,27.45307,964.46246,402.00027,-41.37012,916.36963
171,1.417,423.77164,-10.18701,1054.25867,430.61377,27.04526,964.3075,395.33911,-42.61478,916.41602
172,1.425,417.69427,-10.10535,1053.81372,424.32443,25.70902,964.09656,388.03406,-42.52015,916.62994
173,1.433,410.54575,-11.14345,1052.52954,418.0336,24.80421,964.09912,381.36694,-42.53237,916.58118
174,1.442,403.59387,-12.37681,1052.99585,410.61096,22.7731,963.52771,376.06259,-44.58263,915.58661
175,1.45,396.54568,-13.73418,1053.04016,403.98795,21.90963,963.98865,369.10251,-44.6468,914.57581
176,1.458,389.79596,-13.19813,1052.41724,398.13614,21.5636,963.60828,362.13324,-45.48075,914.39587
177,1.467,382.53894,-13.36694,1052.12805,390.8251,21.79458,963.75781,355.83273,-47.26754,914.04865
178,1.475,375.70975,-15.12545,1052.27979,383.7601,20.61957,963.13007,348.60263,-48.09497,913.69818
179,1.483,368.80331,-16.52484,1051.65881,377.89606,19.4948,961.39453,341.9711,-47.21782,913.70624
180,1.492,361.6658,-16.9752,1051.29089,370.85556,18.13914,961.22748,335.65039,-50.17027,912.56024
181,1.5,354.29132,-17.12003,1051.62354,363.68497,17.2795,961.14526,329.24841,-50.68252,912.4483
182,1.508,347.6781,-18.9018,1050.24841,357.75479,17.5839,961.08057,322.59662,-50.6485,912.14166
183,1.517,341.59082,-18.21428,1048.83093,351.90787,16.25156,960.09705,315.62726,-51.00685,911.94452
184,1.525,334.65656,-19.64997,1048.10974,344.3031,15.92609,958.1701,309.41251,-52.51689,910.25262
185,1.533,327.52475,-20.27136,1048.1637,337.35663,14.67782,957.10504,303.32516,-53.45686,910.18365
186,1.542,320.13965,-20.22971,1047.6311,330.25211,13.9411,957.21313,296.6412,-53.43773,909.42993
187,1.55,313.66852,-20.42956,1046.04443,324.62183,13.14565,956.60822,289.94299,-53.85759,908.41785
188,1.558,307.23349,-20.53752,1045.2749,316.9053,12.83297,955.39758,282.69199,-54.22023,907.47925
189,1.567,300.19473,-22.53928,1043.87488,310.8313,12.59408,953.70453,276.32751,-55.91637,906.95728
190,1.575,292.89319,-21.60672,1043.0658,303.88245,11.98059,953.05823,269.25992,-56.47306,906.12793
191,1.583,285.5903,-22.19052,1041.5614,296.6142,11.44367,952.66553,262.51895,-56.84971,904.9505
192,1.592,278.34906,-22.47787,1041.27429,290.00024,11.63109,951.25702,256.17963,-56.81394,902.21075
193,1.6,271.47989,-22.66865,1039.33398,282.3042,11.20426,950.32538,248.9192,-57.19102,901.45544
194,1.608,264.23019,-23.03484,1038.35718,276.04092,10.33932,948.85645,241.36557,-57.76524,901.16071
195,1.617,256.93973,-23.69092,1037.5072,267.48032,10.45793,947.80737,233.75609,-59.12156,899.78754
196,1.625,249.2224,-24.41114,1036.6532,260.53696,9.89388,945.87543,226.54823,-57.44456,897.66547
197,1.633,241.94829,-23.59692,1034.63159,253.1611,10.8538,944.91571,219.7211,-57.62202,897.15985
198,1.642,234.0688,-23.31567,1033.78674,246.52704,10.9635,943.03943,212.25981,-57.88333,896.11316
199,1.65,226.5952,-22.85383,1032.79016,238.17618,10.94582,942.67194,204.01657,-57.37017,894.2475
200,1.658,219.13145,-21.57296,1031.74744,230.72137,10.78907,940.83899,196.22279,-56.22976,892.3573
201,1.667,211.8009,-21.11184,1030.68994,222.08842,11.76193,940.34814,188.43169,-56.15923,892.65094
