Frame#,Time,L.Forearm.x,L.Forearm.y,L.Forearm.z,L.Ulna.x,L.Ulna.y,L.Ulna.z,L.Radius.x,L.Radius.y,L.Radius.z
1,0,23.14491,253.72882,953.89026,115.10269,243.47868,974.05664,101.85527,171.40515,1041.8822
2,0.008,21.02558,254.06927,951.45331,112.46078,243.48471,972.21484,98.46469,172.55803,1039.46069
3,0.017,19.03111,254.60057,948.59033,110.8502,244.84523,970.84515,95.34171,173.68994,1038.44531
4,0.025,16.48865,257.1329,946.71765,108.71021,244.71526,968.97186,93.28207,174.49617,1036.698
5,0.033,15.21058,257.95804,944.13666,107.18436,245.72699,966.7915,90.01476,175.85344,1034.72302
6,0.042,13.80676,258.66031,942.87909,104.3756,246.06943,965.17554,87.17535,176.58983,1033.1311
7,0.05,12.07214,260.39359,940.02551,102.39594,246.3849,963.28217,84.12354,177.47522,1031.75098
8,0.058,11.29643,260.44571,938.47668,100.91275,246.6295,962.38165,81.67557,178.24203,1030.08289
9,0.067,8.57905,261.06473,937.11194,99.33572,246.58438,960.16498,78.54561,177.61809,1028.83813
10,0.075,6.82315,261.36752,935.43011,97.80108,247.22836,958.28259,75.20103,179.68256,1027.77051
11,0.083,4.94322,263.14523,933.22235,94.91662,247.54993,957.32349,71.51503,180.36028,1025.21667
12,0.092,2.88445,263.52161,930.79083,93.34344,247.41844,955.38513,69.40613,181.03485,1024.03967
13,0.1,1.77475,264.12393,928.83643,90.25303,248.51137,953.53699,65.94923,180.64296,1022.55219
14,0.108,-0.02817,265.69193,927.30219,88.5833,248.44994,952.45404,62.41825,182.48999,1021.57562
15,0.117,-1.38088,267.2525,925.41516,87.01308,249.3779,951.4032,59.61575,183.67139,1020.15509
16,0.125,-3.20895,267.79947,923.39044,85.22295,248.73622,950.22125,56.83786,184.84947,1019.29968
17,0.133,-5.15314,269.21228,921.28442,82.7359,248.8291,948.43787,53.73309,185.38928,1017.5531
18,0.142,-6.15811,269.94836,919.70117,81.90385,249.06998,946.84705,50.50005,186.24016,1016.70905
19,0.15,-8.42022,270.56232,918.27563,80.36652,249.18626,946.005,49.25417,186.61017,1014.60791
20,0.158,-9.86857,271.15875,916.79846,77.548,248.64619,944.36285,44.15407,187.68227,1013.46912
21,0.167,-11.66401,271.4631,915.2757,74.99017,249.11348,942.74506,42.09093,188.15881,1013.17236
22,0.175,-12.70844,271.87738,914.13153,74.45606,249.40329,942.22083,39.76324,187.87619,1010.45465
23,0.183,-14.01889,273.68375,911.97565,73.46561,249.56337,941.45038,36.32395,189.30861,1009.89618
24,0.192,-16.06416,273.49881,910.24225,70.60849,249.91634,940.2677,33.09307,188.74498,1008.37201
25,0.2,-17.65028,274.07114,909.64752,68.90691,249.28108,939.36536,30.71233,189.73929,1007.92316
26,0.208,-18.27798,274.82617,908.95917,66.88747,248.77931,938.2525,27.41521,188.90842,1005.58032
27,0.217,-20.5531,275.60757,906.69965,65.16071,248.43364,937.29535,24.44134,190.09016,1003.75208
28,0.225,-21.22007,275.0867,905.99091,63.38134,248.51082,936.69263,22.14553,190.45796,1003.47705
29,0.233,-22.30001,275.91559,904.68866,61.76817,248.55798,935.40942,18.49178,189.89551,1002.89923
30,0.242,-24.69102,275.81818,904.17242,59.16941,247.98376,934.6546,16.18268,190.07228,1001.91534
31,0.25,-25.58415,276.12772,902.98169,57.51332,247.63031,934.29126,13.73104,190.28548,1000.60742
32,0.258,-26.72834,276.82333,902.60406,55.53277,247.24782,933.7627,10.36312,189.3918,1000.09082
33,0.267,-28.1177,276.83679,901.70532,53.78786,246.64702,932.96893,7.99883,190.02457,998.66187
34,0.275,-29.48119,277.39392,901.14276,53.02937,246.71526,932.59064,6.94997,189.15453,996.72198
35,0.283,-30.10486,277.21445,900.65802,51.18237,245.83055,932.07007,3.14113,189.13815,996.1958
36,0.292,-31.04909,277.35257,899.54572,48.83085,244.08521,931.87329,0.7958,189.54985,995.09296
37,0.3,-32.0671,277.49994,899.12207,47.70319,243.53148,931.92133,-1.21219,189.1609,994.78424
38,0.308,-33.9588,276.75305,897.78735,46.47539,243.37596,931.52045,-4.83446,188.37131,995.02496
39,0.317,-34.11162,276.73129,897.8786,44.76974,242.95403,931.44531,-6.92137,188.98944,993.71143
40,0.325,-34.50098,276.68579,897.72858,43.6923,242.08981,931.47699,-8.79428,189.55917,993.85895
41,0.333,-35.36208,277.1178,897.2196,41.90273,241.94365,931.53857,-12.22227,188.99355,994.17468
42,0.342,-36.9118,278.70618,897.00916,40.30479,241.77536,931.3103,-14.98482,189.38271,993.09033
43,0.35,-37.76568,278.17465,896.90057,39.63721,241.92053,931.39307,-15.98969,188.22696,991.64917
44,0.358,-37.98631,278.25565,896.93286,37.34249,240.58704,931.73627,-18.53469,187.67674,990.95734
45,0.367,-38.96481,277.39954,896.36395,36.16808,240.40012,932.07904,-20.93296,187.69289,991.54517
46,0.375,-39.01313,277.53912,896.26306,35.05671,240.12822,932.23651,-21.85424,188.14699,990.90936
47,0.383,-40.82996,276.66061,895.72723,33.87595,239.84021,932.70428,-24.50403,187.88577,990.37146
48,0.392,-41.46077,277.23517,895.9873,33.16558,239.1048,933.20563,-25.6967,187.84828,989.87341
49,0.4,-41.98771,277.50015,896.23431,32.07885,238.86357,933.25793,-27.00813,187.48415,990.04321
50,0.408,-42.66227,277.3475,896.62634,30.70039,238.81726,933.00616,-29.50402,188.22159,990.6333
51,0.417,-43.42141,277.69937,896.65576,29.51088,237.83736,932.97601,-30.24208,187.59084,989.32819
52,0.425,-43.75685,277.77249,896.70087,28.53199,237.6228,933.61169,-31.02906,187.91879,989.43201
53,0.433,-43.97758,277.85367,896.73334,28.36217,237.45833,933.69684,-33.45714,187.82516,989.5965
54,0.442,-43.97758,277.85367,896.73334,27.81518,237.57936,934.02002,-34.19493,187.84999,989.07587
55,0.45,-43.93201,277.63895,896.91223,27.07492,237.78853,934.32062,-34.67509,187.14272,989.24597
56,0.458,-43.93201,277.63895,896.91223,25.90544,237.7755,934.32269,-35.23869,187.71059,988.95801
57,0.467,-43.93201,277.63895,896.91223,25.80152,237.56508,934.29596,-37.07721,188.00395,989.61176
58,0.475,-44.41119,277.33359,897.10632,24.77201,237.46204,934.49725,-36.32306,187.1064,988.11719
59,0.483,-46.0563,276.45801,896.87701,24.44331,237.21968,934.60681,-36.89338,187.47357,987.96729
60,0.492,-46.00235,276.93781,897.64197,24.33193,237.1321,934.63403,-38.66948,187.8918,987.75037
61,0.5,-46.00235,276.93781,897.64197,24.26886,236.98351,934.60016,-38.85859,188.04453,988.0863
62,0.508,-46.55547,276.11902,897.78455,24.26886,236.98351,934.60016,-39.15714,187.58479,988.06012
63,0.517,-46.73251,276.16806,897.82513,24.26886,236.98351,934.60016,-40.66525,188.0529,989.07373
64,0.525,-46.33352,276.81882,898.50635,23.94665,237.12781,934.46857,-39.78942,187.69638,988.02423
65,0.533,-46.3577,276.9129,898.85626,23.47013,236.62675,934.46997,-39.93127,187.80418,987.96924
66,0.542,-46.76607,277.30289,899.24231,23.30361,236.40276,934.42712,-40.31308,187.32953,987.57751
67,0.55,-47.17062,277.49936,899.22083,23.1369,236.64073,934.61591,-40.63017,187.5941,987.73102
68,0.558,-47.17062,277.49936,899.22083,22.54483,236.73875,934.73077,-40.61607,187.47371,987.43756
69,0.567,-47.18681,277.32196,899.4007,22.24712,236.24837,934.87366,-41.5291,187.51547,987.07086
70,0.575,-47.33309,277.55875,899.58435,22.02662,236.35278,934.93225,-42.08386,187.34189,986.81842
71,0.583,-47.33309,277.55875,899.58435,21.7314,235.95596,934.99805,-42.56001,187.05492,987.04578
72,0.592,-47.57407,277.77197,899.77545,21.5417,235.84412,935.09991,-43.3682,187.20375,987.05872
73,0.6,-47.57407,277.77197,899.77545,21.00848,235.89575,935.14386,-43.3682,187.20375,987.05872
74,0.608,-48.06094,276.86838,899.94812,20.9168,235.16878,935.1319,-43.51517,187.37021,987.21857
75,0.617,-48.17152,276.97012,900.14795,20.68757,234.89386,935.24744,-43.94587,187.20113,987.04663
76,0.625,-48.17152,276.97012,900.14795,20.60481,234.71817,935.07446,-44.16428,186.97614,987.27789
77,0.633,-48.26177,276.92038,900.2345,20.30595,234.5542,935.13983,-44.36497,186.70123,987.27161
78,0.642,-48.26177,276.92038,900.2345,20.14813,234.31979,935.0661,-44.50274,186.69846,987.11145
79,0.65,-48.26177,276.92038,900.2345,20.14813,234.31979,935.0661,-44.93025,186.91066,987.38068
80,0.658,-48.50784,275.2222,900.08881,19.70052,234.18979,935.44891,-45.07367,187.01669,987.32855
81,0.667,-48.67022,275.21176,900.16888,19.62273,234.22757,935.54364,-45.38576,187.10965,987.04761
82,0.675,-48.61125,275.11523,900.24292,19.31319,234.41188,935.60266,-45.38576,187.10965,987.04761
83,0.683,-48.61125,275.11523,900.24292,19.4137,234.34326,935.63593,-45.38576,187.10965,987.04761
84,0.692,-48.62649,274.84708,900.44104,19.4137,234.34326,935.63593,-45.86871,186.74046,987.00525
85,0.7,-48.49353,276.289,901.00897,19.75706,233.59235,935.68158,-45.86871,186.74046,987.00525
86,0.708,-48.8265,274.86957,900.5036,19.65472,233.68861,935.76746,-45.56957,187.19958,987.03162
87,0.717,-48.85259,274.67926,900.71082,19.65472,233.68861,935.76746,-45.56957,187.19958,987.03162
88,0.725,-49.05309,274.4053,900.69904,19.64928,233.67558,935.6424,-45.56957,187.19958,987.03162
89,0.733,-49.04737,274.43405,900.95422,19.61245,233.69496,935.78082,-45.86871,186.74046,987.00525
90,0.742,-49.12535,274.34195,900.79553,19.72269,233.6114,935.81927,-45.86871,186.74046,987.00525
91,0.75,-48.9006,274.31747,900.95459,19.61245,233.69496,935.78082,-45.86871,186.74046,987.00525
92,0.758,-49.04737,274.43405,900.95422,19.42633,233.61636,935.74139,-45.86871,186.74046,987.00525
93,0.767,-49.04737,274.43405,900.95422,19.39866,233.28705,935.20001,-45.86871,186.74046,987.00525
94,0.775,-49.04737,274.43405,900.95422,19.40273,233.10463,935.11853,-46.33968,186.77818,986.56958
95,0.783,-49.04737,274.43405,900.95422,19.29143,233.14259,935.00891,-46.31462,186.48633,986.50494
96,0.792,-49.04737,274.43405,900.95422,19.40273,233.10463,935.11853,-46.91437,185.90921,986.40326
97,0.8,-49.04737,274.43405,900.95422,19.19306,232.89778,934.97803,-46.91437,185.90921,986.40326
98,0.808,-48.82262,274.40958,901.11322,19.09858,232.78171,935.04285,-47.49644,185.71498,986.19049
99,0.817,-48.72334,275.58688,901.56055,19.18163,232.29561,935.02173,-47.26563,184.8327,987.7215
100,0.825,-48.72334,275.58688,901.56055,19.02499,232.34395,934.87384,-47.64318,185.67323,986.05237
101,0.833,-48.72334,275.58688,901.56055,18.88375,232.01775,934.7998,-47.75221,185.40034,986.15289
102,0.842,-48.5621,275.64624,901.72498,19.06849,231.90372,934.83588,-47.82661,185.2112,985.97626
103,0.85,-48.5621,275.64624,901.72498,18.93995,231.76552,934.7934,-48.01602,185.11722,985.83191
104,0.858,-48.5621,275.64624,901.72498,18.78788,231.3933,934.96228,-47.94163,185.30637,986.00861
105,0.867,-48.03462,275.00256,901.7287,18.78788,231.3933,934.96228,-48.01602,185.11722,985.83191
106,0.875,-48.03462,275.00256,901.7287,19.00367,231.26941,935.16467,-47.9715,184.68626,985.8288
107,0.883,-47.75172,274.49069,901.82239,19.4992,230.5417,935.48712,-47.04778,184.44141,985.78302
108,0.892,-46.99212,274.28879,901.83759,19.4992,230.5417,935.48712,-47.04778,184.44141,985.78302
109,0.9,-46.84065,273.94894,901.93225,19.70364,230.46663,935.68671,-47.04778,184.44141,985.78302
110,0.908,-46.84065,273.94894,901.93225,19.84895,230.27562,935.9104,-46.49452,184.31268,985.73096
111,0.917,-45.89351,273.73862,902.71045,20.21849,229.7442,936.23395,-45.99137,183.64279,987.13312
112,0.925,-45.47464,273.62848,902.97656,20.86414,229.56613,936.6131,-45.70692,184.00993,986.30408
113,0.933,-45.47464,273.62848,902.97656,21.65191,229.48264,936.79938,-45.43858,183.5592,986.41248
114,0.942,-45.34142,273.29456,903.22467,22.70548,229.81334,937.20575,-44.36771,183.07375,988.38275
115,0.95,-44.64959,274.60785,904.11633,23.36307,230.10269,937.46399,-42.83962,183.53596,987.71625
116,0.958,-43.76343,274.78735,904.96307,23.78922,230.47549,937.96948,-41.26854,182.99167,989.03375
117,0.967,-42.46015,273.564,905.32312,25.28474,230.44611,937.86414,-40.65559,183.63327,990.21936
118,0.975,-41.91337,272.69742,905.59967,26.46535,230.116,938.78589,-38.71403,183.03557,991.10907
119,0.983,-40.20102,272.96494,906.34888,27.60972,230.21872,939.5213,-37.11294,182.35052,991.44678
120,0.992,-39.4463,273.30582,907.16217,29.0655,230.13,942.07684,-37.21664,184.30809,993.42554
121,1,-38.67546,272.60129,907.4444,31.42815,230.47894,942.85388,-35.23103,183.30656,995.47021
122,1.008,-37.58228,272.89215,908.70758,32.48077,231.61511,944.229,-31.34648,181.7034,996.67938
123,1.017,-36.45846,271.94183,908.98364,34.628,232.008,946.27374,-28.46466,180.30885,997.00037
124,1.025,-34.95351,272.35471,910.89801,36.44159,232.13814,947.66455,-26.99942,180.3497,1000.26038
125,1.033,-33.85483,271.83731,912.63324,37.73437,231.9823,949.84772,-24.78109,178.66534,1001.409
126,1.042,-32.11468,272.90616,913.84802,39.29168,233.55339,951.85516,-22.28238,179.25357,1003.63837
127,1.05,-31.59832,272.4371,915.01086,41.54104,234.1304,954.49945,-19.40042,177.90962,1005.25275
128,1.058,-30.98798,271.84634,917.7074,42.88236,234.53761,956.79041,-17.29799,175.43173,1007.08929
129,1.067,-28.95936,271.18594,919.22205,44.36737,236.06238,959.4173,-15.48915,175.53596,1011.08362
130,1.075,-27.9342,270.45688,920.92963,46.54771,235.94414,962.36731,-11.09733,174.55428,1012.61993
131,1.083,-26.99109,269.12543,923.84698,47.90619,236.22676,964.52075,-6.85867,172.83989,1014.7663
132,1.092,-24.73709,268.00729,925.25549,51.0742,236.59372,968.1153,-4.51929,171.09355,1016.7876
133,1.1,-23.42683,267.26718,928.51672,52.7926,237.56381,970.79578,-0.45389,168.9747,1019.85748
134,1.108,-21.14161,264.77408,930.44897,55.6352,237.26357,973.43237,3.88958,169.06992,1022.97919
135,1.117,-19.08031,264.81335,934.15576,58.07533,237.01494,976.88428,6.40714,166.53256,1025.86438
136,1.125,-16.82627,263.69644,936.72888,60.17651,237.31215,980.32874,10.9679,164.54558,1027.96729
137,1.133,-15.03771,262.64761,939.36414,62.42979,236.30318,982.56207,13.67606,162.82655,1031.32898
138,1.142,-13.72102,261.42181,942.66193,64.48147,236.59863,986.42035,17.00423,161.46022,1033.26123
139,1.15,-12.55507,260.34998,945.58783,66.96368,236.99509,989.00464,21.22319,159.57315,1035.24207
140,1.158,-9.77775,258.58151,948.37067,69.0169,236.75223,993.01758,23.89604,156.26155,1037.23242
141,1.167,-7.3287,257.33417,951.37286,69.65612,236.65688,996.2193,27.04568,153.59744,1039.39978
142,1.175,-7.23827,255.04826,954.47394,70.84116,236.19946,1000.11139,30.78967,150.42764,1041.25549
143,1.183,-4.32846,253.34361,957.41248,72.12407,235.56396,1003.29871,35.15652,148.30914,1043.51062
144,1.192,-1.76468,252.14465,959.37738,73.65009,234.25592,1006.0412,38.19724,146.69792,1046.40588
145,1.2,0.43758,249.66022,962.62817,75.46764,233.92871,1010.54852,43.07817,144.55263,1049.82581
146,1.208,-0.5339,246.64772,966.35675,77.19678,233.37724,1013.93304,47.56355,142.58401,1051.09766
147,1.217,1.95537,244.21472,968.88483,79.95869,232.26091,1016.54236,50.94476,141.51941,1055.79749
148,1.225,4.01135,242.1774,972.77985,82.46977,230.77267,1020.22876,54.58169,141.3199,1058.36035
149,1.233,6.15447,240.19189,975.30737,85.06973,229.90761,1022.64227,59.02538,137.32755,1062.53381
150,1.242,8.75289,238.16452,978.76379,87.96906,228.12222,1026.62891,62.90389,135.85655,1064.03491
151,1.25,10.84881,236.85588,982.73248,89.19102,227.73517,1028.72278,67.10966,134.76993,1066.25745
152,1.258,12.98766,234.73662,985.83569,93.09297,226.11774,1031.99268,71.66222,132.11682,1068.50793
153,1.267,14.55791,233.44418,988.95306,95.22649,225.1804,1035.05042,75.07294,128.25528,1070.41345
154,1.275,17.03246,231.75993,992.51831,97.2539,222.9967,1037.96558,79.25916,126.69074,1071.33191
155,1.283,19.06945,228.95403,995.37775,99.65321,221.24124,1040.89514,83.19742,124.24529,1073.30457
156,1.292,20.59936,227.46202,998.83398,101.15166,219.42363,1043.97021,86.82455,120.37055,1075.29333
157,1.3,21.10561,224.98256,1001.21985,102.67525,218.15508,1046.51941,91.42246,118.0606,1076.8811
158,1.308,23.66013,221.30814,1004.62701,105.02707,215.63467,1049.45471,96.18588,116.8289,1079.02869
159,1.317,24.80573,218.82191,1006.89355,106.2163,214.0294,1052.22205,98.89934,115.14352,1080.4856
160,1.325,27.39939,216.69167,1008.90125,108.66132,213.2955,1054.07703,103.70226,111.95049,1082.36658
161,1.333,28.64405,213.86133,1012.17365,110.32179,211.09303,1056.33997,107.92428,110.27113,1085.6344
162,1.342,31.28335,210.82298,1013.99249,113.25507,209.30475,1059.4054,110.61704,110.54654,1087.18469
163,1.35,32.72869,207.70132,1017.77417,115.39525,208.3945,1060.48267,115.22184,107.45564,1088.71301
164,1.358,36.15411,206.07164,1019.60583,117.98767,206.04834,1062.48535,119.87891,105.67586,1089.67749
165,1.367,37.08368,204.70839,1020.9707,120.50435,204.68726,1065.11121,121.92234,104.32238,1090.37708
166,1.375,39.03571,201.12209,1024.64136,121.92505,203.20558,1065.60242,126.81805,103.03636,1092.8103
167,1.383,40.7236,199.46706,1026.2522,124.96245,202.23459,1067.7085,130.8167,99.80392,1093.11023
168,1.392,42.8386,196.38896,1028.29504,127.22121,201.04668,1068.90247,132.76617,98.31149,1093.70728
169,1.4,43.93016,194.03467,1031.24231,129.09764,198.84337,1070.64954,136.64832,95.27026,1093.9939
170,1.408,44.71316,192.43748,1032.74683,130.34003,197.17604,1072.01929,141.52875,95.14285,1096.20129
171,1.417,47.35955,190.103,1033.66675,133.11923,195.23349,1073.33826,144.30652,93.34583,1095.81079
172,1.425,47.83225,187.32582,1035.0354,134.17174,193.61801,1074.31323,147.99464,91.74258,1096.73425
173,1.433,50.0566,184.47713,1037.17761,136.15361,191.7135,1075.58374,150.08916,90.21594,1097.46021
174,1.442,51.28643,183.80255,1038.78821,137.82463,190.38774,1076.83862,153.84938,87.74275,1098.43542
175,1.45,54.00368,180.41873,1040.03381,139.76984,189.65694,1077.74072,157.35229,87.73513,1099.06238
176,1.458,55.3492,178.40385,1041.48804,141.03531,186.85217,1079.72717,159.98547,85.85726,1099.30334
177,1.467,55.51654,176.09227,1043.12708,143.67847,185.07315,1079.95056,164.47673,84.56011,1098.41333
178,1.475,57.28267,173.31264,1044.92578,145.15587,184.33032,1079.96033,167.16928,82.06894,1098.82581
179,1.483,58.73645,170.93987,1046.79578,146.19827,182.33057,1081.11487,169.92712,83.09499,1098.51099
180,1.492,59.37032,169.26843,1047.58862,147.86433,181.2654,1081.14905,173.81873,80.04195,1097.68225
181,1.5,61.66913,167.38986,1048.45996,148.76903,178.80159,1082.19983,176.52036,80.11584,1097.33411
182,1.508,61.86219,165.80356,1050.38904,150.45923,177.44632,1082.89478,179.5352,78.18791,1097.38684
183,1.517,63.81742,165.02963,1052.16235,152.65208,176.1021,1082.51563,181.2487,76.88983,1097.28296
184,1.525,65.23073,161.54718,1052.6897,153.54012,175.05833,1083.15259,184.84564,74.26136,1097.10706
185,1.533,66.69636,158.86652,1053.13428,154.30504,174.36418,1083.3728,186.88684,75.37644,1096.83142
186,1.542,66.67139,156.74857,1054.18958,156.22386,172.90329,1084.07861,190.09354,73.99975,1096.66846
187,1.55,68.15419,154.69217,1054.62451,157.75017,170.29152,1084.70923,191.81688,73.15025,1096.46582
188,1.558,70.24724,152.82214,1054.90393,158.38406,169.25235,1085.31897,193.90005,71.67237,1097.5166
189,1.567,70.78276,150.98874,1056.96094,159.71808,168.36745,1085.33936,196.59253,69.50031,1097.80835
190,1.575,71.69247,148.58275,1057.55042,161.37469,167.2547,1085.13147,198.49925,69.72207,1096.87671
191,1.583,73.88597,146.83533,1058.39319,162.0674,166.41359,1085.24683,200.2626,68.87662,1096.97278
192,1.592,74.27203,145.17932,1058.39087,162.79964,164.54958,1085.33228,203.76883,67.37676,1097.22852
193,1.6,74.57551,144.09727,1058.9823,164.56631,163.45644,1084.75635,205.24515,67.56378,1096.77979
194,1.608,76.33002,141.1503,1059.84033,165.14983,162.20735,1085.05029,206.26756,66.80213,1095.91907
195,1.617,76.72503,139.70938,1059.82971,166.15805,160.884,1085.68481,210.14825,65.97589,1095.33459
196,1.625,77.69327,137.63423,1060.02661,166.49077,160.52238,1085.85107,210.32364,64.23463,1094.9436
197,1.633,79.66277,135.20979,1060.35889,167.24742,158.84096,1085.77747,212.01668,62.73618,1094.25073
198,1.642,79.94097,133.41402,1060.93127,168.84042,157.42007,1085.21716,213.70319,61.86901,1094.50537
199,1.65,80.38274,132.31021,1062.00208,169.80846,156.90327,1085.39941,216.27299,61.83177,1094.21729
200,1.658,81.01138,131.79059,1062.59717,170.57874,155.95808,1085.47705,218.13177,62.08743,1094.42688
201,1.667,82.05061,129.44519,1063.19019,171.00554,155.61896,1085.02332,218.45363,62.30535,1094.51221
202,1.675,83.17248,126.64307,1063.70581,171.88338,154.79004,1084.81067,220.83806,61.73443,1094.20618
203,1.683,83.58684,126.06344,1063.99426,172.95331,153.89807,1085.03149,222.71144,61.27584,1093.38647
