Frame#,Time,R.Forearm.x,R.Forearm.y,R.Forearm.z,R.Ulna.x,R.Ulna.y,R.Ulna.z,R.Radius.x,R.Radius.y,R.Radius.z
1,0,1660.8949,285.63022,1066.45801,1655.14722,321.87384,964.78088,1613.24158,245.19183,928.99249
2,0.008,1657.43579,286.04916,1065.50439,1652.75854,323.72055,963.60974,1610.34534,245.90411,928.19427
3,0.017,1654.4679,285.98318,1064.6283,1649.10791,324.94485,962.16614,1604.22607,248.59471,928.98291
4,0.025,1649.97827,286.99365,1062.71753,1646.46484,325.49182,959.6828,1600.97083,249.49428,927.69403
5,0.033,1646.59314,291.32867,1061.67761,1644.76306,326.28577,958.73737,1594.55505,251.89691,927.79578
6,0.042,1641.9751,293.16693,1061.58521,1642.84985,327.10696,957.04333,1590.94678,251.9548,924.94116
7,0.05,1639.14734,293.72455,1060.25879,1639.69885,327.2934,955.68103,1587.05615,254.04321,925.41571
8,0.058,1634.62122,294.78989,1060.31396,1638.68408,327.90878,954.3233,1583.71545,255.3268,925.1236
9,0.067,1632.49658,296.405,1059.29858,1633.32275,328.53998,953.75012,1576.23083,257.21735,927.62463
10,0.075,1626.67358,298.72577,1058.39124,1631.41138,329.47375,952.67609,1570.03967,260.10092,926.98633
11,0.083,1623.37976,300.99377,1057.91003,1626.65088,329.08118,952.01593,1567.06616,259.25281,926.81207
12,0.092,1618.4408,301.90732,1057.4884,1620.91028,328.74207,951.58234,1562.21875,260.76324,923.32251
13,0.1,1613.33167,299.97278,1057.16797,1616.36133,330.77243,951.13147,1557.0658,259.79514,922.91437
14,0.108,1608.78113,300.39175,1056.06091,1611.09705,331.99127,950.86517,1554.39001,256.84637,922.09485
15,0.117,1604.29211,299.61569,1054.44434,1604.1864,331.32645,950.30432,1551.95557,257.56201,922.14685
16,0.125,1598.7074,300.73749,1054.7644,1598.16785,332.23154,950.20453,1545.78076,257.81412,920.58746
17,0.133,1593.97253,300.43942,1052.91003,1592.74829,333.25299,949.82727,1541.78833,256.73041,919.13995
18,0.142,1588.21716,299.43097,1051.89783,1584.6897,333.16312,948.85944,1537.52454,258.10419,918.91925
19,0.15,1581.89185,299.85464,1050.62793,1578.96594,334.05298,948.62854,1532.11926,257.12564,916.51746
20,0.158,1576.1947,300.60303,1049.80518,1572.63696,334.31442,948.53229,1528.1571,257.20657,913.78784
21,0.167,1570.28967,300.29279,1049.04443,1564.21863,335.91843,946.63025,1523.33179,259.29541,912.42078
22,0.175,1562.90918,302.90915,1047.03577,1558.16187,338.21558,945.41351,1514.03162,261.16504,911.63513
23,0.183,1555.74866,305.13544,1045.83557,1553.97253,339.76459,943.49628,1506.6543,261.15454,909.73199
24,0.192,1549.91736,307.13586,1044.63074,1546.31262,339.6983,941.24097,1501.82593,263.47388,909.83691
25,0.2,1542.2948,308.20587,1042.64917,1541.9281,341.2518,940.26892,1495.08813,266.17566,909.13531
26,0.208,1534.67407,311.54031,1042.56042,1534.77258,344.08661,938.22308,1484.60132,269.13199,908.19794
27,0.217,1528.29236,314.46262,1042.03235,1529.54346,346.26566,936.46613,1474.26294,270.50305,908.50067
28,0.225,1521.94788,316.34009,1040.52942,1524.2019,347.19366,935.71295,1469.45642,273.96796,908.96967
29,0.233,1513.20227,321.3208,1040.72437,1517.62207,347.13287,935.74792,1456.75549,277.00186,908.51465
30,0.242,1505.94373,321.84637,1041.06738,1510.30298,349.82556,935.05023,1449.3678,278.24054,908.00507
31,0.25,1498.2417,322.65424,1041.62256,1502.92395,352.27661,935.0238,1443.81323,280.24063,908.93506
32,0.258,1491.27576,326.12598,1042.54517,1495.71606,353.01535,935.51843,1434.38318,283.85431,911.92981
33,0.267,1483.26648,328.21811,1044.60107,1488.44104,353.88333,936.57959,1426.15015,284.50522,913.60004
34,0.275,1476.25793,328.68369,1045.84241,1480.77551,356.64322,938.34125,1419.12317,285.83316,913.43964
35,0.283,1469.33765,329.46765,1046.55591,1471.48059,357.14792,940.72894,1408.49365,285.97345,916.22333
36,0.292,1459.37256,334.64975,1049.86401,1463.41125,358.66006,941.81946,1406.29993,285.61734,916.54639
37,0.3,1452.72876,333.54617,1050.76196,1455.03174,360.06964,944.58221,1399.83093,284.49268,917.20355
38,0.308,1445.06287,335.00537,1052.04553,1443.08618,362.82108,946.2392,1392.04688,285.30673,917.61346
39,0.317,1435.67896,335.06805,1054.1344,1434.49988,365.64969,947.58423,1383.44629,287.54309,922.29938
40,0.325,1428.6333,337.70801,1055.42651,1424.4812,365.14236,950.61578,1376.08484,288.02896,922.30188
41,0.333,1420.48181,340.27969,1056.95032,1414.6095,366.49167,951.47626,1369.30396,288.19272,923.31256
42,0.342,1412.39258,339.15634,1058.57581,1405.13318,368.53561,954.07654,1360.82715,289.74905,924.11066
43,0.35,1403.95129,340.29642,1059.42786,1395.56311,370.78329,955.15405,1354.75354,288.62451,925.37793
44,0.358,1396.89185,340.02496,1060.04614,1385.37598,371.15979,956.17682,1347.35217,289.73639,927.35101
45,0.367,1389.17493,342.19025,1059.79077,1377.54236,374.50879,957.23792,1341.41028,291.26529,926.7356
46,0.375,1380.97705,344.62149,1060.50098,1367.55615,375.68051,958.19379,1330.17712,292.77823,927.86328
47,0.383,1373.22546,345.67319,1062.10608,1360.01685,377.2272,958.76331,1323.23389,295.55411,928.93787
48,0.392,1366.63391,348.03586,1062.59424,1353.15149,380.36624,959.60571,1313.32104,298.04974,930.97778
49,0.4,1359.39355,349.94333,1062.52209,1344.67651,382.05841,959.17767,1304.18701,299.87607,932.45856
50,0.408,1350.93677,351.64926,1062.78638,1337.97168,382.7785,959.42487,1295.78552,302.06909,932.90558
51,0.417,1345.2616,352.92126,1062.8335,1331.34094,384.82449,959.08472,1287.46545,302.58151,934.75372
52,0.425,1337.28418,357.70801,1063.10229,1323.93787,386.61569,958.66656,1278.96497,307.24042,935.94855
53,0.433,1330.25598,360.26123,1063.43408,1317.67969,387.65906,958.57233,1270.08936,308.54733,936.83478
54,0.442,1322.646,362.16028,1064.73816,1310.95984,389.41882,959.5329,1262.48999,308.57806,938.9787
55,0.45,1317.37549,362.11224,1064.79272,1304.69348,391.19055,959.83081,1252.81104,313.02496,940.4137
56,0.458,1310.78064,365.49655,1065.19519,1296.55237,392.30374,960.06738,1245.82007,312.79196,940.86267
57,0.467,1304.37097,367.12073,1065.0813,1290.14148,393.60385,960.14697,1238.30188,314.63129,942.23401
58,0.475,1296.4751,367.23062,1066.83984,1282.57617,394.5289,960.46625,1230.99915,314.82147,944.24927
59,0.483,1290.10229,369.36032,1067.50183,1276.3446,394.75,961.16309,1223.5498,314.86667,944.76965
60,0.492,1283.00757,370.64948,1067.62781,1268.97705,396.13495,962.13782,1218.57373,315.04092,944.43207
61,0.5,1277.56909,369.96762,1068.23584,1260.5105,395.95416,963.547,1211.91626,315.53201,945.17053
62,0.508,1271.74768,370.3009,1068.33484,1252.72424,396.79538,964.67468,1205.51111,315.4418,945.41736
63,0.517,1264.46985,369.36771,1069.33167,1244.33044,396.85538,965.49646,1199.80737,314.80786,945.30176
64,0.525,1258.36035,368.43372,1069.74658,1236.5813,397.69565,966.13434,1193.49207,312.99744,944.414
65,0.533,1251.76025,368.73068,1070.44226,1228.4873,398.07614,968.74469,1188.09644,314.60272,944.01331
66,0.542,1245.47424,367.69223,1071.12891,1221.63159,397.85672,969.68091,1181.7229,313.2749,944.15472
67,0.55,1239.31897,367.88028,1070.64709,1214.87878,397.91925,970.29236,1176.89502,313.62875,944.87354
68,0.558,1233.7876,366.93457,1070.75012,1207.72009,396.3877,969.99799,1170.84094,313.27267,944.76147
69,0.567,1228.03625,367.12305,1070.20544,1201.3009,397.63858,970.76312,1164.39392,314.05542,945.93524
70,0.575,1223.10071,368.47455,1070.41992,1195.67651,396.06769,970.18213,1158.24841,313.99658,944.99689
71,0.583,1217.22705,367.8006,1069.50989,1189.50415,398.68561,970.39526,1151.48743,313.54437,946.62982
72,0.592,1211.13098,369.39197,1069.28833,1185.44238,399.26218,970.39197,1144.77405,314.37167,946.48798
73,0.6,1205.65869,370.57849,1069.78137,1178.55835,399.07333,969.59515,1139.26489,314.03412,948.71863
74,0.608,1199.01709,371.552,1068.63586,1174.09302,399.36481,968.68512,1131.9408,314.84863,950.44916
75,0.617,1194.31897,371.74722,1069.48071,1168.98645,399.46158,967.25323,1124.10681,315.0278,951.70807
76,0.625,1188.71985,374.28867,1069.06494,1163.23047,399.89185,966.04639,1118.62354,316.80432,952.6059
77,0.633,1182.91296,375.74835,1068.94971,1159.47778,400.38535,965.4184,1110.18787,316.23004,952.7475
78,0.642,1177.50012,375.08774,1069.09351,1152.83154,399.98788,963.99536,1104.25977,318.284,954.367
79,0.65,1171.91064,378.0094,1067.94055,1147.75903,399.87897,964.14362,1097.95703,318.10574,955.25891
80,0.658,1167.06348,377.73074,1067.43481,1141.59277,399.75842,962.95129,1091.00061,318.05591,955.05963
81,0.667,1160.59827,377.75647,1067.15552,1136.73792,399.42722,962.51721,1085.80225,317.66214,955.00604
82,0.675,1155.06763,379.32782,1066.72986,1130.81006,398.70096,961.80811,1079.28882,317.60931,954.7547
83,0.683,1148.43164,376.92697,1066.36646,1123.70874,398.26334,961.93262,1073.0415,316.57599,954.54907
84,0.692,1143.54431,376.60269,1066.54944,1116.95313,396.76099,961.43176,1067.76489,316.46848,954.59949
85,0.7,1137.87378,375.26501,1066.40405,1109.87207,396.98257,962.23907,1061.61902,313.62177,953.58984
86,0.708,1131.08081,373.94101,1065.96033,1102.32764,396.31299,963.44501,1056.41821,311.44699,953.6228
87,0.717,1126.57996,372.29843,1065.45752,1095.2749,394.47653,963.36383,1052.0177,310.77859,951.5282
88,0.725,1120.21936,370.4585,1065.33337,1087.47278,394.31097,965.4502,1045.77795,308.51871,951.74707
89,0.733,1114.31262,368.55219,1065.03149,1080.30823,392.37985,965.25708,1041.25537,308.4863,950.10968
90,0.742,1108.70313,366.422,1065.25439,1073.62903,391.40012,965.30334,1035.81909,305.97504,949.63959
91,0.75,1101.94873,366.19595,1064.52551,1066.39111,389.92801,966.42395,1029.60193,305.00699,949.4657
92,0.758,1096.79211,364.28571,1064.32043,1060.03406,389.76004,967.02716,1024.26318,304.05542,949.35315
93,0.767,1091.02515,363.41064,1064.03101,1053.63452,387.67038,966.46167,1016.48944,301.95682,950.59387
94,0.775,1084.73035,361.78485,1064.28015,1048.50854,386.74146,967.08167,1011.37469,301.41479,951.60175
95,0.783,1079.58057,362.82175,1063.84058,1042.18896,387.22928,965.8443,1001.43616,299.85391,955.05951
96,0.792,1072.7334,362.18469,1063.37024,1038.48376,384.42535,964.00391,993.99567,298.61911,956.77069
97,0.8,1067.38452,362.90121,1064.04272,1033.28088,383.1655,963.19702,988.17273,299.16422,957.05255
98,0.808,1061.11841,362.31357,1063.9397,1028.55164,382.28445,962.63184,980.74854,297.85358,959.50531
99,0.817,1056.18372,363.27536,1063.91675,1022.79529,381.60339,961.8869,974.77936,299.12781,960.89777
100,0.825,1050.92175,363.4166,1065.29309,1017.85876,381.31931,961.69806,966.87769,297.50543,961.70697
101,0.833,1043.90942,362.58023,1064.5741,1012.45471,380.50839,961.94415,961.4743,297.37042,963.39752
102,0.842,1038.65295,362.74753,1065.15198,1008.08044,379.10092,961.59857,954.81622,297.53583,964.62897
103,0.85,1033.42847,361.60776,1065.2196,1001.8028,377.28833,962.4964,948.74005,297.84613,965.55334
104,0.858,1026.9541,361.53799,1065.28113,996.45148,377.3107,962.5061,943.91772,296.92865,965.65839
105,0.867,1021.30573,360.26022,1066.63159,990.61078,375.51993,963.573,937.96338,294.76727,966.08655
106,0.875,1015.4411,358.60291,1066.79297,983.99658,374.96118,964.88489,932.9328,292.27621,965.5755
107,0.883,1010.33337,357.23163,1067.99768,977.69873,375.06512,967.02228,927.64954,291.52689,965.36279
108,0.892,1004.28766,354.07834,1069.11072,971.39423,372.76056,967.94922,922.86218,289.7084,964.56921
109,0.9,998.86353,351.91638,1068.97266,964.47821,372.93799,969.47137,918.15942,288.815,963.41016
110,0.908,992.63043,349.61557,1070.37659,958.71588,372.1041,970.08197,913.02496,286.81946,962.46423
111,0.917,985.93396,347.77386,1070.90149,951.80365,371.09006,971.81995,908.4306,285.41034,962.47437
112,0.925,980.01178,346.03479,1071.38513,946.14581,370.27054,972.18176,903.13257,284.70111,960.50604
113,0.933,974.99316,342.80881,1072.33179,940.9657,369.58179,973.08636,897.95105,283.98904,961.05389
114,0.942,969.63171,341.81656,1072.11865,935.67645,368.52039,973.80121,895.08435,283.50497,956.82446
115,0.95,964.48438,339.88629,1072.68811,930.40387,369.24496,975.30841,889.13403,282.62729,955.12317
116,0.958,959.56903,338.78259,1074.27588,926.82941,368.73132,975.77026,887.66486,282.70337,954.86987
117,0.967,953.10864,337.28424,1074.89209,922.98016,368.41907,977.00433,882.12067,283.64172,954.7149
118,0.975,947.9552,337.1373,1076.203,920.09528,368.19363,977.93634,880.45953,284.67545,955.06354
119,0.983,943.80603,336.94412,1077.27539,914.95984,367.90796,978.59955,874.47156,284.29459,955.87543
120,0.992,938.80927,337.76361,1079.13245,911.72168,368.55069,978.98407,871.60803,283.90994,955.41669
121,1,934.03333,338.08942,1080.41833,908.7821,369.21365,979.87775,863.91882,285.44064,958.38586
122,1.008,929.72516,339.44937,1081.37817,905.56964,369.50089,980.21533,861.25366,286.55853,958.74231
123,1.017,925.24866,339.64621,1082.02454,903.04083,370.1481,979.63464,856.12091,287.51828,960.57599
124,1.025,920.33051,340.85562,1083.21387,899.36469,369.81143,979.73462,850.52881,288.26596,963.37158
125,1.033,915.80682,340.1619,1083.9696,895.99634,369.19983,980.44562,848.28491,289.66711,963.19775
126,1.042,911.46069,340.77902,1084.70178,893.79022,369.50891,980.37115,842.77179,289.63654,963.52795
127,1.05,906.77222,341.07245,1084.3606,889.93762,369.64941,980.22968,838.55078,289.9158,963.32898
128,1.058,903.17078,341.42447,1085.10693,886.69934,369.32785,980.45093,833.75342,290.9068,966.0199
129,1.067,897.8114,339.526,1085.18286,883.2486,369.18698,980.81866,829.16211,291.85715,965.81964
130,1.075,893.81183,339.09174,1085.63208,878.80341,368.26666,981.6684,826.4386,290.68085,964.71277
131,1.083,889.40387,338.63205,1086.70386,875.35474,368.57272,982.18726,821.32202,289.78574,963.48584
132,1.092,885.40619,336.23587,1086.61938,869.83643,368.26187,983.08484,819.27728,288.99927,961.77191
133,1.1,880.95343,335.34644,1086.55396,865.34595,367.4856,983.33997,815.59589,288.30276,960.96332
134,1.108,877.03448,333.4682,1085.76099,860.09161,367.42908,984.06805,814.6203,287.2478,958.33691
135,1.117,872.34839,332.0159,1085.53064,855.69379,366.63074,984.39325,813.72699,287.319,955.80194
136,1.125,867.37134,331.13791,1084.98743,851.04199,366.95062,984.07465,806.00153,286.0737,954.98816
137,1.133,863.48181,329.36716,1084.35205,846.70599,366.14194,984.46484,804.30042,286.05466,954.3327
138,1.142,859.24231,330.19153,1084.80847,843.07147,365.77899,983.51923,800.89398,285.72568,952.99554
139,1.15,854.5802,328.23483,1083.24353,840.00873,366.1228,982.54749,796.17676,286.16602,952.12726
140,1.158,851.23785,327.52396,1082.37561,836.5119,364.91574,981.48907,795.31702,285.9144,948.09607
141,1.167,846.87122,327.44815,1081.02881,833.13007,364.578,980.27344,792.2597,285.18634,947.56879
142,1.175,843.84766,328.22281,1079.51868,830.66101,365.72614,978.64178,786.33252,285.99655,946.38629
143,1.183,839.64044,328.7894,1078.29907,828.12207,364.7757,977.39484,784.94312,287.08722,945.75208
144,1.192,835.40204,328.6113,1077.48584,825.81787,365.23935,975.2345,778.88165,287.73376,944.5213
145,1.2,831.86316,329.11502,1075.72058,824.01697,365.60809,973.26025,776.24225,288.1449,943.85968
146,1.208,827.12286,330.97083,1074.44788,822.21661,365.19928,971.12683,771.19708,288.61285,943.3255
147,1.217,825.5816,331.09384,1073.96753,820.28143,365.54327,969.23547,767.90131,289.22772,942.03552
148,1.225,821.3349,331.23978,1072.22632,818.67596,365.43561,967.70471,764.05194,289.66913,941.24139
149,1.233,817.49963,332.04883,1070.18945,815.51776,365.0914,966.0285,760.99988,290.52609,939.85187
150,1.242,813.61438,332.20227,1069.50159,813.95984,365.18921,964.50134,757.04126,291.97595,938.97546
151,1.25,810.66095,332.55032,1068.04846,810.91724,364.42853,962.88324,752.93231,291.75601,937.15186
152,1.258,807.51733,331.64804,1067.6604,807.84979,363.28839,962.01758,751.21075,290.91708,936.17279
153,1.267,803.58929,331.173,1066.06689,804.80951,362.65057,961.18689,749.87701,290.24634,934.45691
154,1.275,799.14166,331.50949,1064.88135,800.98071,362.60718,960.34113,744.89368,289.1279,933.83838
155,1.283,796.12988,330.83899,1064.77686,797.03455,362.30243,959.12262,742.03259,288.0318,932.07745
156,1.292,791.44476,328.97653,1063.87427,792.31201,362.0257,959.07001,739.05145,286.21658,929.98145
157,1.3,787.81921,329.02188,1062.9375,787.35968,362.04822,958.92529,736.63678,285.30618,928.17957
158,1.308,783.6767,326.90262,1061.69739,781.83563,361.69153,958.56134,734.10895,284.25473,926.5976
159,1.317,780.02716,326.65369,1061.29089,776.84619,361.47116,958.41223,729.89862,284.06192,925.34674
160,1.325,774.83508,324.43597,1060.948,772.17065,360.76962,957.71118,728.21472,284.05859,923.24316
161,1.333,771.50195,325.21625,1059.83777,767.60754,360.43161,957.62439,723.89337,282.38928,922.64679
162,1.342,766.86237,322.80374,1059.0813,762.5531,359.92307,956.60126,720.9118,282.38986,922.56488
163,1.35,762.52173,325.00687,1058.90955,757.78247,360.52155,955.8443,716.21527,281.71091,920.69177
164,1.358,758.15948,323.85699,1057.27649,754.19696,360.0304,954.99384,710.47095,281.97281,920.66278
165,1.367,753.17487,325.76001,1056.19336,749.36713,359.20093,953.62103,706.42743,281.95886,919.96118
166,1.375,748.69537,326.51007,1055.4718,745.7738,360.10388,952.01331,700.38818,283.11655,919.39594
167,1.383,744.2749,327.04065,1055.25989,742.42175,360.49692,950.91187,695.84406,284.82462,920.07471
168,1.392,740.10419,328.91788,1054.32556,738.44202,361.38068,949.84833,688.6449,284.18958,920.3551
169,1.4,735.521,329.25302,1053.21936,734.65088,361.88794,948.25153,682.39349,285.95453,921.07605
170,1.408,730.3313,332.5365,1052.60986,730.8905,362.69501,947.46417,675.38727,287.93921,921.40344
171,1.417,725.13428,332.47119,1052.172,725.68365,361.17227,946.1889,670.69385,288.23636,920.76941
172,1.425,720.17804,335.34494,1051.45007,721.18402,362.82944,945.12305,664.45459,289.53802,920.28088
173,1.433,714.90033,335.62311,1050.49609,716.08002,363.64017,944.05695,657.24127,291.11957,920.6842
174,1.442,708.8396,336.91345,1050.08826,710.22125,364.1886,943.56964,651.64795,291.85876,921.71423
175,1.45,703.31183,337.62689,1049.8949,703.51947,364.14899,941.57635,644.88727,292.34003,920.33752
176,1.458,696.46735,337.75189,1048.91846,697.56067,365.06808,942.44812,638.84375,291.83704,919.84399
177,1.467,690.10901,338.73132,1048.50513,689.29523,365.25107,942.03778,634.24884,291.05078,919.01685
178,1.475,683.875,338.50107,1048.13354,683.12872,366.63803,941.15771,628.38293,289.88303,916.86584
179,1.483,676.25049,337.21173,1047.39673,674.37909,366.85818,941.46704,623.76099,290.80444,915.22266
180,1.492,669.59216,337.31161,1047.17139,666.20447,367.36041,942.60437,617.65332,290.37302,915.48218
181,1.5,662.55878,337.22476,1046.98645,657.32324,367.91278,942.2265,610.09381,289.90054,913.55542
182,1.508,654.63721,337.52618,1046.35803,649.11871,368.78369,942.49463,603.58264,289.36414,912.09692
183,1.517,647.0755,337.61798,1046.70898,640.526,369.46555,942.6084,598.69171,289.39761,911.9621
184,1.525,640.50873,337.50586,1047.2843,632.42188,370.02899,942.98889,591.81012,289.87866,910.81812
185,1.533,632.29041,336.54871,1046.71484,625.32294,370.66702,944.06702,584.52063,290.21484,911.48517
186,1.542,624.93561,337.64749,1047.20178,617.3031,370.77139,944.02197,576.08496,291.24875,910.77399
187,1.55,618.04486,338.50333,1047.69055,610.88678,372.7551,944.87555,570.26447,291.58972,911.82764
188,1.558,610.52783,339.33502,1047.96155,603.25433,373.14557,944.78088,563.23657,293.89404,911.79425
189,1.567,603.29755,341.60532,1049.28662,596.95953,375.0213,945.60437,553.59076,295.52744,914.04749
190,1.575,595.80823,342.5097,1050.56763,590.4668,374.67831,946.46704,546.12292,297.4183,915.26367
191,1.583,588.07507,345.90189,1051.89136,583.47424,378.22272,947.21722,537.21808,298.59445,917.80023
192,1.592,580.94452,348.90405,1053.18286,577.18109,378.33786,948.17749,528.62109,300.11105,918.85052
193,1.6,573.38812,349.38193,1054.39099,569.90967,379.39368,947.73181,521.20264,300.71628,921.95935
194,1.608,566.328,351.84995,1055.09839,563.14264,380.43048,948.15625,510.60544,303.0274,924.92218
195,1.617,559.02118,354.08292,1056.65906,556.42981,380.64426,949.05115,501.79593,304.44556,926.82263
196,1.625,551.73297,356.34445,1057.14087,548.44421,382.811,950.50269,494.33319,305.81946,929.09033
197,1.633,544.2179,357.20392,1057.71912,540.5072,382.03601,950.46289,485.47171,306.42313,930.15955
