Frame#,Time,L.Forearm.x,L.Forearm.y,L.Forearm.z,L.Ulna.x,L.Ulna.y,L.Ulna.z,L.Radius.x,L.Radius.y,L.Radius.z
1,0,-240.97076,291.84729,669.76404,-170.51715,287.1781,610.9989,-141.04283,213.47821,637.49365
2,0.008,-240.94815,291.45206,669.91937,-170.33258,287.15762,611.32886,-141.04283,213.47821,637.49365
3,0.017,-240.94815,291.45206,669.91937,-170.33258,287.15762,611.32886,-141.04283,213.47821,637.49365
4,0.025,-240.94815,291.45206,669.91937,-170.33258,287.15762,611.32886,-141.04283,213.47821,637.49365
5,0.033,-240.85062,291.25635,669.95587,-170.00287,287.46027,611.61823,-141.16902,213.18439,638.43231
6,0.042,-240.85062,291.25635,669.95587,-170.00287,287.46027,611.61823,-141.16902,213.18439,638.43231
7,0.05,-240.85062,291.25635,669.95587,-170.3969,286.97543,611.41034,-141.04283,213.47821,637.49365
8,0.058,-240.7634,291.02777,670.21411,-170.66939,286.67215,611.46466,-141.04283,213.47821,637.49365
9,0.067,-240.7634,291.02777,670.21411,-170.66939,286.67215,611.46466,-141.04283,213.47821,637.49365
10,0.075,-240.89648,290.68558,670.47314,-170.66939,286.67215,611.46466,-141.16902,213.18439,638.43231
11,0.083,-240.82146,291.06812,670.09784,-170.66939,286.67215,611.46466,-141.16902,213.18439,638.43231
12,0.092,-240.73424,290.83951,670.35608,-170.66939,286.67215,611.46466,-141.48178,213.54401,637.8996
13,0.1,-240.89711,290.68927,670.34314,-170.3969,286.97543,611.41034,-141.48178,213.54401,637.8996
14,0.108,-240.89711,290.68927,670.34314,-170.66939,286.67215,611.46466,-141.60802,213.24968,638.83789
15,0.117,-241.05934,290.53531,670.46021,-170.66939,286.67215,611.46466,-141.60802,213.24968,638.83789
16,0.125,-241.49171,290.46014,670.61517,-170.66939,286.67215,611.46466,-141.60802,213.24968,638.83789
17,0.133,-241.49171,290.46014,670.61517,-170.66939,286.67215,611.46466,-141.60802,213.24968,638.83789
18,0.142,-241.27364,290.68338,670.62604,-170.66939,286.67215,611.46466,-141.60802,213.24968,638.83789
19,0.15,-241.27364,290.68338,670.62604,-170.66939,286.67215,611.46466,-141.60802,213.24968,638.83789
20,0.158,-241.27364,290.68338,670.62604,-170.66939,286.67215,611.46466,-141.60802,213.24968,638.83789
21,0.167,-241.21428,290.60254,670.99805,-170.66939,286.67215,611.46466,-141.60802,213.24968,638.83789
22,0.175,-241.43234,290.3793,670.98718,-170.68196,286.69772,611.71265,-141.60802,213.24968,638.83789
23,0.183,-241.85785,290.19736,671.33807,-170.68196,286.69772,611.71265,-141.60802,213.24968,638.83789
24,0.192,-241.85785,290.19736,671.33807,-170.68196,286.69772,611.71265,-141.60802,213.24968,638.83789
25,0.2,-241.85785,290.19736,671.33807,-170.68196,286.69772,611.71265,-141.60802,213.24968,638.83789
26,0.208,-241.85785,290.19736,671.33807,-170.62018,286.10507,611.80243,-141.60802,213.24968,638.83789
27,0.217,-241.85785,290.19736,671.33807,-170.62018,286.10507,611.80243,-141.60802,213.24968,638.83789
28,0.225,-241.75113,290.28168,671.09314,-171.0406,286.26923,611.55347,-141.60802,213.24968,638.83789
29,0.233,-242.0153,289.89386,671.26312,-171.05319,286.29477,611.80145,-141.60802,213.24968,638.83789
30,0.242,-242.25958,290.25665,671.07611,-171.05319,286.29477,611.80145,-141.60802,213.24968,638.83789
31,0.25,-242.31546,289.8819,670.89386,-171.05319,286.29477,611.80145,-141.48178,213.54401,637.8996
32,0.258,-242.20872,289.96613,670.64886,-171.0406,286.26923,611.55347,-141.60802,213.24968,638.83789
33,0.267,-242.20872,289.96613,670.64886,-171.0406,286.26923,611.55347,-141.60802,213.24968,638.83789
34,0.275,-242.31036,290.03738,670.75616,-171.0406,286.26923,611.55347,-141.60802,213.24968,638.83789
35,0.283,-242.20872,289.96613,670.64886,-171.0406,286.26923,611.55347,-141.60802,213.24968,638.83789
36,0.292,-242.20872,289.96613,670.64886,-171.0406,286.26923,611.55347,-141.60802,213.24968,638.83789
37,0.3,-242.20872,289.96613,670.64886,-171.0406,286.26923,611.55347,-141.60802,213.24968,638.83789
38,0.308,-242.20872,289.96613,670.64886,-171.0406,286.26923,611.55347,-141.60802,213.24968,638.83789
39,0.317,-242.20872,289.96613,670.64886,-171.0406,286.26923,611.55347,-141.60802,213.24968,638.83789
40,0.325,-242.20872,289.96613,670.64886,-171.0406,286.26923,611.55347,-141.60802,213.24968,638.83789
41,0.333,-242.20872,289.96613,670.64886,-171.0406,286.26923,611.55347,-141.60802,213.24968,638.83789
42,0.342,-242.49707,289.6127,670.54602,-171.0406,286.26923,611.55347,-141.60802,213.24968,638.83789
43,0.35,-242.29242,289.86209,670.45697,-171.0406,286.26923,611.55347,-141.60802,213.24968,638.83789
44,0.358,-242.58075,289.50864,670.35406,-171.47363,286.4592,611.55249,-141.60802,213.24968,638.83789
45,0.367,-242.58075,289.50864,670.35406,-171.01915,285.931,611.33118,-141.48178,213.54401,637.8996
46,0.375,-242.58075,289.50864,670.35406,-171.0406,286.26923,611.55347,-141.48178,213.54401,637.8996
47,0.383,-242.65218,289.41953,670.12787,-171.0406,286.26923,611.55347,-141.48178,213.54401,637.8996
48,0.392,-242.65218,289.41953,670.12787,-171.47363,286.4592,611.55249,-140.41025,210.95235,635.24347
49,0.4,-242.73561,289.27106,670.16791,-171.99438,285.95435,611.43823,-140.86969,211.87163,636.16168
50,0.408,-242.73561,289.27106,670.16791,-171.99438,285.95435,611.43823,-140.8974,213.20596,637.35107
51,0.417,-242.73561,289.27106,670.16791,-171.99438,285.95435,611.43823,-142.34795,212.25114,637.00208
52,0.425,-242.82281,289.49985,669.90948,-171.99438,285.95435,611.43823,-142.34795,212.25114,637.00208
53,0.433,-242.82281,289.49985,669.90948,-171.99438,285.95435,611.43823,-142.47414,211.95692,637.9408
54,0.442,-243.37546,289.83249,669.85449,-172.14803,286.05481,611.38849,-142.55667,211.4232,636.34149
55,0.45,-243.37546,289.83249,669.85449,-172.31284,286.0256,611.46503,-142.55667,211.4232,636.34149
56,0.458,-243.37546,289.83249,669.85449,-171.99438,285.95435,611.43823,-142.5201,210.84682,636.97516
57,0.467,-243.45927,289.72858,669.6626,-172.31284,286.0256,611.46503,-142.5201,210.84682,636.97516
58,0.475,-243.7831,289.58719,669.52686,-172.31284,286.0256,611.46503,-142.5201,210.84682,636.97516
59,0.483,-244.0421,289.45618,669.43652,-172.31284,286.0256,611.46503,-142.5201,210.84682,636.97516
60,0.492,-244.0421,289.45618,669.43652,-172.31284,286.0256,611.46503,-142.5201,210.84682,636.97516
61,0.5,-244.0421,289.45618,669.43652,-172.14803,286.05481,611.38849,-142.5201,210.84682,636.97516
62,0.508,-243.86589,289.32376,669.23499,-172.32555,285.96954,611.1087,-142.5201,210.84682,636.97516
63,0.517,-243.79414,289.0004,669.12677,-172.16075,285.99872,611.03217,-142.5201,210.84682,636.97516
64,0.525,-243.79414,289.0004,669.12677,-172.16075,285.99872,611.03217,-142.93707,211.09641,636.97351
65,0.533,-244.18292,288.84619,668.64587,-172.42168,285.67154,610.85492,-142.97365,211.67276,636.33978
66,0.542,-243.80746,288.33444,668.75128,-172.75571,285.78275,610.68622,-142.97365,211.67276,636.33978
67,0.55,-244.14967,287.95911,668.70355,-173.16183,285.32196,610.70972,-143.14745,211.1734,636.42609
68,0.558,-244.14967,287.95911,668.70355,-173.29269,285.01031,610.92023,-143.52,210.73851,636.16937
69,0.567,-243.98727,288.11282,668.58661,-172.88654,285.47122,610.89679,-143.52,210.73851,636.16937
70,0.575,-244.12325,288.11478,668.64844,-172.55249,285.36002,611.06543,-143.52,210.73851,636.16937
71,0.583,-244.12325,288.11478,668.64844,-172.55249,285.36002,611.06543,-143.52,210.73851,636.16937
72,0.592,-244.31802,287.93753,668.34814,-173.29269,285.01031,610.92023,-143.52,210.73851,636.16937
73,0.6,-244.46536,287.77069,668.17383,-173.29269,285.01031,610.92023,-143.83061,210.50661,635.93591
74,0.608,-244.68082,287.54523,668.10449,-173.29269,285.01031,610.92023,-143.83061,210.50661,635.93591
75,0.617,-244.75136,287.63922,668.03717,-173.29269,285.01031,610.92023,-143.83061,210.50661,635.93591
76,0.625,-244.5359,287.86469,668.10651,-173.55716,285.08118,610.70374,-143.83061,210.50661,635.93591
77,0.633,-244.5359,287.86469,668.10651,-173.55716,285.08118,610.70374,-143.83061,210.50661,635.93591
78,0.642,-244.5359,287.86469,668.10651,-173.55716,285.08118,610.70374,-143.83061,210.50661,635.93591
79,0.65,-244.5359,287.86469,668.10651,-173.55716,285.08118,610.70374,-143.83061,210.50661,635.93591
80,0.658,-244.75136,287.63922,668.03717,-173.55716,285.08118,610.70374,-143.83061,210.50661,635.93591
81,0.667,-244.75136,287.63922,668.03717,-173.55716,285.08118,610.70374,-143.52,210.73851,636.16937
82,0.675,-244.75136,287.63922,668.03717,-173.55716,285.08118,610.70374,-143.83061,210.50661,635.93591
83,0.683,-244.94115,287.74515,668.01331,-173.55716,285.08118,610.70374,-143.83061,210.50661,635.93591
84,0.692,-244.94115,287.74515,668.01331,-173.55716,285.08118,610.70374,-143.83061,210.50661,635.93591
85,0.7,-244.92598,287.70761,667.70825,-173.59113,285.36353,610.56976,-143.83061,210.50661,635.93591
86,0.708,-244.90544,287.74875,667.91791,-173.59113,285.36353,610.56976,-143.83061,210.50661,635.93591
87,0.717,-245.20053,287.41562,667.56921,-173.59113,285.36353,610.56976,-143.83061,210.50661,635.93591
88,0.725,-245.20053,287.41562,667.56921,-173.70724,285.17023,610.19196,-144.11685,209.99876,635.58527
89,0.733,-245.20053,287.41562,667.56921,-173.70724,285.17023,610.19196,-144.11685,209.99876,635.58527
90,0.742,-245.20053,287.41562,667.56921,-173.59113,285.36353,610.56976,-144.11685,209.99876,635.58527
91,0.75,-245.45969,287.28452,667.47882,-173.59113,285.36353,610.56976,-144.11685,209.99876,635.58527
92,0.758,-245.45969,287.28452,667.47882,-173.59113,285.36353,610.56976,-144.11685,209.99876,635.58527
93,0.767,-245.45969,287.28452,667.47882,-173.59113,285.36353,610.56976,-144.11685,209.99876,635.58527
94,0.775,-245.45969,287.28452,667.47882,-173.59113,285.36353,610.56976,-144.11685,209.99876,635.58527
95,0.783,-245.45969,287.28452,667.47882,-173.55716,285.08118,610.70374,-144.11685,209.99876,635.58527
96,0.792,-245.45969,287.28452,667.47882,-173.59113,285.36353,610.56976,-144.11685,209.99876,635.58527
97,0.8,-245.45969,287.28452,667.47882,-173.55716,285.08118,610.70374,-144.11685,209.99876,635.58527
98,0.808,-245.45969,287.28452,667.47882,-173.59113,285.36353,610.56976,-144.11685,209.99876,635.58527
99,0.817,-245.45969,287.28452,667.47882,-173.59113,285.36353,610.56976,-143.83061,210.50661,635.93591
100,0.825,-245.45969,287.28452,667.47882,-173.59113,285.36353,610.56976,-143.83061,210.50661,635.93591
101,0.833,-246.03442,287.59058,667.35846,-173.59113,285.36353,610.56976,-143.83061,210.50661,635.93591
102,0.842,-246.03442,287.59058,667.35846,-173.59113,285.36353,610.56976,-144.11685,209.99876,635.58527
103,0.85,-246.03442,287.59058,667.35846,-173.59113,285.36353,610.56976,-143.97725,210.56473,635.41895
104,0.858,-246.02238,287.67706,667.2605,-173.70724,285.17023,610.19196,-143.97725,210.56473,635.41895
105,0.867,-246.02238,287.67706,667.2605,-173.70724,285.17023,610.19196,-144.4725,210.36142,635.42261
106,0.875,-246.02238,287.67706,667.2605,-172.70702,285.84637,609.4729,-144.59169,210.7341,635.06171
107,0.883,-246.02238,287.67706,667.2605,-172.70702,285.84637,609.4729,-144.50388,211.26143,634.85657
108,0.892,-246.39462,287.90295,667.35303,-173.56229,285.30411,609.99127,-144.33286,210.92723,635.25629
109,0.9,-246.492,288.09875,667.31653,-173.70724,285.17023,610.19196,-144.50388,211.26143,634.85657
110,0.908,-246.492,288.09875,667.31653,-173.70724,285.17023,610.19196,-144.50388,211.26143,634.85657
111,0.917,-246.492,288.09875,667.31653,-173.70724,285.17023,610.19196,-144.50388,211.26143,634.85657
112,0.925,-246.492,288.09875,667.31653,-173.56229,285.30411,609.99127,-144.21742,211.76933,635.20746
113,0.933,-245.95833,288.52176,667.54596,-173.56229,285.30411,609.99127,-144.21742,211.76933,635.20746
114,0.942,-245.95833,288.52176,667.54596,-172.25729,286.42319,609.78143,-144.21742,211.76933,635.20746
115,0.95,-245.95833,288.52176,667.54596,-173.44028,285.48535,610.25348,-144.21742,211.76933,635.20746
116,0.958,-246.23288,288.22992,667.40698,-173.44028,285.48535,610.25348,-144.21742,211.76933,635.20746
117,0.967,-246.35252,288.72668,667.58569,-173.56229,285.30411,609.99127,-144.21742,211.76933,635.20746
118,0.975,-246.05296,288.45178,667.57178,-173.59113,285.36353,610.56976,-144.21742,211.76933,635.20746
119,0.983,-245.52599,289.01456,667.797,-172.96217,285.87833,610.21014,-144.21742,211.76933,635.20746
120,0.992,-245.33566,289.20282,667.74402,-172.96217,285.87833,610.21014,-144.21742,211.76933,635.20746
121,1,-245.14006,289.17438,667.68262,-172.96217,285.87833,610.21014,-144.21742,211.76933,635.20746
122,1.008,-245.14006,289.17438,667.68262,-172.96217,285.87833,610.21014,-143.86198,211.40703,635.37
123,1.017,-245.14006,289.17438,667.68262,-172.96217,285.87833,610.21014,-144.04645,211.43509,635.60706
124,1.025,-245.14006,289.17438,667.68262,-172.96217,285.87833,610.21014,-143.69096,211.0726,635.76959
125,1.033,-244.56552,288.86838,667.8028,-173.11147,285.67099,609.98065,-143.69096,211.0726,635.76959
126,1.042,-244.56552,288.86838,667.8028,-172.96217,285.87833,610.21014,-143.86198,211.40703,635.37
127,1.05,-244.56552,288.86838,667.8028,-172.96217,285.87833,610.21014,-143.86198,211.40703,635.37
128,1.058,-244.77464,288.93607,667.48651,-172.96217,285.87833,610.21014,-143.86198,211.40703,635.37
129,1.067,-244.77464,288.93607,667.48651,-172.96217,285.87833,610.21014,-143.86198,211.40703,635.37
130,1.075,-244.56552,288.86838,667.8028,-173.11147,285.67099,609.98065,-143.86198,211.40703,635.37
131,1.083,-244.44568,288.37161,667.62415,-173.11147,285.67099,609.98065,-143.86198,211.40703,635.37
132,1.092,-244.56552,288.86838,667.8028,-172.96217,285.87833,610.21014,-143.86198,211.40703,635.37
133,1.1,-244.44568,288.37161,667.62415,-172.10953,286.44086,609.71454,-143.69096,211.0726,635.76959
134,1.108,-243.99443,288.26126,667.81958,-172.96217,285.87833,610.21014,-142.99174,211.41516,636.198
135,1.117,-243.99443,288.26126,667.81958,-171.33723,286.43793,610.2453,-142.34795,212.25114,637.00208
136,1.125,-243.99443,288.26126,667.81958,-171.52557,286.22055,610.08014,-142.42177,212.13014,637.07013
137,1.133,-243.99443,288.26126,667.81958,-171.52557,286.22055,610.08014,-142.41226,212.09178,637.04535
138,1.142,-243.99443,288.26126,667.81958,-172.42168,285.67154,610.85492,-143.42197,211.72124,638.51459
139,1.15,-244.11427,288.75797,667.99823,-171.56693,286.18997,610.31427,-141.94212,212.51997,638.14771
140,1.158,-244.11427,288.75797,667.99823,-171.56693,286.18997,610.31427,-142.29073,212.21129,637.78375
141,1.167,-244.11427,288.75797,667.99823,-171.33723,286.43793,610.2453,-142.09409,212.29829,637.40381
142,1.175,-244.11427,288.75797,667.99823,-171.33723,286.43793,610.2453,-142.23784,212.12401,637.17157
143,1.183,-244.00049,289.5618,668.0343,-171.33723,286.43793,610.2453,-141.9028,212.54616,638.04651
144,1.192,-244.28345,289.2771,668.07007,-172.14828,285.97327,610.78418,-143.18489,211.83435,638.51068
145,1.2,-244.28345,289.2771,668.07007,-172.61656,285.76013,610.37079,-143.82454,211.49435,638.02521
146,1.208,-244.28345,289.2771,668.07007,-171.52557,286.22055,610.08014,-142.55887,211.73688,637.04688
147,1.217,-244.28345,289.2771,668.07007,-171.59732,286.07474,610.02783,-142.63564,211.58702,637.08038
148,1.225,-243.81061,289.77939,668.02136,-171.40898,286.29214,610.19305,-142.39229,211.92661,637.61182
149,1.233,-243.6308,290.00101,668.1861,-171.40898,286.29214,610.19305,-142.45448,211.97176,637.88892
150,1.242,-243.6308,290.00101,668.1861,-171.17282,286.57706,610.19,-142.26376,212.08075,637.54816
151,1.25,-243.44656,290.07407,668.26367,-171.17282,286.57706,610.19,-142.18198,212.14284,637.72076
152,1.258,-243.44656,290.07407,668.26367,-171.10423,286.73364,610.46497,-142.1273,212.17197,637.75464
153,1.267,-243.44656,290.07407,668.26367,-171.10423,286.73364,610.46497,-142.12456,212.14044,637.75665
154,1.275,-243.28448,290.05832,668.20447,-171.92911,286.99606,611.30267,-143.10139,212.31598,638.60889
155,1.283,-243.28448,290.05832,668.20447,-171.92911,286.99606,611.30267,-143.10057,212.2364,638.48108
156,1.292,-243.28448,290.05832,668.20447,-171.91663,286.97064,611.05475,-143.13063,212.13005,638.14709
157,1.3,-243.06483,290.27905,668.138,-171.67645,287.12671,611.1651,-142.86848,212.24797,638.22076
158,1.308,-243.06483,290.27905,668.138,-171.2435,286.93689,611.16602,-142.45465,212.01863,638.22485
159,1.317,-243.10841,290.53915,668.43591,-171.25598,286.96228,611.414,-142.19313,212.23965,638.81116
160,1.325,-243.10841,290.53915,668.43591,-171.25598,286.96228,611.414,-142.18393,212.2009,638.78693
161,1.333,-242.89206,290.80429,668.47314,-171.25598,286.96228,611.414,-142.02917,212.36583,639.16095
162,1.342,-242.22054,290.30295,668.62958,-171.04077,286.18777,610.94922,-141.94609,211.5696,638.86639
163,1.35,-242.0629,290.40564,669.15222,-170.66939,286.67215,611.46466,-141.44403,212.07631,639.3949
164,1.358,-242.0629,290.40564,669.15222,-170.65689,286.64676,611.21667,-141.36531,212.0383,639.13367
165,1.367,-241.75549,290.21344,669.03821,-170.62024,286.0235,611.19818,-141.46588,211.42636,639.37781
166,1.375,-241.75549,290.21344,669.03821,-170.62024,286.0235,611.19818,-141.52107,211.2291,638.99866
167,1.383,-241.85741,290.12509,669.19586,-170.62024,286.0235,611.19818,-141.41634,211.2177,638.94855
168,1.392,-242.16481,290.31726,669.30988,-170.60759,286.07953,611.55438,-141.42947,211.25163,639.36304
169,1.4,-241.92641,290.09067,669.4397,-170.58611,285.74127,611.33215,-141.4267,210.91937,639.26691
170,1.408,-241.92641,290.09067,669.4397,-169.75229,286.27872,611.02954,-140.5083,211.22351,638.33319
171,1.417,-242.06223,289.97403,669.69812,-169.75229,286.27872,611.02954,-140.40161,211.21555,638.28925
172,1.425,-241.76855,290.10187,669.74237,-169.75229,286.27872,611.02954,-140.28609,211.32297,638.55164
173,1.433,-241.98801,289.88113,669.80884,-169.75555,286.28964,611.25226,-140.49249,211.05588,638.32074
174,1.442,-242.16986,289.91574,669.85718,-170.4902,285.99887,611.86456,-141.42426,210.73801,639.1626
175,1.45,-242.29588,290.19489,670.39056,-169.75555,286.28964,611.25226,-140.23582,211.21091,638.65747
176,1.458,-242.20872,289.96613,670.64886,-169.75555,286.28964,611.25226,-140.32683,210.9427,638.10626
177,1.467,-242.20872,289.96613,670.64886,-170.47762,285.97333,611.61658,-141.01564,210.75723,638.89215
178,1.475,-242.20872,289.96613,670.64886,-169.75229,286.27872,611.02954,-140.02261,210.99989,637.93213
179,1.483,-242.20872,289.96613,670.64886,-170.03358,286.36725,611.2666,-140.33955,211.03488,638.1532
180,1.492,-242.20872,289.96613,670.64886,-170.44876,286.56366,611.25049,-140.69101,211.14619,637.92181
181,1.5,-242.20872,289.96613,670.64886,-170.44876,286.56366,611.25049,-140.68211,211.10738,637.89758
182,1.508,-242.49707,289.6127,670.54602,-171.21887,286.25482,611.88849,-141.86206,210.52161,638.29919
183,1.517,-242.49707,289.6127,670.54602,-171.6519,286.44473,611.88751,-142.25725,210.67416,638.24554
184,1.525,-242.59872,289.68393,670.65326,-171.81573,286.17123,611.65839,-142.36688,210.4798,638.27887
185,1.533,-242.59872,289.68393,670.65326,-171.81573,286.17123,611.65839,-142.35817,210.44092,638.25458
186,1.542,-242.68216,289.53546,670.69324,-171.07799,286.39838,610.98163,-141.4325,210.51285,637.01685
187,1.55,-242.68216,289.53546,670.69324,-171.07799,286.39838,610.98163,-141.46346,210.42198,636.88507
188,1.558,-242.78886,289.4512,670.93823,-172.035,286.43515,612.1037,-142.6515,210.42856,638.27917
189,1.567,-242.92381,289.44455,671.00873,-172.37935,286.17831,611.97064,-142.95984,210.21747,638.33569
190,1.575,-242.92381,289.44455,671.00873,-172.37935,286.17831,611.97064,-142.95113,210.17863,638.3114
191,1.583,-242.94443,288.76489,671.20093,-172.37935,286.17831,611.97064,-143.17369,209.83966,637.66858
192,1.592,-242.94443,288.76489,671.20093,-172.37935,286.17831,611.97064,-143.16498,209.80103,637.64392
193,1.6,-242.94443,288.76489,671.20093,-172.37935,286.17831,611.97064,-143.15627,209.76241,637.61926
194,1.608,-242.94443,288.76489,671.20093,-172.37935,286.17831,611.97064,-143.14757,209.72379,637.5946
195,1.617,-242.94443,288.76489,671.20093,-172.45598,285.81873,612.11749,-143.19762,209.45279,638.07373
196,1.625,-242.94443,288.76489,671.20093,-172.57462,285.85312,612.36084,-143.25012,209.51631,638.42725
