Frame#,Time,L.Forearm.x,L.Forearm.y,L.Forearm.z,L.Ulna.x,L.Ulna.y,L.Ulna.z,L.Radius.x,L.Radius.y,L.Radius.z
1,0,173.41624,244.26065,1076.69788,181.53038,265.04279,981.02783,274.42511,206.83452,973.24524
2,0.008,173.75978,244.10405,1075.75574,181.75114,264.92343,980.09479,274.77368,205.98561,971.16022
3,0.017,174.51221,245.06233,1073.99512,181.62566,264.8678,978.54932,274.78934,205.96712,968.99713
4,0.025,174.90343,244.74872,1073.02209,181.72925,266.00766,976.82452,273.75446,204.33676,966.88879
5,0.033,175.23367,244.77539,1071.09387,181.18874,266.7594,976.0965,273.53711,205.88976,965.15863
6,0.042,174.97038,245.19312,1070.02283,181.01917,266.83224,975.70789,272.43317,205.70045,962.48883
7,0.05,174.1201,245.68944,1069.47949,181.13385,267.62262,975.2049,271.27698,204.81422,961.32538
8,0.058,173.19431,246.6297,1068.39148,180.65988,268.55716,974.68738,269.63632,206.00798,959.61853
9,0.067,172.70482,247.40988,1067.90942,179.39432,269.63324,972.60718,268.82278,205.21617,958.65051
10,0.075,171.897,248.60934,1067.43286,178.39151,270.50162,972.73047,266.77814,204.76111,957.58411
11,0.083,171.60278,248.50272,1067.77063,177.76555,270.7475,972.65283,264.77127,204.78558,957.16333
12,0.092,170.61128,249.35774,1068.00708,175.80484,271.25482,974.04962,263.4938,205.67902,957.43494
13,0.1,169.71393,249.78595,1068.79309,174.76711,272.30988,974.40033,263.02328,206.57487,957.98596
14,0.108,168.87321,250.7126,1070.07617,174.22266,273.46463,975.24988,262.28909,206.72829,959.22174
15,0.117,168.6153,250.4778,1070.70764,174.15894,274.0119,976.50659,261.86157,208.27039,961.11694
16,0.125,168.11282,250.51865,1072.31006,173.88066,274.91818,978.49457,261.82425,209.42183,962.98718
17,0.133,166.54655,250.86823,1074.35022,173.54355,274.56284,979.30273,262.40982,210.8078,964.31653
18,0.142,166.43657,251.46779,1075.30713,173.72586,275.16562,980.79486,263.07343,210.80933,966.17554
19,0.15,165.98151,251.4053,1076.06409,173.6537,275.53476,981.61902,263.8136,211.58788,969.26532
20,0.158,165.95303,251.87778,1077.66211,173.91071,275.46921,983.16058,264.68436,212.66379,970.8089
21,0.167,166.12817,252.32645,1079.44727,174.53375,275.01309,984.19794,264.85736,213.55008,972.62146
22,0.175,166.40192,252.60614,1079.98145,175.41216,275.14288,984.31757,266.2041,213.47937,973.83887
23,0.183,167.52092,252.26483,1080.42847,176.8692,275.23822,985.19495,267.39139,214.29745,974.7348
24,0.192,168.59752,253.30833,1080.45325,177.71097,274.46136,985.8606,269.07629,214.74823,975.51978
25,0.2,169.24591,253.39326,1080.39136,178.37283,274.78647,985.64331,270.09113,215.8551,975.79462
26,0.208,170.47096,252.89182,1080.36389,179.5923,274.49701,984.67297,271.95569,216.73401,975.8797
27,0.217,172.62999,252.24065,1079.68323,179.95996,272.96857,984.04425,274.07156,216.69098,975.35565
28,0.225,173.06612,252.57141,1078.7168,179.25667,272.41824,982.84058,274.54584,217.12032,975.04181
29,0.233,173.65175,252.08432,1076.85571,180.41701,273.11362,981.37512,275.05716,218.53447,973.19122
30,0.242,173.85168,252.35648,1075.66699,180.17273,272.58884,979.55811,276.20474,219.38243,971.66449
31,0.25,175.25739,252.26331,1074.63708,180.63377,270.80746,978.32605,276.72729,219.89178,970.36182
32,0.258,175.56985,253.06161,1073.76099,180.39059,271.64334,976.63635,276.66739,219.89439,968.96387
33,0.267,176.78743,252.65596,1072.09705,180.11337,272.28665,975.38446,276.75458,220.3109,966.25983
34,0.275,176.9877,253.10266,1070.82056,180.33089,272.66446,974.99829,276.37253,219.93713,965.0058
35,0.283,176.69615,253.13968,1069.41125,180.12155,272.26736,973.65411,276.24783,219.63905,963.9201
36,0.292,176.54166,253.21779,1068.6134,180.16325,271.7908,972.93915,275.64362,217.92104,962.32098
37,0.3,176.09155,253.68979,1068.41211,179.66643,271.58121,972.30927,275.13348,217.03903,961.85181
38,0.308,175.88072,252.57689,1068.02087,179.66643,271.58121,972.30927,272.74234,214.17514,960.70728
39,0.317,174.94862,253.02089,1068.04456,178.91986,271.85333,972.51526,271.69067,213.27985,960.16132
40,0.325,174.35812,252.22421,1067.99597,178.66214,271.78146,972.83636,271.02963,212.36412,959.93689
41,0.333,173.39761,252.70367,1068.78271,178.16252,272.17957,973.76367,268.88397,209.45012,960.90302
42,0.342,173.09526,252.3681,1069.04846,177.7355,272.60364,974.48053,267.86444,209.01074,960.87042
43,0.35,172.14276,251.27357,1069.78625,177.85559,272.49121,975.97314,266.92447,208.9111,961.32086
44,0.358,171.65155,250.21223,1070.05396,177.11061,272.42944,976.24554,265.22311,207.87704,963.2146
45,0.367,169.20746,250.83566,1071.8009,176.96913,273.04544,977.98773,264.84067,207.99199,963.99963
46,0.375,168.71062,251.19669,1073.1615,176.2186,274.19058,978.63647,264.95123,208.77409,964.93683
47,0.383,168.74431,251.56403,1074.4563,176.48024,275.02353,980.08435,264.75095,210.0934,966.39056
48,0.392,168.26865,251.9263,1075.15674,176.797,275.10489,981.26929,265.56512,211.44612,967.37543
49,0.4,168.88686,252.07048,1075.47595,177.84019,276.69601,981.99207,266.02487,211.76985,968.13623
50,0.408,168.75183,252.50095,1076.29578,178.70837,277.61371,983.0224,267.1882,213.03781,969.68011
51,0.417,169.04451,252.85866,1076.2146,178.87498,277.55139,983.03979,267.97324,213.92635,970.77716
52,0.425,171.30052,254.35936,1077.54065,179.58702,277.84763,983.82721,268.30765,214.91103,970.91345
53,0.433,172.24077,255.2849,1077.69446,180.27589,278.8999,983.82172,269.78989,216.81609,970.995
54,0.442,173.06534,255.83806,1078.06409,181.49478,279.83307,983.46851,270.80731,217.16165,970.95526
55,0.45,174.30327,257.39307,1077.34375,182.54044,280.20758,983.21381,272.55435,217.40128,970.3103
56,0.458,175.25798,257.99063,1076.33374,183.37248,280.9165,982.49182,272.56619,218.64217,969.52148
57,0.467,176.34862,257.67017,1075.83838,183.71799,280.37952,980.96521,274.0347,218.12544,967.95801
58,0.475,177.31151,257.59259,1074.41357,184.39125,280.3251,979.80933,275.39832,218.41386,966.9361
59,0.483,178.63089,257.18927,1073.77087,186.09288,279.33499,978.24805,275.99344,218.71342,965.67114
60,0.492,179.01154,257.41873,1072.6886,186.68864,278.75748,977.99713,276.58362,218.83597,964.25293
61,0.5,179.73871,255.86099,1071.59155,186.55743,277.63486,976.70978,276.35928,219.32944,963.6142
62,0.508,180.00456,255.06917,1069.80237,185.60873,276.92325,974.60461,276.957,219.58353,962.37683
63,0.517,179.80167,255.12587,1069.20825,183.74261,274.78842,973.27399,276.87625,219.6183,960.67413
64,0.525,178.94162,255.16313,1068.4585,182.81389,275.25845,972.27899,276.5481,219.45569,960.23486
65,0.533,178.62752,255.23302,1067.92737,182.09172,275.24692,971.37091,275.88788,219.51662,959.31244
66,0.542,177.57318,255.33612,1067.04395,179.80574,272.64117,970.48901,275.2103,218.29041,959.40375
67,0.55,177.09853,254.85405,1066.85864,178.40147,272.12225,970.66833,272.79596,216.19931,959.72321
68,0.558,175.99403,254.7021,1067.10596,178.48438,271.67426,971.21564,271.89478,214.54198,960.15991
69,0.567,174.69385,252.39929,1067.57715,177.86226,270.5405,971.2688,271.77017,213.12,960.70343
70,0.575,173.57819,252.24673,1067.91052,176.96657,268.50452,971.74792,269.73749,209.86137,961.33856
71,0.583,172.99588,251.64262,1068.3374,176.56178,268.12897,972.86108,268.67456,207.78429,962.24689
72,0.592,171.33199,248.75658,1069.26001,177.40036,267.3717,975.21887,266.90601,204.39226,963.42212
73,0.6,169.51164,247.32501,1070.48145,177.24854,267.4017,976.39581,265.32227,203.08543,964.47272
74,0.608,168.61926,245.39729,1071.65808,177.64174,267.17233,976.75891,264.83676,201.83482,965.58014
75,0.617,167.8474,244.88876,1072.12683,177.61945,266.81931,977.7785,263.70837,199.84407,966.17584
76,0.625,167.5098,244.18332,1072.65417,177.40317,266.95663,977.98779,263.83655,199.13919,965.83789
77,0.633,167.62498,243.8118,1073.13916,177.39844,267.06366,978.25854,263.59875,198.89856,965.55371
78,0.642,167.81149,244.73611,1072.37402,177.40317,266.95663,977.98779,263.5527,200.10437,964.8703
79,0.65,169.54167,245.00136,1072.28467,177.5856,267.68634,977.35358,264.55713,202.16995,963.7821
80,0.658,170.52122,246.09645,1072.02209,178.46072,269.58835,977.16058,265.34335,202.73801,962.58923
81,0.667,172.88341,246.73045,1070.33789,179.30298,270.07645,976.62756,266.29367,204.43079,961.43506
82,0.675,173.47479,247.433,1069.30615,179.4292,270.18802,974.78888,268.96024,206.76794,959.38519
83,0.683,175.09557,249.83517,1068.52734,179.78946,270.75012,972.70978,269.40875,207.75456,958.15302
84,0.692,176.77995,249.68401,1067.39294,180.92114,271.64548,972.12012,270.44351,209.03308,955.68439
85,0.7,177.94867,250.2659,1066.60229,182.32176,273.65656,971.10278,271.78488,210.81831,953.2771
86,0.708,179.42519,250.83566,1065.55798,183.05316,274.68106,970.05109,272.17441,211.83409,951.98175
87,0.717,180.96378,250.98132,1064.01526,183.70563,274.16132,969.29712,273.24603,212.35645,951.05347
88,0.725,181.84866,251.58025,1063.23145,183.76331,274.25925,968.12708,273.81024,214.08182,948.90948
89,0.733,181.93925,252.40083,1062.10168,183.46805,275.28424,966.6806,274.83893,215.96584,947.99829
90,0.742,181.89461,253.87456,1061.07214,183.00868,276.29919,965.86462,274.66769,216.4946,947.29584
91,0.75,181.91595,254.79637,1061.06958,182.5267,276.48145,965.81256,275.18774,218.87373,947.90649
92,0.758,181.58627,254.86507,1060.94299,181.89357,276.58859,965.66913,275.06638,219.03923,948.39447
93,0.767,179.82961,256.15085,1061.85962,181.43185,276.83243,965.73218,274.9903,218.60545,950.19818
94,0.775,179.06393,256.00894,1062.8689,180.5126,276.16891,966.1391,274.14825,218.90099,950.75281
95,0.783,178.44261,255.81795,1063.68506,179.61829,273.78806,966.7771,272.94284,218.55228,952.87915
96,0.792,177.70311,254.70705,1064.93091,179.5825,273.89609,968.79211,272.04724,216.48151,955.17688
97,0.8,176.53442,253.60966,1066.33337,178.56166,272.99564,969.8714,271.52054,215.32845,957.43323
98,0.808,175.95015,252.49332,1068.09668,178.67747,272.03714,971.54498,271.51862,214.23878,960.07599
99,0.817,174.55637,252.08339,1068.90332,179.32365,272.03506,973.71356,270.82037,211.98586,962.479
100,0.825,173.37804,251.27185,1071.3385,179.59894,271.68466,975.83411,270.54507,209.53593,965.7049
101,0.833,172.40295,250.02808,1073.40454,180.60901,270.02658,977.95404,269.81488,208.42673,967.2229
102,0.842,171.84671,249.20384,1074.68164,181.39253,270.12399,978.9837,269.99161,206.61072,969.17017
103,0.85,171.05418,248.2019,1076,181.52213,270.27844,982.04224,269.81213,205.68758,970.35852
104,0.858,170.78102,247.25389,1076.96497,182.14857,270.42679,983.54669,269.62024,205.02863,971.65344
105,0.867,171.15526,247.0882,1077.3894,182.12758,270.76794,983.9317,269.46695,204.25575,972.14673
106,0.875,171.28514,247.29822,1077.7478,182.29713,270.66675,983.99103,270.14548,204.30617,971.87024
107,0.883,171.48421,247.46272,1077.46753,183.25708,272.04517,983.8927,269.6091,205.36783,969.92279
108,0.892,173.18793,247.33521,1076.18103,183.92715,272.65344,983.48022,270.82886,206.18282,968.58875
109,0.9,174.30441,247.42761,1075.35254,183.47835,272.87164,981.4325,270.81396,207.28056,967.22137
110,0.908,175.8812,247.92032,1074.02185,183.46364,273.85886,979.79956,270.95325,207.11905,964.92053
111,0.917,176.80293,248.25285,1072.56714,184.20833,273.83749,978.38733,271.31348,207.64635,961.91522
112,0.925,177.28043,249.8672,1070.4176,184.38091,273.9158,976.18634,271.42874,208.31036,959.06989
113,0.933,178.29205,250.44267,1068.52124,185.3497,274.74139,974.93634,272.13519,209.69809,956.6062
114,0.942,179.36432,251.50391,1067.17627,184.96246,274.90378,973.20105,272.10092,210.65672,953.67523
115,0.95,180.11806,252.07568,1066.68933,183.75632,275.90295,971.38983,272.19418,211.76884,952.39728
116,0.958,180.90593,253.13835,1065.9978,184.96732,277.40244,970.74902,271.97864,212.89319,951.49829
117,0.967,181.17566,253.67834,1066.17798,184.31023,277.67557,970.6629,271.89935,213.9173,951.33734
118,0.975,180.63272,254.78893,1065.66602,183.89769,277.95929,970.57764,272.51093,214.96637,951.59113
119,0.983,180.43326,255.00729,1065.67737,183.7589,278.55771,970.43286,273.57901,216.52228,951.77393
120,0.992,180.06528,255.44331,1066.31201,183.46384,277.63303,970.77484,274.06714,216.84958,953.28418
121,1,179.10156,256.51141,1067.36462,182.49754,276.64072,971.83569,274.34192,218.22643,956.07074
122,1.008,178.3201,256.70364,1068.18689,182.36859,276.59888,971.92004,275.38495,218.05795,958.36169
123,1.017,178.52623,255.82373,1069.13696,182.93088,275.96716,973.46802,275.67523,216.7796,961.30469
124,1.025,178.07993,255.43297,1071.13171,183.53929,275.04837,975.80859,276.20764,216.33264,963.96448
125,1.033,177.61902,254.53658,1073.26575,183.6292,274.37567,977.52936,276.49088,214.78946,967.68689
126,1.042,177.08147,253.28224,1074.12793,184.58781,273.82883,979.11115,277.73691,213.71425,970.41791
127,1.05,176.78801,251.34694,1075.91248,184.49474,271.43307,980.38831,277.66675,213.56532,973.54199
128,1.058,176.32361,250.95195,1077.60547,185.24329,270.75595,982.26331,277.86661,212.82253,975.13208
129,1.067,175.17226,249.36778,1078.98633,185.53554,269.31357,983.37384,278.62222,211.57159,977.36554
130,1.075,175.37851,248.37529,1079.51257,185.35561,268.07614,983.79187,278.94437,210.52077,978.44287
131,1.083,175.23808,247.96667,1079.86743,185.42122,267.49698,984.27118,279.14722,209.85435,979.05188
132,1.092,175.36147,247.43532,1080.01038,185.8324,266.32928,984.47778,278.76154,206.24933,979.30859
133,1.1,175.40118,246.15347,1079.78845,186.01846,265.38327,984.26215,278.62341,205.94476,978.79962
134,1.108,176.25343,244.34035,1079.67834,186.47719,265.23444,984.06775,278.51154,204.791,977.58356
135,1.117,176.50105,243.88834,1078.67383,186.98198,265.1813,984.01105,278.83356,204.59689,976.32214
136,1.125,176.94667,242.68929,1077.87756,186.70448,265.14316,983.26294,278.0556,202.66328,974.37445
137,1.133,177.19258,242.78531,1076.39246,186.90347,265.40781,982.22858,277.27011,202.11528,972.05994
138,1.142,178.41258,242.49097,1075.49121,186.50732,265.62451,980.13409,276.84595,201.95724,969.52679
139,1.15,178.46661,242.41101,1074.07947,186.19501,265.59357,979.03143,275.75635,202.64857,967.43286
140,1.158,179.01434,243.23648,1072.7135,186.15643,265.90402,977.6452,275.48862,201.94759,964.21771
141,1.167,179.02913,243.7966,1071.54382,185.96921,266.97061,976.24622,274.18661,202.92615,961.38251
142,1.175,179.5612,244.7148,1069.43835,185.66583,268.10767,975.17261,273.17953,202.72226,959.263
143,1.183,179.35686,246.24742,1068.21326,184.92827,267.91592,973.66803,272.93207,203.41243,956.5639
144,1.192,178.71732,247.10544,1067.20532,183.4845,269.47156,972.12592,271.15302,203.82829,954.65063
145,1.2,177.72897,248.99863,1066.43518,182.4933,270.73566,971.37219,269.67758,204.98422,953.25189
146,1.208,177.12285,249.79996,1066.06946,180.44569,271.39145,970.97815,268.57959,205.32867,952.43665
147,1.217,176.6497,250.60167,1066.13135,179.32881,272.21362,970.56653,266.92722,206.73433,952.1308
148,1.225,176.02586,250.59148,1066.23059,178.34669,272.73062,970.80359,266.31628,207.79425,951.63898
149,1.233,175.56894,250.96829,1066.4762,177.81329,273.17856,970.91949,266.83838,208.91426,952.89813
150,1.242,173.96423,251.57639,1066.85779,177.13043,273.34244,971.90051,266.32385,210.1154,954.52411
151,1.25,173.88943,251.83649,1067.88782,177.36082,273.46643,972.37457,266.59781,211.50456,956.41504
152,1.258,173.55185,252.18082,1068.5033,176.9577,273.28433,973.45374,267.9762,213.48447,958.54102
153,1.267,173.30711,253.02599,1069.9729,177.19733,273.69537,974.68591,269.37735,214.54454,960.9176
154,1.275,173.14088,252.68449,1071.47498,177.30595,272.99863,976.0542,270.74045,215.48662,964.24292
155,1.283,173.52917,252.53253,1073.78381,177.71822,272.46649,977.59784,271.43958,216.01552,966.68518
156,1.292,173.14099,252.54854,1074.76929,177.76105,272.20352,978.65057,273.36087,217.34174,969.97931
157,1.3,172.6909,252.64038,1075.71313,179.36023,272.56546,980.67859,274.99448,216.98616,973.24615
158,1.308,173.27197,252.26134,1077.18945,181.02637,270.63623,982.46094,276.18515,217.71658,975.94812
159,1.317,173.44345,251.14328,1079.23132,180.99971,270.37866,983.55597,277.3757,217.09674,978.56549
160,1.325,173.4236,250.94687,1079.91772,182.17583,269.99826,984.37628,279.18411,218.33434,980.78424
161,1.333,173.75581,250.3159,1080.63904,183.38579,268.96912,984.97119,279.76938,218.04112,981.91742
162,1.342,174.02803,249.68475,1081.0199,183.85953,267.88733,984.81873,280.65454,218.42769,982.98615
163,1.35,174.43628,249.49965,1081.04712,184.37907,267.44485,985.37738,281.32437,217.71527,983.7467
164,1.358,174.97607,248.79857,1081.39624,184.70801,267.28223,985.49359,281.77698,216.7009,983.89044
165,1.367,175.86804,248.12335,1081.28223,185.16611,266.56891,985.17554,281.49768,215.79887,983.47272
166,1.375,176.35777,247.83316,1081.14307,185.51302,265.76282,984.84283,280.1377,213.57375,982.37054
167,1.383,176.79294,247.57999,1080.01831,185.76221,265.72223,984.43451,280.78043,211.96524,980.91467
168,1.392,176.84491,247.54265,1079.89954,186.01846,265.38327,984.26215,280.31378,211.4554,979.17786
169,1.4,177.88992,247.68623,1079.4585,186.31491,265.43265,983.83539,279.6438,209.41959,977.5918
170,1.408,177.98026,247.79924,1078.5719,186.09969,265.92578,983.22046,279.38959,208.13103,975.90912
171,1.417,177.95526,246.92029,1077.00806,186.29015,265.98972,982.56885,278.46109,206.19766,973.68872
172,1.425,178.66286,246.28119,1075.45044,185.88945,265.52493,980.052,276.95517,205.87372,970.90308
173,1.433,178.40866,247.16425,1073.63562,185.85741,265.81332,979.7464,276.02103,204.45702,968.46759
174,1.442,177.79671,247.62805,1073.1355,185.43976,266.08347,977.65253,274.54401,203.74887,966.62946
175,1.45,177.25383,247.83435,1071.19189,183.95743,266.40607,976.61676,273.72366,203.38748,964.33246
176,1.458,177.31097,248.59744,1070.30322,182.21709,266.8913,975.38489,272.89755,203.1288,962.72656
177,1.467,176.91397,248.68303,1069.69409,180.98738,267.00366,975.02936,270.37448,202.13454,962.1496
178,1.475,176.44576,249.04706,1069.24292,180.99826,266.95056,974.34998,269.32941,202.4612,961.49109
179,1.483,175.33862,249.48894,1068.85669,180.16219,267.24124,973.96436,269.10413,202.51747,961.40393
180,1.492,174.75438,248.71423,1068.98181,179.81046,267.10376,973.89496,269.10413,202.51747,961.40393
181,1.5,174.14252,248.58087,1068.7865,179.55064,267.1478,973.836,269.10413,202.51747,961.40393
182,1.508,173.36694,248.75774,1068.87476,179.1667,267.18143,973.98773,269.43817,203.73737,962.3526
183,1.517,173.4455,248.80438,1069.29504,179.70454,267.37616,974.45917,269.8551,205.78992,962.9115
184,1.525,173.54726,248.27727,1069.75781,179.88942,267.29971,975.50281,271.8335,206.42372,964.65778
185,1.533,174.46899,248.19197,1070.80408,180.63498,266.83237,975.59192,273.05573,207.29526,966.79309
186,1.542,175.3672,249.03699,1072.90662,181.11089,268.41614,976.92255,274.54669,209.88055,968.48529
187,1.55,175.87956,248.93246,1073.46741,182.74246,268.79688,978.60425,276.62601,210.35686,970.83398
188,1.558,176.12581,248.96236,1074.2627,183.91707,268.20544,979.73145,278.49017,211.84241,972.96399
189,1.567,176.36392,248.54041,1075.84485,185.99864,268.98099,981.15155,279.37726,211.82668,975.11145
190,1.575,176.85452,248.9239,1077.02319,186.39711,268.62991,982.20746,280.67996,211.82817,976.13184
191,1.583,177.83525,249.12128,1078.06323,187.85547,269.94794,983.43817,282.21301,212.42947,978.43103
192,1.592,178.0737,249.03954,1078.36694,188.83502,269.3067,983.73663,283.07257,212.77034,979.46429
193,1.6,178.77525,249.33893,1079.34973,189.96471,268.92719,983.98846,284.09198,212.51617,980.3493
194,1.608,179.50015,249.90205,1079.43286,190.48592,268.28955,984.26691,284.55072,213.46251,980.95776
195,1.617,180.16965,249.85938,1079.7323,190.81335,268.62115,984.39142,284.72488,213.37131,980.81348
196,1.625,180.96642,250.13318,1079.88574,190.48592,268.28955,984.26691,285.01483,213.29665,980.80353
197,1.633,181.0827,249.91827,1079.93042,190.59134,267.60822,984.0907,284.98965,213.12086,980.24341
198,1.642,180.99751,249.45528,1079.41821,190.38995,267.50827,983.93585,284.68625,212.91455,979.24335
199,1.65,180.91685,249.53883,1079.36194,189.98552,268.30588,983.18835,284.12418,213.53676,977.5639
200,1.658,180.65289,248.91713,1078.349,188.49519,267.57224,981.35107,282.96133,213.19336,975.71887
