Frame#,Time,R.Forearm.x,R.Forearm.y,R.Forearm.z,R.Ulna.x,R.Ulna.y,R.Ulna.z,R.Radius.x,R.Radius.y,R.Radius.z
1,0,310.20914,-203.33704,991.4328,292.0871,-232.54385,914.16925,331.91205,-172.42545,871.04968
2,0.008,310.40909,-203.6311,991.33038,292.21378,-232.82997,914.01599,332.51135,-172.65997,870.99573
3,0.017,310.1174,-203.71817,991.32904,292.12454,-233.10155,913.80804,332.97211,-173.65163,871.21271
4,0.025,310.20111,-204.4108,991.23553,291.99344,-233.10112,913.73181,332.97211,-173.65163,871.21271
5,0.033,309.85675,-204.44975,990.97339,292.12454,-233.10155,913.80804,333.2944,-173.92108,871.21173
6,0.042,310.20111,-204.4108,991.23553,292.11255,-233.02179,914.05902,333.2944,-173.92108,871.21173
7,0.05,310.14694,-204.15251,991.36011,291.89703,-233.07018,913.96246,333.4032,-173.59972,871.63843
8,0.058,309.99252,-203.90752,991.27618,292.16931,-232.83217,913.98669,333.14276,-173.28154,871.49353
9,0.067,310.40909,-203.6311,991.33038,292.0871,-232.54385,914.16925,333.29343,-173.3199,871.78729
10,0.075,310.3634,-203.2926,991.5755,292.59238,-232.29269,914.21771,333.29343,-173.3199,871.78729
11,0.083,310.17188,-202.92047,991.72314,292.59238,-232.29269,914.21771,332.57715,-172.38914,871.3656
12,0.092,310.34247,-202.77542,991.83752,292.59238,-232.29269,914.21771,332.57108,-171.95155,871.22473
13,0.1,310.34247,-202.77542,991.83752,292.90234,-232.22691,914.52026,332.77374,-171.77429,871.19269
14,0.108,310.34247,-202.77542,991.83752,293.29727,-231.54199,914.63318,333.0174,-171.66257,871.34766
15,0.117,310.34247,-202.77542,991.83752,293.5769,-231.74391,914.53937,332.67212,-171.67986,871.31512
16,0.125,310.34247,-202.77542,991.83752,293.61935,-231.3996,914.5293,332.67212,-171.67986,871.31512
17,0.133,310.34247,-202.77542,991.83752,293.54193,-231.50362,914.59613,332.56271,-171.65952,871.07007
18,0.142,310.34247,-202.77542,991.83752,293.61935,-231.3996,914.5293,332.56271,-171.65952,871.07007
19,0.15,310.34247,-202.77542,991.83752,293.65433,-231.63991,914.4726,332.53088,-171.58934,870.70581
20,0.158,310.39172,-202.60551,991.73132,293.14633,-231.92,914.14484,332.53088,-171.58934,870.70581
21,0.167,310.39172,-202.60551,991.73132,293.14633,-231.92,914.14484,332.53088,-171.58934,870.70581
22,0.175,310.34247,-202.77542,991.83752,292.92563,-232.09709,914.08862,332.53088,-171.58934,870.70581
23,0.183,310.17188,-202.92047,991.72314,292.92563,-232.09709,914.08862,332.53088,-171.58934,870.70581
24,0.192,310.17188,-202.92047,991.72314,293.01318,-232.19496,913.93445,332.66434,-171.75394,870.94763
25,0.2,310.40909,-203.6311,991.33038,292.73206,-232.2482,913.966,332.76144,-172.14304,870.95624
26,0.208,310.86398,-203.7262,991.27765,292.75995,-232.69153,913.99414,332.96335,-172.47975,870.97717
27,0.217,310.86398,-203.7262,991.27765,292.53934,-232.86865,913.93793,332.96335,-172.47975,870.97717
28,0.225,310.78293,-203.99347,991.05737,292.39001,-233.1416,913.66919,333.07645,-172.70667,870.83685
29,0.233,310.89694,-204.18796,991.13422,292.47534,-233.25215,913.62817,333.07645,-172.70667,870.83685
30,0.242,310.89694,-204.18796,991.13422,292.39001,-233.1416,913.66919,333.7594,-173.70247,871.21252
31,0.25,310.89694,-204.18796,991.13422,292.83139,-232.91275,913.78528,333.7594,-173.70247,871.21252
32,0.258,311.2027,-204.20929,991.26849,293.04108,-232.63828,913.96259,333.7594,-173.70247,871.21252
33,0.267,310.978,-203.9207,991.35449,293.04108,-232.63828,913.96259,333.91006,-173.74083,871.50629
34,0.275,310.978,-203.9207,991.35449,293.13983,-232.48106,913.78119,334.11072,-173.52098,871.47565
35,0.283,310.978,-203.9207,991.35449,293.13983,-232.48106,913.78119,334.00101,-173.24118,871.62451
36,0.292,311.11047,-203.79308,991.46143,293.13983,-232.48106,913.78119,334.00101,-173.24118,871.62451
37,0.3,311.09576,-203.59027,991.63165,293.25333,-232.1158,914.07599,333.57507,-172.53459,871.16675
38,0.308,311.21844,-203.5094,991.41351,293.474,-231.93871,914.13214,333.57507,-172.53459,871.16675
39,0.317,311.21844,-203.5094,991.41351,293.59613,-231.9572,914.21509,333.57507,-172.53459,871.16675
40,0.325,311.18747,-203.37366,991.4884,293.474,-231.93871,914.13214,333.51889,-172.21107,871.34509
41,0.333,311.21844,-203.5094,991.41351,293.474,-231.93871,914.13214,333.16599,-172.30249,870.94513
42,0.342,311.30798,-203.3224,991.21686,293.474,-231.93871,914.13214,333.31705,-171.87439,871.32416
43,0.35,311.43274,-203.04538,991.47168,293.63739,-232.13275,914.10291,332.96408,-171.96577,870.92419
44,0.358,311.30798,-203.3224,991.21686,293.79987,-231.91464,913.93994,332.96408,-171.96577,870.92419
45,0.367,311.50397,-203.16403,991.30634,293.71896,-232.0717,913.74475,332.83069,-171.80119,870.68237
46,0.375,311.30798,-203.3224,991.21686,293.87299,-232.17036,913.72015,332.83069,-171.80119,870.68237
47,0.383,311.95746,-203.42378,990.98468,293.83621,-232.26248,913.59613,333.26755,-171.99777,870.88171
48,0.392,311.92288,-203.8111,990.98492,293.96097,-232.27443,913.68799,332.96408,-171.96577,870.92419
49,0.4,311.92288,-203.8111,990.98492,294.63394,-232.66391,913.763,333.46939,-172.33443,870.90265
50,0.408,311.92288,-203.8111,990.98492,294.50916,-232.65199,913.6712,333.76913,-172.5462,870.87927
51,0.417,311.81186,-203.92903,990.85095,294.63394,-232.66391,913.763,333.76913,-172.5462,870.87927
52,0.425,312.12509,-204.1692,990.92206,294.50916,-232.65199,913.6712,333.6705,-172.65808,870.73523
53,0.433,312.12509,-204.1692,990.92206,294.63394,-232.66391,913.763,333.76913,-172.5462,870.87927
54,0.442,312.23611,-204.05128,991.05609,294.63394,-232.66391,913.763,334.46265,-172.75813,870.8078
55,0.45,312.12509,-204.1692,990.92206,294.63394,-232.66391,913.763,334.69073,-172.28847,871.00024
56,0.458,312.44876,-203.90892,991.16034,294.63394,-232.66391,913.763,334.69073,-172.28847,871.00024
57,0.467,312.4881,-203.94695,991.14478,294.85867,-232.45242,913.71985,335.0737,-172.21413,871.09473
58,0.475,312.70068,-203.80453,991.24908,295.08127,-232.34251,913.77667,335.0737,-172.21413,871.09473
59,0.483,312.70068,-203.80453,991.24908,295.28296,-232.35707,913.69049,335.0737,-172.21413,871.09473
60,0.492,312.70068,-203.80453,991.24908,295.3454,-232.25575,913.79156,335.0737,-172.21413,871.09473
61,0.5,312.70068,-203.80453,991.24908,295.3454,-232.25575,913.79156,335.0737,-172.21413,871.09473
62,0.508,312.83792,-203.58141,991.05908,295.3454,-232.25575,913.79156,335.0737,-172.21413,871.09473
63,0.517,312.62109,-203.02509,991.03583,295.3454,-232.25575,913.79156,335.0737,-172.21413,871.09473
64,0.525,312.62109,-203.02509,991.03583,295.7478,-232.14809,913.94733,334.57855,-172.00258,870.86194
65,0.533,312.99335,-203.48587,990.90912,295.62363,-232.27638,913.60461,334.57855,-172.00258,870.86194
66,0.542,312.94263,-202.97157,990.77368,295.62363,-232.27638,913.60461,334.57855,-172.00258,870.86194
67,0.55,313.38965,-202.81189,990.79272,295.79684,-232.18275,913.82135,334.57855,-172.00258,870.86194
68,0.558,313.49942,-203.54671,990.73022,295.75107,-232.29283,913.7041,334.98276,-172.43384,870.75989
69,0.567,313.76187,-203.27271,990.66595,295.62363,-232.27638,913.60461,334.78015,-172.33916,870.88281
70,0.575,313.49942,-203.54671,990.73022,295.57788,-232.38644,913.4873,335.09564,-172.66063,870.61963
71,0.583,314.16721,-204.14265,991.20679,295.62701,-232.42114,913.36139,335.09564,-172.66063,870.61963
72,0.592,314.16721,-204.14265,991.20679,295.62701,-232.42114,913.36139,334.89426,-172.77339,870.47479
73,0.6,314.10919,-204.26953,991.07434,295.78357,-232.83299,913.46362,335.32446,-172.90034,870.72021
74,0.608,314.10919,-204.26953,991.07434,295.89554,-232.99648,913.52936,335.12311,-173.01311,870.57538
75,0.617,313.77274,-204.63376,991.13422,295.89554,-232.99648,913.52936,335.32446,-172.90034,870.72021
76,0.625,313.95767,-205.14764,991.21344,295.89554,-232.99648,913.52936,335.96011,-173.75975,871.08502
77,0.633,313.9104,-205.40889,991.38934,295.89554,-232.99648,913.52936,335.96011,-173.75975,871.08502
78,0.642,314.11203,-205.47133,991.51978,295.89554,-232.99648,913.52936,336.56815,-174.12837,871.35394
79,0.65,314.12708,-205.18871,991.38513,296.03693,-233.0965,913.54578,337.22028,-173.94994,871.68457
80,0.658,314.30795,-205.31308,991.60913,295.89554,-232.99648,913.52936,337.22028,-173.94994,871.68457
81,0.667,314.45325,-205.03764,991.80396,296.03693,-233.0965,913.54578,337.50043,-173.85974,871.81653
82,0.675,314.52155,-204.69762,991.4577,295.98779,-233.0618,913.67169,338.14914,-173.34506,871.91663
83,0.683,314.3689,-204.20515,991.33722,296.06537,-232.75807,913.98932,338.09555,-172.88029,871.5061
84,0.692,314.62134,-203.93211,991.29236,296.52853,-232.20387,913.89087,338.24911,-172.63614,871.31958
85,0.7,314.71136,-203.7827,991.16339,296.52853,-232.20387,913.89087,337.99985,-171.75375,870.59882
86,0.708,314.71136,-203.7827,991.16339,297.07843,-231.88707,913.72394,337.99985,-171.75375,870.59882
87,0.717,314.71136,-203.7827,991.16339,297.31897,-231.66374,913.68042,337.88715,-171.52704,870.73895
88,0.725,314.98447,-203.44429,991.3772,297.46204,-231.44006,913.74689,337.78275,-171.18712,870.71173
89,0.733,314.95111,-203.57135,991.2312,297.44461,-231.26674,913.77911,337.5625,-171.10944,870.84735
90,0.742,314.36548,-203.02286,990.74377,297.53522,-231.41371,913.57416,337.11935,-170.58824,870.34009
91,0.75,314.38095,-202.89433,990.91632,297.75934,-231.1757,913.57599,337.0451,-170.72374,870.26288
92,0.758,314.36548,-203.02286,990.74377,297.81161,-231.32846,913.24121,337.26544,-170.80147,870.12726
93,0.767,314.05228,-202.78259,990.67267,297.71701,-231.40205,912.91406,337.26544,-170.80147,870.12726
94,0.775,314.36548,-203.02286,990.74377,297.60861,-231.45895,913.01892,337.31128,-170.92812,869.93469
95,0.783,314.36548,-203.02286,990.74377,297.55112,-231.95482,912.96527,337.271,-171.35013,869.92639
96,0.792,314.09528,-203.35388,990.49426,297.38223,-231.93799,912.87573,337.271,-171.35013,869.92639
97,0.8,314.09528,-203.35388,990.49426,297.42896,-232.38318,912.68115,336.93729,-171.9845,870.01294
98,0.808,314.67929,-203.91405,991.01642,297.37463,-232.58475,912.58795,336.79077,-172.39761,870.05804
99,0.817,315.38055,-204.21321,991.03186,297.20862,-232.70677,912.67828,336.25519,-173.10794,869.84204
100,0.825,315.0629,-204.29561,991.04486,297.02988,-232.87967,912.71777,336.41132,-173.25859,870.08142
101,0.833,315.15546,-204.46907,990.51428,296.93716,-233.25612,912.77924,336.47714,-174.21632,870.44891
102,0.842,314.87775,-204.86617,990.30792,296.62601,-233.32602,912.80072,337.05667,-174.39693,870.82306
103,0.85,314.87775,-204.86617,990.30792,296.75638,-233.16693,912.93848,337.05667,-174.39693,870.82306
104,0.858,314.96924,-205.00227,990.5946,296.75638,-233.16693,912.93848,337.05667,-174.39693,870.82306
105,0.867,315.19543,-204.78374,990.29492,297.2063,-233.1604,912.96838,337.71808,-174.17081,871.21277
106,0.875,315.29294,-204.79379,990.74329,297.27005,-233.33435,913.09436,338.83856,-173.80237,871.07739
107,0.883,315.54535,-204.52069,990.6983,297.6962,-232.91763,912.90741,339.26212,-173.44095,871.14783
108,0.892,315.53842,-204.51521,991.31024,298.17419,-232.76538,913.08545,339.55746,-173.1199,871.04321
109,0.9,315.69775,-204.39355,991.50763,298.17419,-232.76538,913.08545,339.72641,-172.78209,871.40698
110,0.908,315.93744,-204.18216,991.57532,298.86185,-231.97684,913.10535,339.83368,-172.39189,871.77478
111,0.917,315.87524,-203.54384,991.58167,299.44934,-231.37126,913.24237,339.59567,-172.05537,871.49536
112,0.925,316.30753,-202.87019,991.66254,300.13773,-231.2037,913.0351,339.74692,-171.96381,871.36957
113,0.933,316.77017,-202.53358,991.41608,300.29813,-231.31206,913.05933,338.96121,-170.85861,870.7854
114,0.942,316.42841,-202.14453,990.94537,301.47433,-231.0294,912.91876,338.9436,-170.08136,870.75891
115,0.95,315.73849,-201.65889,990.7359,301.47433,-231.0294,912.91876,338.25571,-170.0078,870.40167
116,0.958,315.83221,-201.48152,990.55664,301.47433,-231.0294,912.91876,338.25571,-170.0078,870.40167
117,0.967,316.02548,-201.26459,990.51215,300.92578,-231.14369,912.9668,338.22375,-169.81033,869.91876
118,0.975,315.888,-200.99269,990.33453,300.92578,-231.14369,912.9668,337.97153,-169.8936,869.81189
119,0.983,315.9653,-201.07376,990.21259,300.88849,-230.92632,912.76788,337.83783,-169.94362,869.60773
120,0.992,316.98715,-201.63019,989.77679,300.88849,-230.92632,912.76788,337.72977,-170.10854,869.53577
121,1,316.52585,-201.59265,989.78278,300.66772,-231.1031,912.71191,337.62085,-170.08829,869.29089
122,1.008,317.20963,-202.29459,989.81238,300.66772,-231.1031,912.71191,338.52481,-170.19331,868.74207
123,1.017,317.30975,-202.51541,989.45264,300.93854,-231.72426,912.62933,338.64154,-171.4032,868.86182
124,1.025,317.60205,-202.61162,989.29852,300.46423,-232.3924,912.46149,338.64154,-171.4032,868.86182
125,1.033,317.68161,-202.99954,989.26196,300.46423,-232.3924,912.46149,339.16925,-171.76106,868.60883
126,1.042,317.52072,-203.32097,989.28253,300.18823,-232.7404,911.96539,339.52374,-172.24222,868.91705
127,1.05,317.33264,-203.53595,989.31293,300.18823,-232.7404,911.96539,339.93475,-172.87758,869.36456
128,1.058,317.33264,-203.53595,989.31293,299.76941,-233.14072,912.03107,340.08466,-172.91577,869.65802
129,1.067,316.98306,-203.96172,989.48566,299.67163,-233.24995,911.9325,340.08466,-172.91577,869.65802
130,1.075,317.0549,-204.1187,989.41046,299.54678,-233.25052,911.97418,340.76218,-173.86877,870.14337
131,1.083,317.0549,-204.1187,989.41046,299.76941,-233.14072,912.03107,340.76218,-173.86877,870.14337
132,1.092,317.0549,-204.1187,989.41046,299.9501,-232.96071,911.9989,341.22928,-173.87744,870.16852
133,1.1,317.59988,-203.70534,989.79742,300.48215,-232.55972,912.50427,341.00589,-173.48155,870.08435
134,1.108,317.78793,-203.49034,989.76703,300.74551,-232.45073,912.54633,341.34201,-173.3727,870.57184
135,1.117,318.03793,-203.51167,990.02216,301.073,-232.11864,912.65161,341.63638,-172.81148,870.78442
136,1.125,318.19458,-203.22438,990.01282,301.18735,-231.87759,912.84448,341.64966,-172.44466,871.07257
137,1.133,318.30893,-203.02634,990.04749,301.69263,-231.62698,912.89294,341.80087,-171.7782,871.07043
138,1.142,318.09912,-202.68124,990.15405,301.69263,-231.62698,912.89294,341.80087,-171.7782,871.07043
139,1.15,318.28723,-202.46634,990.12366,302.13385,-231.10246,912.8222,341.80087,-171.7782,871.07043
140,1.158,318.20169,-202.29839,990.04236,302.4072,-230.89923,912.6983,341.22961,-171.26389,870.48785
141,1.167,318.60489,-202.22775,989.93066,302.5101,-230.76796,912.56775,340.37637,-169.78217,870.10962
142,1.175,318.7684,-202.08989,989.82782,302.41003,-230.7807,912.42609,339.39838,-169.65457,869.71692
143,1.183,318.43823,-201.92567,989.66901,302.19012,-230.69955,912.44293,339.18887,-169.69269,869.54657
144,1.192,318.19421,-201.85356,989.50745,302.33237,-230.62061,912.32983,339.18887,-169.69269,869.54657
145,1.2,318.7684,-202.08989,989.82782,302.33237,-230.62061,912.32983,339.43289,-169.9351,869.20398
146,1.208,317.9024,-201.94034,989.50586,302.05121,-230.67366,912.36115,338.97385,-170.17351,868.76666
147,1.217,318.37183,-202.09573,989.31885,301.6239,-231.14055,912.21002,338.97385,-170.17351,868.76666
148,1.225,318.27145,-202.17653,989.15234,301.62537,-231.51706,912.16125,339.0386,-171.25258,868.6734
149,1.233,317.95364,-202.25887,989.16528,300.9057,-231.93385,912.08093,339.0386,-171.25258,868.6734
150,1.242,317.84781,-202.85304,989.16711,300.76282,-232.2708,912.12122,339.34897,-171.98859,868.74707
151,1.25,317.96146,-203.04732,989.2439,300.21921,-232.62883,911.81281,339.52374,-172.24222,868.91705
152,1.258,317.79529,-203.1938,989.33875,300.21921,-232.62883,911.81281,339.93475,-172.87758,869.36456
153,1.267,317.60724,-203.40881,989.3692,300.25104,-232.70901,911.70532,340.40225,-172.88644,869.38989
154,1.275,317.67905,-203.56587,989.29401,300.12143,-232.7381,911.71417,340.81763,-173.23312,869.82355
155,1.283,317.67905,-203.56587,989.29401,300.18823,-232.7404,911.96539,341.22928,-173.87744,870.16852
156,1.292,317.67905,-203.56587,989.29401,300.18823,-232.7404,911.96539,341.55042,-174.14622,870.16754
157,1.3,317.58041,-203.72626,989.43573,300.18823,-232.7404,911.96539,341.94067,-174.07822,870.28064
158,1.308,317.75259,-203.71651,989.60455,300.74551,-232.45073,912.54633,342.00534,-173.59143,870.65833
159,1.317,317.94067,-203.50154,989.57416,301.073,-232.11864,912.65161,341.99533,-173.23454,870.79132
160,1.325,318.45428,-203.26894,989.86743,301.38412,-232.04884,912.63025,341.98196,-172.50739,871.09741
161,1.333,318.38226,-203.13492,989.67053,302.00476,-231.46239,912.70917,341.80087,-171.7782,871.07043
162,1.342,318.5304,-202.63689,990.03778,302.24307,-231.2422,912.6756,341.80087,-171.7782,871.07043
163,1.35,319.078,-202.12596,989.99371,302.65231,-230.689,912.45465,341.85269,-170.9537,870.94269
164,1.358,319.13513,-201.78683,990.03143,302.74506,-230.59438,912.53754,341.11404,-169.7357,870.56628
165,1.367,319.13513,-201.78683,990.03143,302.74506,-230.59438,912.53754,340.66733,-169.45723,870.12982
166,1.375,318.63257,-201.4391,989.8786,302.85809,-230.32831,912.50476,339.50653,-169.37199,870.08167
167,1.383,318.55469,-201.22,989.74255,302.85809,-230.32831,912.50476,339.50653,-169.37199,870.08167
168,1.392,318.69547,-201.01401,989.59326,302.66742,-230.43427,912.44128,339.30713,-169.08986,869.89447
169,1.4,318.52472,-201.15897,989.47876,302.57468,-230.52888,912.3584,338.9837,-169.20502,869.49017
170,1.408,318.52472,-201.15897,989.47876,302.57468,-230.52888,912.3584,338.5163,-169.60106,868.93945
171,1.417,318.45111,-201.28607,989.13983,302.33237,-230.62061,912.32983,339.08194,-170.00859,868.83862
172,1.425,318.5004,-201.79562,989.04828,302.03195,-230.7878,912.22998,338.77231,-170.28625,868.62158
173,1.433,318.14139,-201.60098,988.89056,301.30026,-231.2393,912.04639,338.71057,-170.43091,868.51697
174,1.442,318.05609,-202.13513,988.98987,301.19357,-231.67377,911.86078,339.03934,-171.39105,868.49481
175,1.45,317.95023,-202.72935,988.9917,300.58209,-232.04414,911.87317,339.16232,-171.62209,868.40643
176,1.458,317.96146,-203.04732,989.2439,300.14145,-232.46869,911.71649,339.32275,-171.83981,868.55176
177,1.467,317.79501,-203.30582,989.20398,300.12143,-232.7381,911.71417,339.91666,-173.04303,869.16101
178,1.475,317.60693,-203.52081,989.23438,300.15833,-232.80376,911.62256,340.14719,-173.46843,869.20996
179,1.483,317.30853,-203.96948,989.06158,299.54892,-233.31017,911.625,340.7341,-174.04585,869.34937
180,1.492,317.2417,-204.38188,989.07629,299.54892,-233.31017,911.625,341.34192,-174.25774,869.68701
181,1.5,317.41074,-204.53954,989.04901,299.51791,-233.42174,911.77759,341.81277,-174.56451,869.97937
182,1.508,317.29694,-204.71046,989.17969,299.70853,-233.3156,911.84088,341.81277,-174.56451,869.97937
183,1.517,318.01471,-204.48694,989.25452,300.09042,-232.84967,911.86676,341.87161,-174.41493,870.16656
184,1.525,318.0632,-203.87257,989.33215,300.18823,-232.7404,911.96539,341.94067,-174.07822,870.28064
185,1.533,318.44827,-203.39488,989.70587,301.073,-232.11864,912.65161,342.53943,-173.89906,870.87427
186,1.542,318.44827,-203.39488,989.70587,301.38412,-232.04884,912.63025,341.99533,-173.23454,870.79132
187,1.55,318.56863,-203.07091,989.9021,302.01553,-231.5598,912.58801,341.80087,-171.7782,871.07043
188,1.558,318.91452,-202.26382,990.09662,302.73047,-230.94026,912.46051,342.00156,-171.55852,871.03992
189,1.567,319.078,-202.12596,989.99371,302.82321,-230.84564,912.5434,341.54428,-170.60814,870.53827
190,1.575,319.38303,-201.74127,989.9989,303.01385,-230.73969,912.60681,340.33429,-169.59889,869.86816
191,1.583,318.86075,-201.08452,989.79175,302.93573,-230.48842,912.60095,339.75439,-169.48715,869.95972
192,1.592,318.78284,-200.86542,989.6557,302.93573,-230.48842,912.60095,339.30713,-169.08986,869.89447
193,1.6,319.03073,-200.81989,989.62317,302.85809,-230.32831,912.50476,339.09549,-168.85585,869.36627
194,1.608,319.03558,-200.59235,989.61066,302.85809,-230.32831,912.50476,338.612,-168.1478,868.7442
195,1.617,318.95462,-200.55028,989.29962,302.66742,-230.43427,912.44128,338.31183,-169.16116,868.69543
196,1.625,318.49118,-200.77779,988.9812,302.57468,-230.52888,912.3584,338.37207,-169.34583,867.91119
197,1.633,318.3028,-201.3026,988.86151,302.34311,-230.71805,912.20862,338.26392,-169.51074,867.83917
