Frame#,Time,R.Forearm.x,R.Forearm.y,R.Forearm.z,R.Ulna.x,R.Ulna.y,R.Ulna.z,R.Radius.x,R.Radius.y,R.Radius.z
1,0,108.80338,-236.21043,898.0932,80.79209,-274.90808,837.18042,142.31755,-239.48306,800.8653
2,0.008,108.80338,-236.21043,898.0932,80.73335,-274.83334,837.24854,142.31755,-239.48306,800.8653
3,0.017,108.41803,-234.66599,897.64063,80.65865,-274.67352,837.14948,141.86107,-238.71629,800.42413
4,0.025,107.93729,-234.85736,897.55951,80.51735,-274.46826,836.86749,141.86107,-238.71629,800.42413
5,0.033,108.57256,-233.7496,897.60864,80.27095,-274.23895,836.8551,141.86107,-238.71629,800.42413
6,0.042,108.57256,-233.7496,897.60864,80.12923,-274.0332,836.57336,141.69148,-237.88052,800.44043
7,0.05,108.09171,-233.94109,897.52753,79.94054,-273.90817,836.32703,141.61873,-237.84283,799.84784
8,0.058,108.09171,-233.94109,897.52753,80.01247,-273.82532,836.06897,141.19646,-237.16718,800.22327
9,0.067,108.30773,-233.65466,897.74792,79.94054,-273.90817,836.32703,141.13533,-237.21547,800.03174
10,0.075,108.09171,-233.94109,897.52753,79.82531,-273.72726,836.14221,138.80399,-237.31084,799.66626
11,0.083,107.80466,-233.38931,897.78021,79.67775,-273.66614,836.19812,138.80399,-237.31084,799.66626
12,0.092,106.39716,-232.84473,897.49719,79.63654,-272.97516,836.00208,138.80399,-237.31084,799.66626
13,0.1,106.61309,-232.55812,897.71765,79.42675,-272.70789,835.83917,138.80399,-237.31084,799.66626
14,0.108,106.48046,-232.10085,897.26434,79.22565,-272.71301,835.8349,138.80399,-237.31084,799.66626
15,0.117,106.1254,-232.64038,897.22583,78.88248,-273.16937,835.68292,138.80399,-237.31084,799.66626
16,0.125,106.07861,-232.16882,897.28088,78.377,-272.81119,835.85223,138.5426,-237.16675,799.43365
17,0.133,106.07861,-232.16882,897.28088,77.94186,-271.97305,835.77716,138.61533,-237.20436,800.02612
18,0.142,106.07666,-232.03389,896.95068,77.94186,-271.97305,835.77716,138.61963,-236.95102,799.34961
19,0.15,105.90704,-231.94275,897.06781,77.65817,-271.93933,836.03333,138.09967,-236.63551,799.48822
20,0.158,105.90704,-231.94275,897.06781,77.39193,-271.76025,835.92682,138.09967,-236.63551,799.48822
21,0.167,105.90704,-231.94275,897.06781,77.19489,-271.62375,835.82654,138.03854,-236.68398,799.29663
22,0.175,106.07666,-232.03389,896.95068,77.19489,-271.62375,835.82654,137.66536,-236.53647,799.35999
23,0.183,105.54822,-232.2236,896.88068,77.19489,-271.62375,835.82654,137.25885,-235.15355,799.59418
24,0.192,105.90704,-231.94275,897.06781,77.08779,-271.68149,835.77423,136.97592,-235.38425,799.51508
25,0.2,105.54822,-232.2236,896.88068,76.99072,-271.77115,835.68457,136.7142,-235.24042,799.28241
26,0.208,105.54822,-232.2236,896.88068,77.01063,-271.14178,835.61658,136.59897,-235.21086,799.39197
27,0.217,105.54822,-232.2236,896.88068,77.10773,-271.05206,835.7063,136.4892,-235.22331,798.92224
28,0.225,105.60045,-232.01482,897.06219,77.01063,-271.14178,835.61658,136.61365,-234.73988,798.75214
29,0.233,105.54822,-232.2236,896.88068,76.79364,-271.6347,835.58423,136.61365,-234.73988,798.75214
30,0.242,105.54822,-232.2236,896.88068,76.79364,-271.6347,835.58423,136.42676,-235.01309,798.85297
31,0.25,105.54822,-232.2236,896.88068,76.2395,-270.60312,835.48993,136.61365,-234.73988,798.75214
32,0.258,105.06818,-231.05244,896.716,76.12888,-270.5293,835.48511,136.41002,-234.59,798.88202
33,0.267,105.016,-231.26129,896.53448,75.97961,-270.45908,835.54944,136.41002,-234.59,798.88202
34,0.275,104.56062,-231.84738,896.59106,75.97961,-270.45908,835.54944,136.41002,-234.59,798.88202
35,0.283,104.61281,-231.63861,896.77258,75.97961,-270.45908,835.54944,136.41002,-234.59,798.88202
36,0.292,104.03208,-232.03705,896.52118,75.78141,-270.98611,835.53918,136.41002,-234.59,798.88202
37,0.3,103.18015,-231.95668,896.50366,75.66606,-271.10428,835.47797,136.41002,-234.59,798.88202
38,0.308,103.99887,-231.56769,896.69916,75.53923,-271.1611,835.42651,136.41002,-234.59,798.88202
39,0.317,103.47043,-231.75726,896.62927,75.63691,-270.47598,835.57104,136.41002,-234.59,798.88202
40,0.325,103.66095,-231.76498,896.58466,75.62361,-270.38245,835.41528,136.41002,-234.59,798.88202
41,0.333,103.18015,-231.95668,896.50366,75.49026,-271.16214,835.58759,136.2231,-234.86322,798.98285
42,0.342,102.85006,-231.73743,896.30811,75.49026,-271.16214,835.58759,136.2231,-234.86322,798.98285
43,0.35,103.00532,-231.44853,896.79865,75.49026,-271.16214,835.58759,135.18921,-234.98112,798.9165
44,0.358,102.34602,-231.47333,896.34033,75.49026,-271.16214,835.58759,136.2231,-234.86322,798.98285
45,0.367,102.34602,-231.47333,896.34033,75.50823,-270.50064,835.354,136.2231,-234.86322,798.98285
46,0.375,102.85006,-231.73743,896.30811,75.51005,-270.53287,835.51959,136.2231,-234.86322,798.98285
47,0.383,103.16459,-231.08449,896.53595,75.53272,-271.12616,835.26056,136.2231,-234.86322,798.98285
48,0.392,102.34602,-231.47333,896.34033,75.48843,-271.12994,835.422,136.2231,-234.86322,798.98285
49,0.4,103.09136,-230.6877,896.40942,75.53923,-271.1611,835.42651,135.18921,-234.98112,798.9165
50,0.408,102.80115,-230.88721,896.28381,75.53272,-271.12616,835.26056,135.18921,-234.98112,798.9165
51,0.417,103.78608,-230.95961,896.33258,75.53272,-271.12616,835.26056,135.18921,-234.98112,798.9165
52,0.425,103.78608,-230.95961,896.33258,75.65956,-271.06934,835.31195,135.57994,-234.85759,798.68579
53,0.433,103.78608,-230.95961,896.33258,75.55254,-270.49683,835.19257,135.33643,-234.38171,798.47021
54,0.442,104.12397,-230.76222,896.44708,75.68038,-271.18729,835.20447,135.41576,-234.11055,798.2019
55,0.45,104.12502,-231.11447,896.20258,75.53272,-271.12616,835.26056,135.68179,-234.47054,798.14142
56,0.458,104.11622,-231.17894,896.52814,75.91908,-271.32224,835.16382,135.68179,-234.47054,798.14142
57,0.467,104.12502,-231.11447,896.20258,76.12587,-271.28925,834.96851,135.68179,-234.47054,798.14142
58,0.475,103.78608,-230.95961,896.33258,76.31561,-271.63385,834.78564,135.68179,-234.47054,798.14142
59,0.483,103.84988,-230.93179,896.03967,76.27197,-270.86115,834.63031,135.68179,-234.47054,798.14142
60,0.492,103.84988,-230.93179,896.03967,76.42924,-271.03922,834.60352,136.71513,-234.353,798.2077
61,0.5,104.13364,-231.05029,895.87714,76.25207,-271.49048,834.69843,136.71513,-234.353,798.2077
62,0.508,104.13364,-231.05029,895.87714,76.25207,-271.49048,834.69843,136.71513,-234.353,798.2077
63,0.517,103.84988,-230.93179,896.03967,75.96645,-271.20978,834.62708,136.71513,-234.353,798.2077
64,0.525,103.84988,-230.93179,896.03967,75.96645,-271.20978,834.62708,136.71513,-234.353,798.2077
65,0.533,103.84988,-230.93179,896.03967,75.96645,-271.20978,834.62708,136.71513,-234.353,798.2077
66,0.542,103.84988,-230.93179,896.03967,75.98638,-270.58047,834.55902,136.71513,-234.353,798.2077
67,0.55,103.84988,-230.93179,896.03967,75.98638,-270.58047,834.55902,136.97707,-234.49675,798.44055
68,0.558,103.84988,-230.93179,896.03967,75.98638,-270.58047,834.55902,136.97707,-234.49675,798.44055
69,0.567,103.84988,-230.93179,896.03967,75.98638,-270.58047,834.55902,136.97707,-234.49675,798.44055
70,0.575,103.84988,-230.93179,896.03967,75.96645,-271.20978,834.62708,136.97707,-234.49675,798.44055
71,0.583,103.62447,-231.1472,895.86823,75.96645,-271.20978,834.62708,136.97707,-234.49675,798.44055
72,0.592,104.13364,-231.05029,895.87714,76.19738,-270.70129,834.53125,136.82533,-234.17644,798.06262
73,0.6,104.13364,-231.05029,895.87714,76.19738,-270.70129,834.53125,136.82533,-234.17644,798.06262
74,0.608,104.13364,-231.05029,895.87714,76.19738,-270.70129,834.53125,136.82533,-234.17644,798.06262
75,0.617,103.98357,-230.88654,895.2489,76.45994,-270.51697,834.48517,136.82533,-234.17644,798.06262
76,0.625,104.17239,-230.77451,895.55701,76.3437,-270.82858,834.1731,137.10924,-233.79068,798.06989
77,0.633,104.58935,-231.01663,895.63873,76.56068,-270.888,834.32886,136.82533,-234.17644,798.06262
78,0.642,104.73861,-230.9313,895.44519,76.81443,-270.77432,834.43164,136.82533,-234.17644,798.06262
79,0.65,104.40053,-231.12868,895.33069,76.81927,-270.91779,834.18024,137.12706,-233.3851,798.16498
80,0.658,104.73861,-230.9313,895.44519,76.92894,-270.84964,834.242,137.38579,-233.55664,797.79346
81,0.667,105.13634,-230.44035,895.48022,76.94787,-270.71951,833.98126,137.38579,-233.55664,797.79346
82,0.675,104.68648,-231.14018,895.26373,76.94787,-270.71951,833.98126,137.36795,-233.96214,797.69843
83,0.683,104.73861,-230.9313,895.44519,77.05753,-270.65137,834.04303,137.36795,-233.96214,797.69843
84,0.692,105.01414,-230.98463,895.34198,77.24673,-270.74789,833.9549,137.36795,-233.96214,797.69843
85,0.7,104.68648,-231.14018,895.26373,77.05753,-270.65137,834.04303,137.36795,-233.96214,797.69843
86,0.708,104.66107,-231.88664,895.40564,77.13705,-270.81604,833.89319,137.6311,-234.09662,798.13281
87,0.717,104.99905,-231.68924,895.52008,77.13705,-270.81604,833.89319,137.6311,-234.09662,798.13281
88,0.725,105.42425,-231.9062,896.04492,77.53696,-270.94394,834.05035,137.6311,-234.09662,798.13281
89,0.733,105.42425,-231.9062,896.04492,77.64677,-271.6438,834.09668,137.6311,-234.09662,798.13281
90,0.742,105.09676,-232.06183,895.96674,77.58243,-271.74283,834.19611,137.6311,-234.09662,798.13281
91,0.75,105.42425,-231.9062,896.04492,77.58209,-271.71951,833.86401,137.6311,-234.09662,798.13281
92,0.758,105.66741,-232.10271,896.35425,77.46929,-271.45258,834.19952,138.15375,-234.39407,798.39716
93,0.767,105.66741,-232.10271,896.35425,77.6575,-271.2323,834.18805,138.05566,-234.75386,798.16022
94,0.775,105.33992,-232.25835,896.27612,77.84542,-271.27856,834.14532,138.05566,-234.75386,798.16022
95,0.783,105.66741,-232.10271,896.35425,77.75642,-271.57568,834.15839,138.05566,-234.75386,798.16022
96,0.792,105.66741,-232.10271,896.35425,77.86833,-272.00739,834.37231,138.05566,-234.75386,798.16022
97,0.8,105.66741,-232.10271,896.35425,77.86833,-272.00739,834.37231,138.05566,-234.75386,798.16022
98,0.808,105.33992,-232.25835,896.27612,77.75299,-272.12546,834.3111,138.05566,-234.75386,798.16022
99,0.817,105.66741,-232.10271,896.35425,77.97147,-271.92975,834.44275,138.05566,-234.75386,798.16022
100,0.825,105.66741,-232.10271,896.35425,77.86833,-272.00739,834.37231,138.05566,-234.75386,798.16022
101,0.833,105.66741,-232.10271,896.35425,77.86833,-272.00739,834.37231,138.09158,-235.05443,798.31885
102,0.842,105.66741,-232.10271,896.35425,77.97147,-271.92975,834.44275,138.09158,-235.05443,798.31885
103,0.85,105.33992,-232.25835,896.27612,77.85992,-272.03186,834.78278,138.09158,-235.05443,798.31885
104,0.858,105.33992,-232.25835,896.27612,77.74457,-272.14993,834.72156,137.80757,-235.43991,798.31152
105,0.867,105.33992,-232.25835,896.27612,77.74457,-272.14993,834.72156,137.80757,-235.43991,798.31152
106,0.875,105.66741,-232.10271,896.35425,77.74457,-272.14993,834.72156,137.69733,-235.61629,798.4566
107,0.883,105.11451,-232.47372,896.10474,77.57288,-272.19534,834.68073,137.69733,-235.61629,798.4566
108,0.892,105.11451,-232.47372,896.10474,77.57288,-272.19534,834.68073,137.69733,-235.61629,798.4566
109,0.9,105.11451,-232.47372,896.10474,77.41267,-272.1492,834.72327,137.69733,-235.61629,798.4566
110,0.908,105.11451,-232.47372,896.10474,76.97984,-272.26483,834.61047,137.69733,-235.61629,798.4566
111,0.917,104.65903,-233.05971,896.16132,76.97984,-272.26483,834.61047,137.69733,-235.61629,798.4566
112,0.925,104.17544,-233.18646,895.95447,76.79263,-272.16672,834.68372,137.51044,-235.88937,798.55737
113,0.933,104.17544,-233.18646,895.95447,76.62844,-272.04913,834.5791,137.6593,-236.44328,798.70288
114,0.942,104.17544,-233.18646,895.95447,76.35946,-272.2829,834.66937,137.6593,-236.44328,798.70288
115,0.95,104.17544,-233.18646,895.95447,76.04878,-272.08087,834.55548,137.6593,-236.44328,798.70288
116,0.958,104.17544,-233.18646,895.95447,76.00656,-272.16632,834.47632,137.13695,-236.1465,798.43878
117,0.967,103.69459,-233.37819,895.87347,75.95246,-272.84171,834.56659,137.13695,-236.1465,798.43878
118,0.975,103.69459,-233.37819,895.87347,75.85571,-273.10867,834.51746,136.62245,-236.3119,798.49652
119,0.983,103.69459,-233.37819,895.87347,75.70765,-273.26224,834.66351,136.62245,-236.3119,798.49652
120,0.992,103.45144,-233.1817,895.56427,74.92039,-273.42789,834.74011,136.54555,-236.52774,798.58057
121,1,103.45144,-233.1817,895.56427,74.80543,-273.96661,834.58942,136.41724,-236.5643,798.34332
122,1.008,103.45144,-233.1817,895.56427,74.57752,-273.94733,834.6076,135.30588,-236.89815,798.36096
123,1.017,103.45144,-233.1817,895.56427,74.32101,-274.25543,834.42499,135.15694,-236.34386,798.21533
124,1.025,103.45144,-233.1817,895.56427,74.17664,-274.47165,834.42035,135.15694,-236.34386,798.21533
125,1.033,103.31211,-233.43413,895.74622,73.96653,-274.55228,834.31158,134.77481,-237.09023,797.97125
126,1.042,103.31211,-233.43413,895.74622,73.95379,-274.67117,834.39264,134.77481,-237.09023,797.97125
127,1.05,103.31211,-233.43413,895.74622,73.78256,-274.69098,834.37531,134.39278,-237.54352,798.02161
128,1.058,102.85684,-234.02058,895.80316,73.78256,-274.69098,834.37531,134.46866,-238.10603,797.85394
129,1.067,101.62174,-234.16815,895.52637,73.78256,-274.69098,834.37531,134.56148,-238.38115,798.00513
130,1.075,101.27185,-234.66479,895.65082,73.51749,-274.63077,834.34833,134.22086,-238.89404,797.93927
131,1.083,100.98855,-234.54645,895.81299,73.45668,-274.68857,834.34167,134.22086,-238.89404,797.93927
132,1.092,100.98855,-234.54645,895.81299,73.39795,-274.94125,834.19727,134.22086,-238.89404,797.93927
133,1.1,101.27185,-234.66479,895.65082,73.34353,-275.00168,834.14258,134.22086,-238.89404,797.93927
134,1.108,100.98855,-234.54645,895.81299,73.24671,-275.09164,834.05292,133.05254,-239.72731,797.91473
135,1.117,100.53912,-235.24672,895.59662,72.84959,-275.2756,834.25806,133.05254,-239.72731,797.91473
136,1.125,100.59116,-235.03793,895.77783,72.73947,-275.38669,833.89508,133.05254,-239.72731,797.91473
137,1.133,100.59116,-235.03793,895.77783,72.61005,-275.31747,833.95844,133.06616,-239.92564,797.82324
138,1.142,100.59116,-235.03793,895.77783,72.84838,-275.4689,834.00732,133.06616,-239.92564,797.82324
139,1.15,100.28033,-236.02441,895.51105,72.9778,-275.53812,833.94397,133.06616,-239.92564,797.82324
140,1.158,100.28033,-236.02441,895.51105,72.9778,-275.53812,833.94397,133.06616,-239.92564,797.82324
141,1.167,100.28033,-236.02441,895.51105,72.9778,-275.53812,833.94397,133.06616,-239.92564,797.82324
142,1.175,100.56354,-236.14255,895.34894,72.9778,-275.53812,833.94397,133.06616,-239.92564,797.82324
143,1.183,100.56354,-236.14255,895.34894,72.94545,-276.0249,833.74774,133.06616,-239.92564,797.82324
144,1.192,100.56354,-236.14255,895.34894,72.9665,-275.94916,833.8526,133.06616,-239.92564,797.82324
145,1.2,100.56354,-236.14255,895.34894,72.94545,-276.0249,833.74774,133.06616,-239.92564,797.82324
146,1.208,100.56354,-236.14255,895.34894,73.15602,-276.14551,833.72003,133.06616,-239.92564,797.82324
147,1.217,100.97982,-236.38383,895.4306,73.1673,-275.73447,833.8114,134.10199,-239.8085,797.88977
148,1.225,100.97982,-236.38383,895.4306,73.15602,-276.14551,833.72003,134.10199,-239.8085,797.88977
149,1.233,100.97982,-236.38383,895.4306,73.22828,-276.25977,833.66119,134.10199,-239.8085,797.88977
150,1.242,100.97982,-236.38383,895.4306,73.15602,-276.14551,833.72003,134.19505,-240.08353,798.04108
151,1.25,100.97982,-236.38383,895.4306,73.15602,-276.14551,833.72003,134.19505,-240.08353,798.04108
152,1.258,100.97982,-236.38383,895.4306,73.09605,-276.24594,833.84314,134.19505,-240.08353,798.04108
153,1.267,100.97982,-236.38383,895.4306,73.08196,-276.48682,833.88855,134.19505,-240.08353,798.04108
154,1.275,100.97982,-236.38383,895.4306,73.16831,-276.3602,833.7843,134.19505,-240.08353,798.04108
155,1.283,100.97982,-236.38383,895.4306,73.16831,-276.3602,833.7843,134.27162,-240.64597,797.87335
156,1.292,100.97982,-236.38383,895.4306,73.08196,-276.48682,833.88855,134.53088,-240.80708,797.7038
157,1.3,100.97982,-236.38383,895.4306,73.16831,-276.3602,833.7843,134.53088,-240.80708,797.7038
158,1.308,101.22283,-236.57983,895.73938,73.1848,-276.62927,833.76318,134.53088,-240.80708,797.7038
159,1.317,100.97982,-236.38383,895.4306,73.1848,-276.62927,833.76318,134.53088,-240.80708,797.7038
160,1.325,101.22283,-236.57983,895.73938,73.37434,-277.00208,833.89282,134.53088,-240.80708,797.7038
161,1.333,101.22283,-236.57983,895.73938,73.37434,-277.00208,833.89282,135.05228,-241.10268,797.96747
162,1.342,101.22283,-236.57983,895.73938,73.37434,-277.00208,833.89282,135.05228,-241.10268,797.96747
163,1.35,101.22283,-236.57983,895.73938,73.37434,-277.00208,833.89282,135.05228,-241.10268,797.96747
164,1.358,101.22283,-236.57983,895.73938,73.37434,-277.00208,833.89282,135.05228,-241.10268,797.96747
165,1.367,101.22283,-236.57983,895.73938,73.37434,-277.00208,833.89282,135.05228,-241.10268,797.96747
166,1.375,101.22283,-236.57983,895.73938,73.37434,-277.00208,833.89282,135.05228,-241.10268,797.96747
167,1.383,101.22283,-236.57983,895.73938,73.52988,-277.1438,834.40753,134.53088,-240.80708,797.7038
168,1.392,101.37901,-236.75345,896.16187,73.52988,-277.1438,834.40753,134.45436,-240.24475,797.87146
169,1.4,101.37901,-236.75345,896.16187,73.52988,-277.1438,834.40753,134.45436,-240.24475,797.87146
170,1.408,101.37901,-236.75345,896.16187,73.52988,-277.1438,834.40753,134.45436,-240.24475,797.87146
171,1.417,101.37901,-236.75345,896.16187,73.52988,-277.1438,834.40753,134.45436,-240.24475,797.87146
172,1.425,101.37901,-236.75345,896.16187,73.36597,-277.02646,834.30304,134.45436,-240.24475,797.87146
173,1.433,101.37901,-236.75345,896.16187,73.36597,-277.02646,834.30304,134.34415,-240.42154,798.01648
174,1.442,101.37901,-236.75345,896.16187,73.36597,-277.02646,834.30304,134.08485,-240.26031,798.18604
175,1.45,101.37901,-236.75345,896.16187,73.36597,-277.02646,834.30304,134.08485,-240.26031,798.18604
176,1.458,101.37901,-236.75345,896.16187,73.0901,-276.78024,834.27765,134.16144,-240.82275,798.01831
177,1.467,101.37901,-236.75345,896.16187,73.0901,-276.78024,834.27765,134.16144,-240.82275,798.01831
178,1.475,101.37901,-236.75345,896.16187,73.0901,-276.78024,834.27765,134.16144,-240.82275,798.01831
179,1.483,101.35514,-237.28903,896.21375,72.87957,-276.65967,834.3053,134.0528,-241.24583,798.09869
180,1.492,101.35514,-237.28903,896.21375,72.77271,-276.71753,834.25317,133.97383,-241.51669,798.36755
181,1.5,101.22283,-236.57983,895.73938,72.77271,-276.71753,834.25317,134.0528,-241.24583,798.09869
182,1.508,101.19899,-237.11551,895.79132,72.62361,-276.64737,834.31744,134.0528,-241.24583,798.09869
183,1.517,101.22283,-236.57983,895.73938,72.62361,-276.64737,834.31744,134.0528,-241.24583,798.09869
184,1.525,101.10731,-236.54959,895.89087,72.49345,-276.75681,834.19763,134.0528,-241.24583,798.09869
185,1.533,100.97982,-236.38383,895.4306,72.64255,-276.82697,834.13336,133.01651,-241.36328,798.03217
186,1.542,100.97982,-236.38383,895.4306,72.63192,-276.62299,833.90729,133.01651,-241.36328,798.03217
187,1.55,100.97982,-236.38383,895.4306,72.78104,-276.69315,833.84296,133.01651,-241.36328,798.03217
188,1.558,100.95601,-236.91962,895.48254,72.78104,-276.69315,833.84296,132.8566,-241.2787,797.79694
189,1.567,100.97982,-236.38383,895.4306,72.77271,-276.71753,834.25317,133.12535,-240.94006,797.95178
190,1.575,100.97982,-236.38383,895.4306,72.78104,-276.69315,833.84296,133.12535,-240.94006,797.95178
191,1.583,100.97982,-236.38383,895.4306,72.77271,-276.71753,834.25317,133.12535,-240.94006,797.95178
192,1.592,100.95601,-236.91962,895.48254,72.78104,-276.69315,833.84296,133.12535,-240.94006,797.95178
193,1.6,100.97982,-236.38383,895.4306,72.78104,-276.69315,833.84296,133.12535,-240.94006,797.95178
194,1.608,100.97982,-236.38383,895.4306,72.78104,-276.69315,833.84296,133.23564,-240.76321,797.80676
195,1.617,100.97982,-236.38383,895.4306,72.63192,-276.62299,833.90729,133.23564,-240.76321,797.80676
196,1.625,100.97982,-236.38383,895.4306,72.69226,-276.30984,833.92297,133.23564,-240.76321,797.80676
197,1.633,100.97982,-236.38383,895.4306,72.76453,-276.4241,833.86407,133.23564,-240.76321,797.80676
198,1.642,100.56354,-236.14255,895.34894,72.69226,-276.30984,833.92297,133.23564,-240.76321,797.80676
