Frame#,Time,L.Forearm.x,L.Forearm.y,L.Forearm.z,L.Ulna.x,L.Ulna.y,L.Ulna.z,L.Radius.x,L.Radius.y,L.Radius.z
1,0,-63.61066,262.66592,672.89642,1.15745,250.34528,615.16534,20.84411,171.14528,637.5022
2,0.008,-63.93472,262.65118,672.75671,1.09749,249.73784,614.65802,21.17545,170.89268,637.69366
3,0.017,-63.61066,262.66592,672.89642,1.10803,250.97308,615.3136,20.84411,171.14528,637.5022
4,0.025,-63.93472,262.65118,672.75671,1.15745,250.34528,615.16534,21.17545,170.89268,637.69366
5,0.033,-63.72035,262.62491,672.97083,1.15745,250.34528,615.16534,20.84411,171.14528,637.5022
6,0.042,-63.99477,262.80051,672.96692,1.09749,249.73784,614.65802,20.84411,171.14528,637.5022
7,0.05,-63.93368,262.75681,673.24634,0.95034,251.07896,615.25391,20.84411,171.14528,637.5022
8,0.058,-63.99477,262.80051,672.96692,0.97312,250.44908,614.92346,20.66177,169.97128,638.51587
9,0.067,-63.87362,262.60751,673.03613,0.99974,250.45117,615.10571,20.41998,169.86552,638.43744
10,0.075,-64.23921,262.48602,672.88428,0.78555,250.37813,614.77423,20.30093,169.56511,638.36914
11,0.083,-64.23921,262.48602,672.88428,0.46744,250.47549,614.70221,19.71187,169.96201,638.50415
12,0.092,-64.02481,262.45975,673.09833,0.97312,250.44908,614.92346,19.41726,169.86156,638.51959
13,0.1,-64.22787,262.53903,673.15179,0.65544,249.8501,614.96436,19.54749,169.60306,638.46783
14,0.108,-64.22787,262.53903,673.15179,0.38801,250.46567,615.48975,19.41726,169.86156,638.51959
15,0.117,-63.98804,262.50308,673.35913,0.25476,250.44963,614.80396,19.43843,169.53447,638.54926
16,0.125,-64.22787,262.53903,673.15179,0.32794,249.85826,614.98248,19.30821,169.79297,638.60101
17,0.133,-64.22787,262.53903,673.15179,0.20116,249.82362,615.03741,19.30821,169.79297,638.60101
18,0.142,-64.22787,262.53903,673.15179,0.08282,249.8643,615.23224,19.30821,169.79297,638.60101
19,0.15,-64.40269,262.56665,673.1803,-0.1027,249.91772,615.00769,19.30821,169.79297,638.60101
20,0.158,-64.40269,262.56665,673.1803,-0.0613,249.93573,615.19952,19.30821,169.79297,638.60101
21,0.167,-64.5783,262.27005,673.1413,-0.24683,249.98911,614.97504,19.18351,169.74031,638.67157
22,0.175,-64.75277,262.34204,673.12671,-0.78123,250.89633,615.56354,19.43926,169.43069,638.89423
23,0.183,-64.75277,262.34204,673.12671,-0.77122,250.62433,614.98901,19.12558,170.68564,637.97906
24,0.192,-64.57713,262.63864,673.16571,-0.96675,250.94968,615.33917,19.35977,170.57422,638.05988
25,0.2,-64.75277,262.34204,673.12671,-0.77122,250.62433,614.98901,19.18351,169.74031,638.67157
26,0.208,-64.75277,262.34204,673.12671,-0.77122,250.62433,614.98901,19.43926,169.43069,638.89423
27,0.217,-64.75277,262.34204,673.12671,-0.96675,250.94968,615.33917,18.9542,170.61848,638.23743
28,0.225,-64.32983,262.5228,673.21375,-1.24468,250.99857,615.55756,18.80631,170.74352,638.14191
29,0.233,-64.96287,261.89117,672.83075,-0.93663,250.94778,615.71332,19.06951,169.52492,639.06976
30,0.242,-64.96287,261.89117,672.83075,-1.19876,251.05112,615.49744,18.59129,169.73285,638.84943
31,0.25,-64.96275,262.38925,673.25836,-1.24468,250.99857,615.55756,18.80631,170.74352,638.14191
32,0.258,-65.23396,262.33176,673.27765,-0.93663,250.94778,615.71332,18.46559,170.58453,638.14777
33,0.267,-65.23396,262.33176,673.27765,-1.16863,251.04915,615.87152,19.06951,169.52492,639.06976
34,0.275,-65.34496,262.4465,673.38818,-1.06247,250.94551,615.74036,18.80631,170.74352,638.14191
35,0.283,-65.23396,262.33176,673.27765,-1.16863,251.04915,615.87152,18.80631,170.74352,638.14191
36,0.292,-65.23396,262.33176,673.27765,-0.86341,250.3562,615.89197,18.80631,170.74352,638.14191
37,0.3,-65.23396,262.33176,673.27765,-0.86341,250.3562,615.89197,18.44337,168.75725,638.38403
38,0.308,-65.23396,262.33176,673.27765,-0.86341,250.3562,615.89197,18.91111,169.83582,639.15448
39,0.317,-64.84753,261.86414,673.41705,-0.86341,250.3562,615.89197,18.44337,168.75725,638.38403
40,0.325,-65.11871,261.80661,673.43634,-0.86341,250.3562,615.89197,18.91111,169.83582,639.15448
41,0.333,-65.11871,261.80661,673.43634,-0.86341,250.3562,615.89197,18.88593,169.8335,638.83392
42,0.342,-65.11871,261.80661,673.43634,-0.53176,250.35585,616.07379,18.69337,169.5041,639.24377
43,0.35,-64.98074,261.73108,673.45709,-0.61777,250.07333,616.16803,18.69337,169.5041,639.24377
44,0.358,-65.11871,261.80661,673.43634,-0.42227,249.74812,615.81805,18.66818,169.5018,638.92316
45,0.367,-65.04559,261.56561,673.72626,-0.88106,250.16202,615.99988,18.69337,169.5041,639.24377
46,0.375,-64.8758,261.4808,673.57233,-1.19243,250.00067,616.08997,18.37355,169.40121,638.93866
47,0.383,-64.94894,261.72177,673.28241,-1.17524,249.93123,616.14618,18.39875,169.40352,639.25928
48,0.392,-65.11871,261.80661,673.43634,-1.21214,249.8947,615.98578,18.37355,169.40121,638.93866
49,0.4,-65.11871,261.80661,673.43634,-1.3183,249.99837,616.117,18.39875,169.40352,639.25928
50,0.408,-65.22968,261.92136,673.54688,-1.3183,249.99837,616.117,18.37355,169.40121,638.93866
51,0.417,-65.31091,261.9545,673.67731,-1.3183,249.99837,616.117,18.37355,169.40121,638.93866
52,0.425,-65.34496,262.4465,673.38818,-1.3183,249.99837,616.117,18.37355,169.40121,638.93866
53,0.433,-65.34496,262.4465,673.38818,-1.50056,250.05148,615.93408,18.37355,169.40121,638.93866
54,0.442,-65.34496,262.4465,673.38818,-1.47937,250.28439,615.80457,18.46017,169.06073,639.2215
55,0.45,-65.42617,262.47968,673.51862,-1.47937,250.28439,615.80457,18.59129,169.73285,638.84943
56,0.458,-65.70094,262.72278,673.61566,-1.71442,250.89685,615.64038,18.59129,169.73285,638.84943
57,0.467,-66.15486,262.65195,673.63092,-1.7356,250.66403,615.7699,18.37355,169.40121,638.93866
58,0.475,-66.15486,262.65195,673.63092,-1.71442,250.89685,615.64038,17.80606,169.28058,639.03015
59,0.483,-66.6261,262.60153,673.44806,-1.82278,251.01939,615.55682,17.80606,169.28058,639.03015
60,0.492,-66.72723,262.38852,673.48566,-1.71442,250.89685,615.64038,17.80606,169.28058,639.03015
61,0.5,-66.72723,262.38852,673.48566,-1.82278,251.01939,615.55682,17.0597,170.31023,637.80011
62,0.508,-66.72723,262.38852,673.48566,-1.99632,251.10394,615.32153,17.51148,168.91858,638.71368
63,0.517,-66.81841,262.3707,673.62421,-1.99632,251.10394,615.32153,16.93102,170.40648,637.72717
64,0.525,-66.72723,262.38852,673.48566,-1.99632,251.10394,615.32153,17.09399,170.41743,637.71143
65,0.533,-66.81841,262.3707,673.62421,-1.99632,251.10394,615.32153,17.0597,170.31023,637.80011
66,0.542,-67.25319,262.60907,673.18689,-2.14811,251.14679,615.1004,17.46487,169.41425,638.75293
67,0.55,-67.71552,262.05399,673.10638,-2.14811,251.14679,615.1004,17.46487,169.41425,638.75293
68,0.558,-67.79266,262.30344,672.7229,-2.14811,251.14679,615.1004,17.0597,170.31023,637.80011
69,0.567,-67.68993,261.69705,672.50952,-2.21229,251.38583,615.04126,17.0597,170.31023,637.80011
70,0.575,-67.98569,261.83282,672.5495,-2.14811,251.14679,615.1004,17.0597,170.31023,637.80011
71,0.583,-67.68993,261.69705,672.50952,-2.14811,251.14679,615.1004,16.99495,168.87347,638.11597
72,0.592,-67.68993,261.69705,672.50952,-2.14811,251.14679,615.1004,17.0597,170.31023,637.80011
73,0.6,-67.68993,261.69705,672.50952,-2.21229,251.38583,615.04126,17.46487,169.41425,638.75293
74,0.608,-67.97771,261.81979,672.37585,-2.14811,251.14679,615.1004,17.46487,169.41425,638.75293
75,0.617,-67.98121,261.5199,672.33551,-2.14811,251.14679,615.1004,17.46487,169.41425,638.75293
76,0.625,-67.68993,261.69705,672.50952,-2.14811,251.14679,615.1004,17.46487,169.41425,638.75293
77,0.633,-67.98121,261.5199,672.33551,-2.14811,251.14679,615.1004,17.46487,169.41425,638.75293
78,0.642,-67.68993,261.69705,672.50952,-2.14811,251.14679,615.1004,17.25405,169.70775,638.53564
79,0.65,-67.98121,261.5199,672.33551,-2.14811,251.14679,615.1004,16.99495,168.87347,638.11597
80,0.658,-67.68993,261.69705,672.50952,-2.14811,251.14679,615.1004,17.46487,169.41425,638.75293
81,0.667,-68.19695,261.62204,672.42175,-2.14811,251.14679,615.1004,17.25405,169.70775,638.53564
82,0.675,-68.19695,261.62204,672.42175,-2.21229,251.38583,615.04126,17.19211,169.07281,638.48163
83,0.683,-68.19695,261.62204,672.42175,-2.21229,251.38583,615.04126,17.16542,169.08083,638.31036
84,0.692,-68.19695,261.62204,672.42175,-2.21229,251.38583,615.04126,17.19211,169.07281,638.48163
85,0.7,-67.92266,262.05942,672.46478,-2.21229,251.38583,615.04126,17.19211,169.07281,638.48163
86,0.708,-68.19695,261.62204,672.42175,-2.21229,251.38583,615.04126,17.16542,169.08083,638.31036
87,0.717,-68.19695,261.62204,672.42175,-2.21229,251.38583,615.04126,16.85571,169.16495,638.04736
88,0.725,-68.19695,261.62204,672.42175,-2.21229,251.38583,615.04126,17.46487,169.41425,638.75293
89,0.733,-68.19695,261.62204,672.42175,-2.66794,251.52711,614.99658,16.99495,168.87347,638.11597
90,0.742,-68.19695,261.62204,672.42175,-2.66794,251.52711,614.99658,16.85571,169.16495,638.04736
91,0.75,-68.37057,261.69025,672.23291,-2.66794,251.52711,614.99658,17.34488,169.73941,638.66992
92,0.758,-68.19695,261.62204,672.42175,-2.66794,251.52711,614.99658,17.05289,169.36427,638.41302
93,0.767,-68.19695,261.62204,672.42175,-2.66794,251.52711,614.99658,17.05289,169.36427,638.41302
94,0.775,-68.19695,261.62204,672.42175,-2.66794,251.52711,614.99658,16.85571,169.16495,638.04736
95,0.783,-68.37057,261.69025,672.23291,-2.66794,251.52711,614.99658,16.85571,169.16495,638.04736
96,0.792,-68.37057,261.69025,672.23291,-2.66794,251.52711,614.99658,16.85571,169.16495,638.04736
97,0.8,-68.38631,261.68536,672.00745,-2.66794,251.52711,614.99658,16.85571,169.16495,638.04736
98,0.808,-68.37057,261.69025,672.23291,-2.66794,251.52711,614.99658,16.85571,169.16495,638.04736
99,0.817,-68.37057,261.69025,672.23291,-2.66794,251.52711,614.99658,17.05373,169.44037,637.94275
100,0.825,-68.38631,261.68536,672.00745,-2.66794,251.52711,614.99658,16.85571,169.16495,638.04736
101,0.833,-68.38631,261.68536,672.00745,-2.70435,251.66266,614.88745,16.85571,169.16495,638.04736
102,0.842,-68.38631,261.68536,672.00745,-2.66794,251.52711,614.99658,16.85571,169.16495,638.04736
103,0.85,-68.38631,261.68536,672.00745,-2.66794,251.52711,614.99658,16.85571,169.16495,638.04736
104,0.858,-68.38631,261.68536,672.00745,-2.66794,251.52711,614.99658,16.94411,170.69873,637.67847
105,0.867,-68.38631,261.68536,672.00745,-2.66794,251.52711,614.99658,17.22419,169.64774,638.13715
106,0.875,-68.38631,261.68536,672.00745,-3.41174,251.42334,614.92303,16.85992,171.07767,637.51563
107,0.883,-68.56597,261.76254,671.78278,-2.70435,251.66266,614.88745,16.94479,169.71408,637.84235
108,0.892,-68.75793,262.15735,671.78418,-3.41174,251.42334,614.92303,16.94479,169.71408,637.84235
109,0.9,-68.81718,262.10754,671.54016,-3.47591,251.66238,614.86395,16.91727,169.64598,638.14136
110,0.908,-69.22059,262.33002,671.28021,-3.74075,251.74519,614.86572,16.23944,169.91939,637.89966
111,0.917,-69.48414,261.92117,670.96155,-3.74075,251.74519,614.86572,16.41362,170.17528,637.82043
112,0.925,-69.79115,262.42606,670.75079,-4.08343,251.84254,614.34033,16.85854,171.09323,638.20941
113,0.933,-69.79115,262.42606,670.75079,-4.25001,251.89209,614.33093,16.85854,171.09323,638.20941
114,0.942,-69.79115,262.42606,670.75079,-4.45252,251.9525,614.15637,16.2357,170.86111,637.51776
115,0.95,-69.79115,262.42606,670.75079,-4.57418,252.03197,614.11237,16.06153,170.60524,637.59705
116,0.958,-70.11526,262.50418,670.58173,-4.63634,252.16231,614.01294,16.05037,170.97424,637.17719
117,0.967,-70.17444,262.45419,670.33759,-4.79085,252.25334,613.96576,15.98278,171.25214,637.28809
118,0.975,-70.11526,262.50418,670.58173,-4.78451,251.72525,613.37598,16.71491,171.96172,637.69318
119,0.983,-70.48165,262.939,669.93768,-4.7915,252.43561,613.80975,16.39451,172.97896,636.76581
120,0.992,-70.45481,262.60477,669.68329,-4.85235,251.82808,613.30145,15.89188,173.07738,636.82947
121,1,-70.67727,262.73273,669.46777,-4.7915,252.43561,613.80975,15.92007,173.22252,636.71021
122,1.008,-70.74755,262.83795,669.39642,-4.85235,251.82808,613.30145,15.65053,172.94722,636.76801
123,1.017,-70.68928,262.88437,669.33386,-4.85235,251.82808,613.30145,15.24298,171.2318,636.98969
124,1.025,-70.91031,263.22369,669.33411,-4.85277,251.95026,613.19696,15.3759,172.73648,636.65839
125,1.033,-70.91031,263.22369,669.33411,-5.04149,251.53844,613.0307,15.10672,172.53902,636.3598
126,1.042,-71.15884,263.40567,669.24719,-5.1297,251.69603,613.07446,14.89663,171.3029,636.7121
127,1.05,-71.47007,263.54507,669.22101,-5.1297,251.69603,613.07446,14.64423,171.69492,637.01941
128,1.058,-71.88281,263.18271,669.15692,-5.27183,251.74486,612.71497,14.73913,172.61891,636.16187
129,1.067,-71.88281,263.18271,669.15692,-5.18719,251.7207,612.56378,14.80752,172.11047,637.33765
130,1.075,-71.68531,263.58026,669.26392,-5.23572,251.79977,613.20587,14.54496,171.23853,636.73291
131,1.083,-71.92802,263.68216,669.11273,-5.23572,251.79977,613.20587,13.73648,172.18042,635.96185
132,1.092,-72.65221,263.15155,669.06256,-5.27183,251.74486,612.71497,14.0342,170.97615,636.90015
133,1.1,-72.65221,263.15155,669.06256,-5.23572,251.79977,613.20587,14.01806,170.89084,637.17157
134,1.108,-72.4854,263.39584,669.20648,-5.23572,251.79977,613.20587,14.01806,170.89084,637.17157
135,1.117,-72.65221,263.15155,669.06256,-5.57572,251.83951,612.68506,14.01612,171.11473,636.98065
136,1.125,-72.39924,263.55103,669.1261,-5.57572,251.83951,612.68506,14.37977,172.94182,636.7879
137,1.133,-72.55943,263.64273,668.93079,-5.57572,251.83951,612.68506,14.22246,171.44229,637.13458
138,1.142,-72.64559,263.48752,669.01123,-5.78957,251.90372,612.52643,13.73648,172.18042,635.96185
139,1.15,-72.46452,263.68332,668.86072,-5.70492,251.87958,612.37524,13.68263,172.50136,635.83411
140,1.158,-72.46452,263.68332,668.86072,-5.70492,251.87958,612.37524,13.68263,172.50136,635.83411
141,1.167,-72.46452,263.68332,668.86072,-5.91503,251.76294,612.23279,13.74459,172.57167,636.00818
142,1.175,-72.46452,263.68332,668.86072,-6.11161,252.35655,612.3158,13.74459,172.57167,636.00818
143,1.183,-72.02065,264.33157,669.32867,-6.21308,252.50612,612.01001,13.3537,173.86247,635.49274
144,1.192,-72.08418,264.06381,669.11877,-6.21308,252.50612,612.01001,13.7947,172.72578,635.70398
145,1.2,-72.52291,264.57037,668.94904,-6.35623,252.57349,611.98096,13.5877,173.53958,635.79041
146,1.208,-71.9756,263.95978,669.02368,-6.35623,252.57349,611.98096,13.79045,173.83138,635.94702
147,1.217,-72.48164,264.87338,668.93628,-6.43241,252.73172,611.79865,13.9025,174.05588,635.81683
148,1.225,-72.37305,264.76935,668.84125,-6.43241,252.73172,611.79865,13.9025,174.05588,635.81683
149,1.233,-72.37305,264.76935,668.84125,-6.43241,252.73172,611.79865,13.9025,174.05588,635.81683
150,1.242,-72.37305,264.76935,668.84125,-6.28927,252.66438,611.82776,13.69974,173.76402,635.66022
151,1.25,-72.37305,264.76935,668.84125,-6.43241,252.73172,611.79865,13.86647,174.44202,635.60944
152,1.258,-72.19071,264.67697,668.9964,-6.28927,252.66438,611.82776,13.66368,174.15016,635.45276
153,1.267,-72.04614,264.62485,668.97949,-6.28927,252.66438,611.82776,13.86647,174.44202,635.60944
154,1.275,-71.83102,263.90765,669.00677,-5.9917,252.06487,611.70105,14.94547,175.18433,636.4549
155,1.283,-72.01339,264.00012,668.85156,-5.9917,252.06487,611.70105,14.87231,173.85321,636.49585
156,1.292,-71.83102,263.90765,669.00677,-5.9917,252.06487,611.70105,15.17342,172.56445,637.30969
157,1.3,-71.59505,264.30331,668.96442,-5.86428,251.95891,611.76636,15.02887,172.67372,637.53326
158,1.308,-71.83102,263.90765,669.00677,-5.5492,251.86031,611.78021,15.4305,172.43085,637.25769
159,1.317,-71.83102,263.90765,669.00677,-5.5492,251.86031,611.78021,15.4305,172.43085,637.25769
160,1.325,-72.11835,263.49838,668.59949,-5.26287,251.81854,612.10498,15.4305,172.43085,637.25769
161,1.333,-72.11835,263.49838,668.59949,-5.473,251.69725,611.70453,15.31095,172.13036,637.18915
162,1.342,-71.81232,264.00366,668.55383,-5.26287,251.81854,612.10498,15.21846,172.25304,637.00983
163,1.35,-71.25854,263.76254,668.73114,-5.26287,251.81854,612.10498,15.22351,171.81004,637.04205
164,1.358,-71.12037,263.68686,668.75189,-5.06027,251.75835,612.27972,15.74203,171.65111,636.81561
165,1.367,-70.78779,263.08615,668.90149,-5.12122,251.15002,611.77161,15.82405,171.91382,636.91626
166,1.375,-70.55757,263.26346,668.99817,-5.06027,251.75835,612.27972,16.02883,171.96727,636.82916
167,1.383,-70.4402,263.48587,668.82874,-5.07808,251.60565,612.43518,16.05623,171.17049,636.33679
168,1.392,-70.4402,263.48587,668.82874,-5.06027,251.75835,612.27972,16.05623,171.17049,636.33679
169,1.4,-70.23433,263.84424,668.69666,-4.91628,251.74898,612.25897,16.05623,171.17049,636.33679
170,1.408,-70.23433,263.84424,668.69666,-4.86202,251.25166,612.0498,15.84528,172.30821,635.45526
171,1.417,-70.13914,263.73819,668.84338,-4.65713,251.85059,612.53705,16.28129,172.80811,636.1839
172,1.425,-70.345,263.37982,668.9754,-4.718,251.24228,612.02905,16.27951,171.49559,636.46106
173,1.433,-69.97868,263.6572,668.68262,-4.718,251.24228,612.02905,16.27951,171.49559,636.46106
174,1.442,-69.78061,263.60141,668.71161,-4.49235,251.78062,612.56415,16.31337,171.57002,636.38281
175,1.45,-69.74559,263.54663,668.5777,-4.55317,251.17233,612.05615,16.27951,171.49559,636.46106
176,1.458,-69.61108,263.51691,668.5578,-4.37592,251.11421,611.91882,16.36852,171.46312,636.46246
177,1.467,-69.23097,263.4986,668.44513,-4.31513,251.72256,612.42682,16.44145,171.39026,636.50562
178,1.475,-69.07335,263.41537,668.46594,-4.37592,251.11421,611.91882,16.42467,171.58153,636.33728
179,1.483,-69.07335,263.41537,668.46594,-4.37592,251.11421,611.91882,16.49172,171.4678,636.41937
180,1.492,-68.74114,263.09869,668.60425,-3.95133,251.08417,611.88751,16.62413,171.60245,636.31219
181,1.5,-68.4879,263.0032,668.45782,-4.05786,251.01569,611.96729,16.83518,172.10356,636.36591
182,1.508,-68.4882,262.75381,668.24371,-4.05786,251.01569,611.96729,16.83518,172.10356,636.36591
183,1.517,-68.4882,262.75381,668.24371,-2.53585,251.56186,611.81738,16.97857,172.09433,636.32922
184,1.525,-68.4882,262.75381,668.24371,-3.80111,251.41118,612.11987,16.7854,171.73839,636.48926
185,1.533,-68.40588,263.00259,668.88025,-2.53585,251.56186,611.81738,17.46802,173.74455,636.31927
186,1.542,-68.2768,262.88864,668.94965,-2.53585,251.56186,611.81738,17.36886,173.68393,636.37268
187,1.55,-68.2768,262.88864,668.94965,-2.53585,251.56186,611.81738,17.68618,171.24355,636.31659
188,1.558,-68.2768,262.88864,668.94965,-2.41083,251.43396,611.90198,17.4964,171.45926,636.42078
189,1.567,-68.12604,262.77963,669.00763,-2.16668,251.35608,611.81586,17.87849,173.10107,636.26611
190,1.575,-68.12604,262.77963,669.00763,-1.90456,251.27676,611.95172,17.93665,171.59435,636.49445
191,1.583,-68.12604,262.77963,669.00763,-1.90456,251.27676,611.95172,17.68618,171.24355,636.31659
192,1.592,-68.12604,262.77963,669.00763,-1.90456,251.27676,611.95172,17.68618,171.24355,636.31659
193,1.6,-68.12604,262.77963,669.00763,-1.90456,251.27676,611.95172,17.85944,171.32343,636.41351
194,1.608,-68.05109,262.53381,669.0752,-1.90456,251.27676,611.95172,17.70539,171.07059,636.46777
195,1.617,-68.05109,262.53381,669.0752,-1.90456,251.27676,611.95172,17.70539,171.07059,636.46777
196,1.625,-68.05109,262.53381,669.0752,-1.77954,251.14891,612.03638,17.70539,171.07059,636.46777
197,1.633,-68.05109,262.53381,669.0752,-1.90456,251.27676,611.95172,17.85944,171.32343,636.41351
198,1.642,-68.05109,262.53381,669.0752,-1.90456,251.27676,611.95172,18.43846,173.64545,636.37451
199,1.65,-68.05109,262.53381,669.0752,-1.90456,251.27676,611.95172,17.78261,171.34148,636.54871
200,1.658,-68.12604,262.77963,669.00763,-1.77954,251.14891,612.03638,17.78261,171.34148,636.54871
201,1.667,-67.84015,262.61264,669.22168,-1.77954,251.14891,612.03638,17.78261,171.34148,636.54871
202,1.675,-67.84015,262.61264,669.22168,-2.17051,251.80127,612.73682,17.93665,171.59435,636.49445
203,1.683,-67.84015,262.61264,669.22168,-3.04328,251.73842,613.24463,17.78261,171.34148,636.54871
204,1.692,-67.84015,262.61264,669.22168,-2.17051,251.80127,612.73682,17.78261,171.34148,636.54871
205,1.7,-67.84015,262.61264,669.22168,-1.71895,251.75742,612.54413,18.43846,173.64545,636.37451
206,1.708,-67.53587,262.5455,669.38666,-2.17051,251.80127,612.73682,18.47391,172.16385,637.39636
