Frame#,Time,R.Forearm.x,R.Forearm.y,R.Forearm.z,R.Ulna.x,R.Ulna.y,R.Ulna.z,R.Radius.x,R.Radius.y,R.Radius.z
1,0,1604.979,600.68872,1069.20142,1578.48181,630.36462,993.16058,1542.82178,554.55096,982.07416
2,0.008,1597.50049,601.00159,1068.95752,1572.5238,628.75177,994.00153,1536.07336,556.53735,981.09821
3,0.017,1594.67322,599.95038,1069.01099,1566.66882,629.81165,993.34619,1531.46228,554.88147,979.78363
4,0.025,1587.51782,600.32269,1068.48389,1560.69507,629.39801,992.47528,1524.03674,555.00262,980.10547
5,0.033,1580.20374,600.33051,1067.29407,1554.06824,628.65784,992.44464,1517.46875,556.29114,979.70349
6,0.042,1572.73413,600.81287,1067.88196,1548.44519,629.69684,992.26294,1510.29724,555.85254,979.8446
7,0.05,1567.48779,599.75531,1067.00415,1542.56274,628.36487,990.44189,1505.73364,554.35797,977.58313
8,0.058,1560.08728,599.49011,1066.23999,1537.77759,629.39014,990.32104,1499.25867,555.71387,977.48358
9,0.067,1553.05273,602.55481,1065.30615,1530.31628,630.02008,988.71539,1489.84509,554.71057,976.01929
10,0.075,1549.01404,600.31683,1064.08606,1524.09668,629.63416,987.86023,1486.54834,554.80524,975.01868
11,0.083,1542.37634,602.22437,1063.12097,1517.05737,630.87592,987.0929,1481.20325,555.89722,974.28186
12,0.092,1534.86487,603.74432,1061.39233,1509.57056,630.20996,984.99133,1472.36914,556.49689,972.51892
13,0.1,1526.79456,603.16528,1062.24817,1504.04736,631.07483,984.11401,1464.11243,556.4588,972.05859
14,0.108,1521.3551,600.30664,1060.2063,1497.94751,631.24286,983.38293,1459.4845,558.58704,970.47614
15,0.117,1515.00549,602.39905,1058.20764,1491.25964,630.85706,981.93536,1452.1217,557.89697,969.12866
16,0.125,1507.51575,602.59479,1056.86597,1485.10876,631.72394,980.41742,1446.28162,557.12927,965.62067
17,0.133,1499.3678,602.24384,1055.11487,1477.99902,630.91724,978.69611,1438.19482,558.03168,965.69788
18,0.142,1492.88416,603.94281,1054.71338,1470.63733,630.50769,977.20532,1431.27356,558.39954,963.09692
19,0.15,1486.72412,601.95465,1052.17761,1464.51978,632.66095,974.76715,1423.12354,558.2926,962.04987
20,0.158,1479.2301,602.67621,1050.11475,1456.36938,632.41785,973.67725,1417.70105,559.52997,959.90302
21,0.167,1471.4856,603.53888,1048.8988,1448.89661,633.08154,972.33716,1409.75916,559.43488,957.63232
22,0.175,1463.58496,604.42206,1046.83997,1442.82983,632.82611,969.95313,1402.15186,559.67987,956.66614
23,0.183,1454.88867,604.33667,1046.49316,1434.03284,633.45148,969.23517,1395.12012,558.92236,954.31891
24,0.192,1447.33472,604.42328,1044.86475,1427.37915,633.44196,967.05463,1389.25488,561.12067,952.75958
25,0.2,1438.85132,604.64392,1043.02869,1419.58557,633.28424,965.23767,1379.25842,560.56055,951.80823
26,0.208,1432.82312,604.39142,1041.44226,1412.12292,633.04791,963.92841,1372.29053,560.92285,950.30505
27,0.217,1425.47375,605.34778,1039.52893,1404.90515,633.64618,962.62134,1363.28687,560.44458,948.85681
28,0.225,1416.65808,605.3515,1038.90723,1396.66394,634.49274,960.47223,1356.05615,562.53015,947.80011
29,0.233,1408.27856,606.71814,1037.17126,1388.53076,634.4964,959.39917,1346.95764,562.823,946.27618
30,0.242,1399.85657,606.93335,1035.62549,1380.28845,635.48401,958.08453,1340.58569,564.36969,943.24622
31,0.25,1392.79761,607.82135,1033.96729,1372.6416,636.38269,956.89032,1331.50671,563.88452,942.02502
32,0.258,1384.59448,607.61066,1033.07837,1364.93335,636.19183,954.91638,1322.4198,563.28931,941.16345
33,0.267,1375.02979,607.98779,1031.82629,1356.60034,636.06866,953.94312,1315.62781,564.04834,940.38477
34,0.275,1367.80322,607.9751,1031.25024,1347.94263,637.12384,952.52283,1305.99329,565.60059,939.31311
35,0.283,1358.86902,609.28925,1030.10498,1339.88745,637.32721,951.82648,1295.33484,566.95264,938.27686
36,0.292,1350.34094,610.05566,1028.00305,1330.88293,639.11926,950.36609,1287.01672,568.28705,937.01605
37,0.3,1340.9657,610.45892,1027.32617,1322.60144,639.99988,950.35413,1278.73804,568.67041,936.49164
38,0.308,1332.42761,610.40155,1026.82739,1315.08899,639.19861,948.60126,1269.63708,568.52014,935.76984
39,0.317,1323.68469,612.23187,1025.81738,1305.84082,638.93365,947.70673,1260.76355,568.34576,935.29657
40,0.325,1315.91956,613.55243,1025.98816,1298.19116,639.19958,947.46582,1253.88037,570.28027,935.17883
41,0.333,1306.96143,612.11212,1026.1676,1288.51221,640.31006,946.9809,1243.65332,569.72028,935.32709
42,0.342,1297.91992,613.94751,1026.52417,1280.31372,640.04852,947.03082,1235.08972,570.9184,935.50281
43,0.35,1289.521,613.6391,1027.06921,1271.31299,641.91388,947.39136,1225.79419,571.60327,935.5097
44,0.358,1281.11646,613.33038,1026.82373,1262.69214,642.09247,947.7168,1215.63391,571.94025,935.89923
45,0.367,1271.22803,614.44165,1027.08472,1254.32898,641.9671,947.8587,1207.58105,572.36981,935.95123
46,0.375,1262.104,615.06274,1027.48657,1244.44507,643.16919,947.41602,1199.03137,572.38611,936.06567
47,0.383,1252.81506,616.37683,1027.48059,1236.49292,643.11029,947.86658,1190.57666,572.85974,936.85425
48,0.392,1242.76392,617.25824,1028.53491,1227.36353,643.00818,948.58905,1181.96375,573.47723,938.14447
49,0.4,1234.43481,617.8186,1028.73694,1217.28381,644.39832,950.77716,1172.92322,572.95264,938.38367
50,0.408,1225.96252,617.42572,1030.66553,1209.08386,644.11908,951.47321,1163.74475,573.91333,939.44818
51,0.417,1216.93701,617.52527,1032.01025,1200.00903,643.98315,951.88818,1155.10901,573.96954,940.49158
52,0.425,1207.68811,618.34015,1032.13611,1191.03735,644.79474,952.44061,1145.07593,574.01398,941.24988
53,0.433,1199.04553,619.17145,1032.37195,1181.34375,644.73456,953.74432,1137.38452,574.8786,942.95782
54,0.442,1189.3551,619.03094,1034.63123,1172.32947,644.73932,954.99518,1128.12903,574.27289,944.25513
55,0.45,1179.95789,620.76025,1035.78381,1163.86768,645.21124,955.78119,1118.14746,573.7951,944.96393
56,0.458,1171.87878,620.47632,1036.23938,1154.12634,646.39801,957.58978,1111.71387,574.36169,945.87421
57,0.467,1163.35095,620.10431,1037.0282,1145.05249,645.94385,957.58478,1100.88525,573.94177,946.99866
58,0.475,1154.76013,622.08728,1037.53125,1135.79431,646.33203,958.60541,1093.84204,574.26471,949.13965
59,0.483,1146.20691,622.11676,1039.07068,1126.74963,647.61267,960.19202,1084.3468,575.55884,949.91339
60,0.492,1137.58398,622.85809,1041.08496,1116.26099,649.30322,962.05206,1074.93347,575.03174,950.57788
61,0.5,1127.69409,623.70447,1041.37439,1107.68359,648.39221,962.7149,1066.06116,575.68182,951.85626
62,0.508,1119.80139,623.1778,1041.1582,1099.69373,648.46796,963.77496,1057.09961,575.7262,953.4585
63,0.517,1110.27051,623.68085,1044.18152,1089.797,649.90082,964.80426,1048.79895,576.64972,954.26691
64,0.525,1100.56702,624.82568,1045.16089,1081.51306,648.89929,966.18689,1039.328,576.17297,955.09058
65,0.533,1092.2002,624.37579,1044.88989,1072.427,649.21411,966.77936,1030.91638,575.33386,956.72559
66,0.542,1083.72668,623.77673,1045.84436,1062.6156,650.83966,968.03595,1021.43042,576.5979,958.25586
67,0.55,1075.83423,624.21893,1047.20667,1054.86255,649.56213,968.60706,1013.34106,576.57123,959.21118
68,0.558,1066.54077,624.96216,1048.76807,1044.81287,649.35052,969.61615,1004.38721,576.51495,959.19958
69,0.567,1058.33997,624.78638,1049.40894,1037.12805,649.22791,970.51611,995.18182,577.47748,961.26636
70,0.575,1048.96228,625.58746,1050.32104,1027.15222,650.16095,971.17334,986.5553,577.46802,963.03381
71,0.583,1040.80017,626.31226,1050.66711,1018.11859,651.22235,972.86841,979.30432,577.09875,963.17621
72,0.592,1031.87964,627.96228,1050.32654,1009.771,650.21289,972.31079,970.44952,577.66248,963.6593
73,0.6,1023.97418,628.10675,1052.10425,1000.7923,651.83307,972.80298,961.0838,576.6662,964.10364
74,0.608,1015.50336,627.94989,1052.79333,991.39966,650.80341,973.63202,953.05084,577.94464,965.32129
75,0.617,1006.80798,628.42542,1053.42041,982.9762,651.20459,974.59625,944.01056,577.64099,965.17517
76,0.625,997.93469,628.27112,1053.26025,974.31256,651.62469,974.86395,934.4007,576.64514,966.25208
77,0.633,988.98993,628.40668,1053.21338,965.19336,651.98273,975.1908,925.99567,576.66986,967.04785
78,0.642,979.91229,628.23926,1052.82263,956.5152,651.97498,975.26227,917.42743,577.18152,967.23248
79,0.65,971.83289,628.20612,1053.00342,946.38635,651.76575,975.1861,908.42926,576.8999,967.55402
80,0.658,963.2771,628.16119,1052.49414,937.53772,652.20728,975.22119,899.51141,576.78668,967.56042
81,0.667,954.745,629.08911,1052.85938,929.19379,651.24078,975.27362,891.17169,576.66766,967.4682
82,0.675,946.45892,627.49658,1052.53381,919.56989,652.26483,974.85138,883.41949,577.03864,967.46503
83,0.683,937.58423,629.50378,1052.79651,910.92902,651.98657,974.66394,874.02844,577.2973,967.75854
84,0.692,928.23004,629.08063,1052.22437,901.11981,651.54572,974.66901,865.24359,576.15009,968.02954
85,0.7,919.2135,630.60706,1052.50012,892.57635,651.86121,974.1748,856.94806,578.15161,967.48065
86,0.708,910.61798,629.54962,1051.51428,883.07532,652.64178,974.14648,846.94501,576.90405,967.36682
87,0.717,902.76965,630.04865,1051.80627,874.57916,652.69885,974.28369,838.19031,577.50159,966.52209
88,0.725,893.12616,630.38672,1051.01245,865.11273,652.90082,973.36688,829.45172,576.19647,966.65875
89,0.733,884.29535,630.15741,1049.34619,855.59357,653.00995,972.85852,820.53607,576.72882,965.99426
90,0.742,875.50684,630.87915,1048.83936,847.34198,652.51288,971.74854,811.3053,576.32214,966.2085
91,0.75,867.43359,630.44244,1048.90942,838.44598,651.62958,971.36383,802.68744,577.64136,964.67426
92,0.758,858.33936,630.72766,1047.22803,829.44537,653.55847,971.36084,793.49127,577.24768,963.95557
93,0.767,848.19952,630.77509,1047.16833,819.83746,653.04047,970.87152,785.52606,577.64532,963.492
94,0.775,839.6073,630.63434,1047.2356,809.89081,653.48657,970.35809,775.72247,577.01117,963.38184
95,0.783,830.55328,631.08392,1046.82227,802.08875,653.49451,969.27325,766.77014,577.74677,962.66333
96,0.792,822.13062,630.55066,1045.99048,792.79706,652.95856,968.70599,757.90564,578.30164,962.07684
97,0.8,814.24713,631.25964,1045.33936,783.15643,653.39832,968.43433,748.74164,577.73218,961.79633
98,0.808,803.50513,630.67426,1044.04883,774.75568,653.96686,968.51569,740.42316,577.75311,961.06635
99,0.817,794.84631,630.27338,1043.58716,765.80518,653.33105,968.03387,730.73151,578.13019,960.96484
100,0.825,786.69989,630.53577,1043.44373,756.63245,653.73645,967.67963,721.70831,576.93896,960.30536
101,0.833,778.34308,629.90204,1043.28467,747.64813,654.68951,967.4505,713.32391,578.51978,959.81714
102,0.842,768.83075,629.86151,1043.01404,738.83527,654.63055,966.55835,704.42261,577.49982,959.37695
103,0.85,758.95758,631.04651,1042.51611,730.05487,654.13129,967.43536,694.21576,578.11115,959.93286
104,0.858,750.50519,630.25336,1042.50354,721.01538,654.73376,967.53949,686.76837,578.24146,959.28528
105,0.867,742.66486,629.66107,1042.74695,712.1015,655.1731,967.216,677.8891,577.86664,958.39722
106,0.875,733.24536,630.78076,1042.89392,703.20203,654.28528,966.84216,668.48022,578.40625,958.3703
107,0.883,723.74249,630.53064,1042.30371,695.31946,654.4632,966.75983,660.19171,579.85388,958.39075
108,0.892,715.71863,630.94623,1042.41284,686.13562,654.99048,966.66992,650.97498,578.49219,959.54602
109,0.9,707.21558,630.10986,1042.26624,677.00879,654.47076,966.45673,641.93182,578.82874,958.80444
110,0.908,698.90668,630.41705,1043.18762,668.64972,654.82825,966.86963,632.71069,578.39331,958.83051
111,0.917,689.43518,630.90198,1042.69507,660.50262,654.64252,966.50659,624.71594,578.50726,959.49219
112,0.925,680.20593,630.69141,1043.76538,651.43549,653.89148,966.88397,616.41486,578.89142,958.30066
113,0.933,672.21161,630.64465,1044.10071,643.44171,655.35797,967.82275,606.84949,578.98737,958.79077
114,0.942,663.68054,630.42065,1044.27087,635.052,654.53662,968.60956,599.57532,578.92828,958.35522
115,0.95,655.04224,628.28607,1044.4248,625.90576,653.6748,969.46539,591.14948,579.34937,958.71722
116,0.958,646.59528,629.21509,1045.36243,621.20221,653.2439,969.32581,581.9978,579.62885,958.93658
117,0.967,638.5531,628.52386,1046.63745,610.99707,653.63055,970.93665,574.82007,579.65857,960.14996
118,0.975,629.99872,627.56964,1047.6427,605.25708,652.01306,970.23004,566.29224,579.8833,960.14679
119,0.983,622.37128,626.58832,1048.57019,596.84082,653.26746,972.54401,557.96661,579.039,961.42371
120,0.992,614.19641,626.73578,1049.52856,589.80042,653.82672,973.04083,550.88165,579.44727,962.25195
121,1,605.93359,627.14276,1051.47449,581.3858,654.6037,974.39319,542.90784,579.90735,963.68231
122,1.008,598.90173,627.57404,1052.58313,573.57916,654.6109,974.60858,535.06744,579.74292,965.02588
123,1.017,591.71436,627.38507,1052.50525,567.65442,653.0177,976.21405,527.82446,580.52136,965.7627
124,1.025,584.26129,627.63458,1054.87134,560.44171,652.38538,977.09448,520.19067,579.32544,967.0733
125,1.033,575.88501,627.69727,1055.80396,552.97223,653.76959,977.69739,513.44916,579.85846,967.1366
126,1.042,569.38397,627.16168,1056.93799,546.39746,654.37976,978.89075,506.12622,580.19818,968.70551
127,1.05,561.6178,627.57465,1057.00159,538.19067,654.00366,980.51758,498.95038,580.18488,969.54529
128,1.058,553.63702,628.43787,1058.72253,531.12146,654.60089,981.14502,491.59583,579.85883,970.4541
129,1.067,547.70233,627.78021,1059.09302,524.34491,654.75482,981.44757,484.20419,580.60632,971.26068
130,1.075,539.81854,627.82581,1060.24951,516.78906,654.25012,981.95044,478.15292,580.01208,971.38257
131,1.083,533.09741,627.91461,1060.94446,510.33047,655.09186,983.03925,471.33087,581.00079,971.87799
132,1.092,526.60492,627.41095,1061.28699,502.89929,654.76843,983.72955,463.09323,581.84357,972.30792
133,1.1,519.17847,628.20508,1062.71729,495.72089,655.69763,986.67108,457.42758,582.42163,972.13354
134,1.108,511.70212,627.21466,1063.1991,489.24597,655.58685,984.89557,449.80505,581.18134,973.97778
135,1.117,505.83896,628.06683,1064.42371,482.84738,655.96777,985.45544,442.55576,582.57684,973.95593
136,1.125,498.26563,627.65973,1064.17639,475.68106,655.15039,985.95013,436.31134,583.68591,973.70544
137,1.133,491.15594,627.90118,1064.96777,469.58322,656.20569,986.16748,430.05142,583.7627,974.59607
138,1.142,484.55374,627.65924,1066.21167,463.4231,656.9364,986.94922,424.85461,584.01691,974.40717
139,1.15,477.96396,626.61633,1065.91235,456.53265,657.83521,988.70599,417.25906,583.92841,974.92871
140,1.158,472.33173,627.09491,1066.58008,449.31277,657.57751,988.5072,410.16458,584.1579,975.38074
141,1.167,463.79086,626.69281,1067.57739,443.32877,657.61584,988.68744,404.83093,584.79565,974.97571
142,1.175,457.63943,627.40558,1067.25793,436.4072,657.65869,990.48254,396.90393,584.25098,976.09357
143,1.183,451.78378,628.85376,1067.854,429.8338,658.62927,990.39905,390.94836,585.58911,975.67023
144,1.192,445.03644,628.67188,1067.4823,423.40677,658.33649,989.18054,384.08182,584.67523,975.77881
145,1.2,438.63522,628.86438,1067.84119,417.49289,659.15887,988.96252,377.38272,586.07135,976.34058
146,1.208,432.48871,629.54077,1068.47778,410.51324,659.14868,988.78003,370.59186,586.95856,975.58704
147,1.217,424.92053,629.5744,1068.73022,405.03818,659.46606,990.83112,364.97601,588.16974,975.76874
148,1.225,418.27136,630.1217,1068.60156,398.72723,658.75647,990.31769,356.8454,587.94342,975.1535
149,1.233,411.51877,629.33936,1068.20081,392.55692,659.53564,990.20728,351.46555,588.99402,974.84552
150,1.242,405.81631,630.69281,1067.7002,386.00351,660.64868,989.84595,343.58755,588.63165,974.82227
151,1.25,397.93222,629.94897,1067.50745,379.53311,660.8736,989.45752,337.60822,589.82947,974.25952
152,1.258,391.54083,630.16504,1066.32764,372.61423,661.72534,988.81366,330.32706,589.6106,974.32019
153,1.267,384.38464,629.63318,1065.68701,366.33847,662.76501,988.67731,323.79938,591.12671,973.3606
154,1.275,378.08145,631.5686,1065.3811,359.91577,662.27301,988.2417,317.11801,591.23547,972.22998
155,1.283,370.6507,631.3067,1065.18542,352.84573,662.14606,986.61841,310.48877,592.13324,971.17651
156,1.292,364.1615,632.8797,1064.9126,345.76031,663.82843,986.87103,303.37015,591.828,970.90698
157,1.3,357.05075,632.88837,1063.47217,339.30103,663.70636,985.96783,296.38721,593.22101,969.69641
158,1.308,349.77948,633.4809,1062.44019,332.85538,664.49371,984.53772,287.8306,593.14746,969.40802
159,1.317,341.99252,632.68048,1061.09595,325.51926,664.43176,983.67468,281.48285,594.63336,968.42255
160,1.325,336.38162,633.46661,1060.32605,318.95206,665.79773,983.42126,275.1875,594.573,967.01294
161,1.333,328.95111,634.49554,1059.48499,311.20761,665.20337,981.30817,268.004,595.27759,965.82104
162,1.342,322.1149,635.61023,1058.21179,303.89792,667.13446,980.4892,259.90207,595.13361,964.59943
163,1.35,314.32483,635.23773,1056.74536,297.02115,666.35236,980.15161,253.34859,596.12958,963.31464
164,1.358,306.9715,635.38147,1055.41089,289.30777,667.13409,977.57385,246.05859,597.17651,962.02625
165,1.367,299.21506,635.6839,1055.04187,282.19315,667.9566,976.89508,238.04561,597.18475,961.4032
166,1.375,291.82852,636.55353,1053.34595,275.16565,667.43732,975.82367,229.78339,598.10284,960.58337
167,1.383,284.25616,638.00293,1051.79028,268.14383,668.47968,973.94385,222.13855,598.28168,958.3277
168,1.392,276.69351,637.03772,1051.18018,260.08975,669.16412,973.16168,215.30202,598.70514,956.70233
169,1.4,269.35617,637.21362,1048.69055,252.73775,669.69739,971.27643,207.96707,599.54474,955.51147
170,1.408,261.14532,638.43866,1047.3833,244.99724,669.2149,970.94708,199.78973,600.20575,954.33411
171,1.417,253.19733,639.35925,1046.79907,236.33649,670.54315,968.71588,191.50514,600.69025,953.03296
172,1.425,245.30814,639.93066,1045.14307,228.10364,670.97467,967.31006,182.99861,600.95563,951.6875
173,1.433,237.28307,640.38007,1044.104,220.20265,671.77521,966.15222,174.9381,601.12872,950.50366
174,1.442,229.39458,640.67096,1042.48523,212.06511,672.81726,965.42432,166.85773,602.93756,949.60468
175,1.45,221.09305,640.74902,1041.42847,204.64684,672.20245,963.65558,159.00262,602.41528,948.42737
176,1.458,212.7225,641.68976,1040.68408,196.01749,672.57477,962.0304,151.14137,603.22351,947.11798
177,1.467,204.61475,642.78467,1039.18933,186.99295,673.49878,961.47089,141.31233,604.45074,946.72595
178,1.475,196.21359,643.75195,1038.72778,179.04913,673.68274,960.36475,133.75732,604.82025,945.29163
179,1.483,187.86615,644.14789,1037.15466,171.39906,674.38959,959.3418,124.80816,604.89612,943.96936
180,1.492,180.02663,644.07233,1036.67419,162.00565,674.70068,957.94855,116.17502,604.99188,943.59607
181,1.5,170.9306,645.07025,1036.02441,153.60028,675.2489,957.35181,107.61769,606.38684,943.47583
182,1.508,162.94922,645.28735,1034.82593,145.17947,676.19122,956.20087,99.09125,607.34326,942.44269
183,1.517,154.20773,646.04108,1034.81116,137.4556,676.76233,955.98541,90.09467,607.45087,942.09241
184,1.525,145.34155,647.41101,1033.21204,129.18341,676.29059,955.18427,81.24442,608.52496,941.32349
185,1.533,137.13159,648.10126,1033.59021,119.71204,677.38751,954.33136,72.32491,608.60675,941.36755
186,1.542,128.1044,648.63141,1032.66138,110.93465,677.00519,953.99628,63.41029,608.36133,940.96265
187,1.55,119.23254,649.79388,1032.20789,101.93481,678.92938,953.02252,54.83497,609.18555,940.1189
188,1.558,110.06384,650.34729,1032.82495,92.62552,678.85901,952.77856,46.38302,609.77972,940.98602
189,1.567,99.39487,651.49622,1031.44275,83.13952,679.73907,952.94391,35.89004,610.37701,940.30725
190,1.575,90.82818,653.13177,1031.97961,74.09931,680.42468,952.58527,28.5359,610.948,940.21777
191,1.583,80.52251,652.8761,1032.76746,64.72935,680.46368,953.39722,18.17848,611.73163,940.8139
192,1.592,70.91839,653.04535,1032.74976,54.9643,680.98901,953.83167,7.62476,612.14655,941.49097
193,1.6,61.06036,653.24463,1032.81372,45.32428,682.09717,953.69946,-1.28719,612.2168,940.70996
194,1.608,51.52781,654.37976,1033.32422,35.37608,681.67218,954.29004,-11.85078,612.73047,941.67218
195,1.617,41.85231,654.6579,1034.12683,25.24145,682.91028,955.11469,-21.16392,612.84021,942.38458
196,1.625,32.31849,655.87952,1033.95154,15.0048,683.12372,954.60101,-31.12815,613.01147,943.40698
197,1.633,22.5883,656.88623,1035.40527,4.53164,683.66583,955.59521,-40.98805,614.01611,943.31702
198,1.642,13.10867,657.09204,1035.6012,-5.08599,684.00018,955.69562,-51.99993,614.48206,944.78271
