Frame#,Time,R.Forearm.x,R.Forearm.y,R.Forearm.z,R.Ulna.x,R.Ulna.y,R.Ulna.z,R.Radius.x,R.Radius.y,R.Radius.z
1,0,46.15167,-158.9489,995.55841,139.03412,-115.67559,1011.00403,79.29312,-76.12614,1069.50354
2,0.008,47.86098,-158.40248,998.49432,139.94788,-115.95128,1011.99475,82.41688,-74.73605,1072.00659
3,0.017,49.52407,-158.53552,1000.00427,143.31616,-116.41489,1014.12177,85.5837,-75.01254,1073.70093
4,0.025,51.47163,-158.2933,1001.61993,144.98416,-116.72195,1015.49213,88.4193,-73.84199,1074.66418
5,0.033,52.62292,-156.75972,1003.59973,147.16589,-117.70616,1016.94446,90.40094,-72.7796,1076.24048
6,0.042,53.90658,-155.65128,1005.30048,149.7442,-118.62571,1018.79218,94.69064,-72.43833,1079.12952
7,0.05,55.86536,-155.31033,1008.10443,151.62372,-119.2189,1020.20538,97.38457,-71.97424,1080.52051
8,0.058,56.27586,-153.99197,1009.80902,152.91261,-118.66402,1022.38214,100.44653,-70.77908,1081.30261
9,0.067,55.91539,-153.29062,1012.35864,156.3237,-120.18751,1024.25464,103.67201,-69.96822,1083.22583
10,0.075,57.3343,-152.21341,1014.77454,157.26311,-119.84993,1025.35461,106.53825,-70.36765,1084.7522
11,0.083,60.04827,-151.07048,1017.20825,159.36417,-120.36076,1026.80042,109.55788,-70.13206,1086.49548
12,0.092,60.96095,-151.49242,1021.00647,161.40738,-120.85971,1028.82141,112.40931,-69.85125,1089.41882
13,0.1,62.90537,-150.38454,1021.97284,163.4128,-120.62411,1030.74731,114.03051,-68.81949,1090.60266
14,0.108,63.32072,-149.52852,1023.12323,165.13696,-120.79475,1032.46814,118.46549,-68.26768,1092.07959
15,0.117,64.87463,-148.0394,1026.44775,165.74037,-120.45699,1034.00769,120.23279,-68.24041,1094.74292
16,0.125,66.67225,-147.70976,1027.91345,168.27036,-121.94769,1036.14673,122.12508,-67.50278,1097.29431
17,0.133,67.56123,-146.26492,1030.15247,170.07555,-121.5753,1038.01965,125.80569,-67.39816,1098.47546
18,0.142,68.06551,-143.98677,1032.74023,171.95175,-122.65911,1040.03699,128.02248,-65.2032,1099.88623
19,0.15,70.13799,-144.33426,1034.45398,173.19327,-122.76098,1042.18555,130.32208,-64.79907,1102.62244
20,0.158,72.09037,-142.40495,1036.77979,174.52162,-123.49435,1044.84302,132.79111,-64.31885,1104.41516
21,0.167,72.77443,-141.49167,1039.53101,174.79994,-122.94116,1045.96753,137.02324,-63.51839,1106.52283
22,0.175,74.48691,-139.65045,1041.62366,177.04662,-123.24071,1047.46814,139.79489,-62.98787,1107.69238
23,0.183,75.84171,-137.43422,1043.32544,180.50908,-124.32066,1049.34155,143.53851,-62.99021,1109.26501
24,0.192,77.16666,-136.7171,1047.09619,183.1573,-123.687,1051.23975,145.79463,-62.09067,1110.58008
25,0.2,78.40506,-135.30368,1048.37549,182.65126,-122.9543,1052.56335,149.24168,-61.59875,1112.87256
26,0.208,79.76123,-134.55423,1050.24133,183.1944,-123.32785,1053.90613,151.19728,-61.29087,1114.97083
27,0.217,80.59637,-132.2702,1052.84912,183.74556,-123.67699,1056.48303,153.36275,-60.8633,1116.27551
28,0.225,81.60384,-131.26988,1054.5979,186.92273,-124.74514,1059.00427,155.33151,-58.44793,1117.3833
29,0.233,82.20062,-129.96356,1056.12805,187.36859,-124.88807,1060.25513,157.54903,-57.30608,1118.60864
30,0.242,82.46007,-128.6282,1058.59412,188.04927,-124.5858,1062.16699,160.05368,-57.78709,1120.18347
31,0.25,83.62821,-127.73147,1060.56335,187.76289,-124.57922,1064.9447,163.4826,-56.39566,1121.91077
32,0.258,84.56555,-124.29079,1062.07983,188.99185,-125.81406,1066.3324,164.99182,-56.09758,1122.9729
33,0.267,85.57298,-123.23436,1063.7998,190.7821,-125.83618,1067.44141,168.41501,-55.45266,1123.95093
34,0.275,87.32614,-120.96275,1065.03516,193.73898,-125.30643,1068.04431,170.47948,-54.46406,1125.1731
35,0.283,88.29032,-119.148,1067.04504,194.21155,-125.33982,1068.5459,172.82074,-53.89609,1126.69678
36,0.292,89.07446,-118.14825,1068.42029,194.89629,-124.67778,1069.52832,175.12804,-52.93506,1126.48706
37,0.3,89.81234,-116.8146,1070.46155,195.03256,-125.26363,1071.80688,177.1226,-52.31812,1127.56055
38,0.308,90.48225,-115.25306,1071.30139,195.72339,-125.14452,1072.17041,179.11751,-51.84039,1127.89575
39,0.317,91.54582,-113.9526,1071.51636,196.29553,-124.69745,1073.03809,180.71225,-51.01082,1128.41394
40,0.325,92.07212,-112.65729,1072.45972,197.02307,-124.28516,1073.87036,182.36415,-49.80827,1129.17871
41,0.333,91.93183,-111.82882,1073.48633,197.08401,-124.01128,1075.60315,182.84387,-48.2563,1128.95435
42,0.342,92.14379,-110.03751,1074.88708,198.36699,-123.28661,1077.46814,183.99727,-46.51337,1129.85693
43,0.35,92.30789,-108.46207,1075.58154,196.96443,-123.05367,1078.19055,184.97382,-44.91735,1129.60571
44,0.358,92.71026,-106.88984,1076.04602,196.78975,-122.75871,1080.08594,186.69022,-43.3658,1129.60608
45,0.367,92.05839,-103.517,1077.15857,196.79756,-122.59386,1080.88843,188.09769,-41.5093,1128.4812
46,0.375,92.70746,-100.79056,1077.43176,197.5652,-121.46406,1082.07837,190.08243,-40.58123,1128.80383
47,0.383,93.81944,-98.70209,1078.54407,198.04308,-120.82347,1082.30798,191.66937,-38.31429,1127.77002
48,0.392,94.07736,-98.04719,1079.04224,198.37753,-120.06451,1082.77002,192.97986,-37.67506,1127.88062
49,0.4,94.61916,-96.97367,1079.95459,198.30902,-119.93974,1083.97253,195.27583,-37.35704,1127.17249
50,0.408,95.23528,-94.8306,1080.15662,198.8974,-119.43546,1084.08203,196.86186,-34.75269,1126.14746
51,0.417,96.04279,-92.87195,1080.24231,198.68599,-119.55931,1084.48376,197.27545,-34.8911,1125.68628
52,0.425,96.25278,-92.67292,1080.3197,199.56548,-117.44675,1083.94763,197.8255,-32.4178,1125.45422
53,0.433,96.77248,-91.94128,1080.96606,199.86192,-116.95316,1084.63257,199.62038,-30.78452,1124.04797
54,0.442,96.98984,-90.10455,1081.22144,200.07066,-116.6002,1085.69409,200.9155,-28.76272,1123.37585
55,0.45,96.91309,-87.56379,1081.85693,199.9781,-115.63562,1086.59229,201.6179,-27.14788,1121.93298
56,0.458,96.56024,-84.90615,1081.45752,200.12849,-114.3674,1087.00757,203.81294,-25.06979,1120.30554
57,0.467,96.66251,-83.76635,1081.87659,200.37329,-113.30538,1087.93542,204.69737,-22.86845,1119.07336
58,0.475,97.80452,-82.02891,1082.50525,198.62755,-111.53479,1088.01465,206.50693,-21.25379,1118.1499
59,0.483,98.26291,-78.28357,1081.68066,198.85043,-110.25607,1087.68701,207.48775,-20.51517,1117.89917
60,0.492,98.72163,-76.50631,1081.62976,199.70103,-109.41643,1087.53918,209.98477,-19.05897,1115.31116
61,0.5,99.55505,-74.2428,1081.44958,199.42284,-109.42149,1088.41272,211.38718,-17.45007,1113.80554
62,0.508,99.04403,-71.29714,1081.50146,200.51462,-106.34218,1088.27954,212.64351,-15.88609,1112.55139
63,0.517,99.58532,-70.29364,1081.88708,200.48491,-106.01086,1088.26929,214.62851,-15.26161,1110.65942
64,0.525,100.66587,-68.10184,1081.8479,200.66727,-105.66405,1088.52258,216.20868,-14.39055,1109.24207
65,0.533,101.5544,-65.34709,1081.34839,200.54279,-104.12796,1088.46143,217.14439,-13.96998,1107.7998
66,0.542,101.80685,-64.7086,1081.6958,201.12933,-103.47995,1088.28918,218.23129,-12.12593,1106.37756
67,0.55,103.05942,-62.16668,1081.91406,201.0618,-103.49754,1088.18506,219.76572,-10.35312,1105.65088
68,0.558,103.79094,-60.48507,1081.56421,201.68753,-101.95618,1088.29504,220.8821,-8.68067,1105.68701
69,0.567,104.24383,-58.74627,1081.77258,202.32185,-100.13347,1088.04041,222.49699,-8.58034,1103.60657
70,0.575,104.90589,-56.02217,1081.05347,202.35434,-99.96487,1088.1582,222.70251,-8.13977,1103.25806
71,0.583,104.70716,-54.8274,1081.3374,202.16998,-99.27943,1088.09863,224.32431,-8.83145,1102.21509
72,0.592,105.54636,-52.78136,1081.70898,202.39389,-98.54985,1087.25903,226.66014,-7.42184,1101.4707
73,0.6,105.92102,-51.38575,1081.35608,202.57239,-97.46753,1086.72876,227.25645,-6.33766,1100.93555
74,0.608,106.57597,-50.46128,1081.36926,204.02429,-97.21732,1085.04712,228.60753,-5.52826,1098.99231
75,0.617,107.08254,-49.56241,1081.52148,203.20755,-96.67513,1084.97778,228.16251,-5.07738,1097.45483
76,0.625,107.63216,-48.70842,1081.20569,203.21222,-96.0662,1084.75244,229.24187,-5.86417,1096.0177
77,0.633,108.03402,-47.27629,1081.00916,203.08459,-96.07838,1084.26428,230.36043,-5.38758,1095.28821
78,0.642,108.45837,-46.12561,1080.51147,203.62987,-95.36989,1083.3103,231.51344,-2.10994,1094.89758
79,0.65,108.39737,-44.60493,1080.16785,203.18803,-94.11757,1082.42004,232.11681,-2.34278,1094.36353
80,0.658,108.75182,-44.69975,1080.08997,203.89252,-93.68677,1082.01013,232.41719,-2.41103,1093.81897
81,0.667,109.30231,-43.45303,1079.45251,204.14133,-93.04539,1081.74585,232.73529,-1.2527,1092.2373
82,0.675,109.39738,-43.26788,1078.94299,204.02159,-92.23903,1079.80518,233.32678,-0.37907,1092.42175
83,0.683,109.78664,-42.82936,1078.62744,204.90866,-91.79809,1079.43518,233.26559,-0.81794,1091.09583
84,0.692,109.78403,-42.82078,1078.45935,205.31813,-91.18817,1078.79163,233.46785,-0.69955,1090.65991
85,0.7,110.21162,-42.69684,1077.45691,205.04129,-90.44268,1078.22424,233.58391,-0.12144,1089.59497
86,0.708,110.45438,-43.05251,1077.146,205.22179,-90.69514,1078.32324,233.59424,-0.08278,1089.03564
87,0.717,110.28811,-43.02298,1076.97119,205.2498,-90.55491,1077.46704,233.10645,0.48892,1088.7356
88,0.725,110.34308,-42.9773,1076.80945,205.23763,-89.97614,1076.70837,233.06523,0.49058,1088.85291
89,0.733,110.45442,-42.61337,1076.33704,205.26399,-89.21127,1074.71765,234.34987,2.4604,1087.75391
90,0.742,110.30746,-41.13076,1075.63574,205.49165,-88.9231,1073.98755,233.94992,3.22277,1086.94092
91,0.75,110.4798,-40.27524,1075.22266,205.6669,-88.78328,1073.54761,233.82776,3.3887,1086.07251
92,0.758,110.32692,-40.32575,1074.72852,206.16138,-87.9379,1072.98621,233.65536,4.4674,1085.4491
93,0.767,110.61625,-39.77355,1074.11694,206.75075,-87.28923,1072.81189,233.72076,5.04073,1085.12952
94,0.775,110.59774,-39.09436,1073.672,206.78209,-86.72191,1072.0874,233.25105,5.5728,1084.2356
95,0.783,110.52757,-39.14745,1072.85889,207.63219,-86.4355,1071.9978,233.31387,6.48357,1083.20691
96,0.792,110.74778,-38.98605,1072.2533,207.87837,-85.5587,1071.08875,233.5117,7.5321,1082.27222
97,0.8,110.80064,-38.33329,1071.20129,207.60713,-85.11516,1070.26929,233.5257,7.54578,1081.73865
98,0.808,110.87716,-38.14509,1070.13904,207.56607,-84.32854,1069.15833,233.48332,7.58201,1081.12903
99,0.817,111.25327,-37.25512,1069.68225,207.9133,-84.1867,1067.93054,233.46704,8.04196,1080.38452
100,0.825,111.22401,-37.03504,1069.44836,207.76369,-84.24817,1067.66663,233.50694,8.00003,1079.67542
101,0.833,111.28307,-37.25651,1069.12061,207.76369,-84.24817,1067.66663,233.26672,9.59737,1078.46741
102,0.842,111.64024,-37.46481,1068.92566,207.82843,-83.52769,1067.08044,233.61621,9.47687,1077.646
103,0.85,111.59309,-36.86786,1068.37537,207.8342,-83.66064,1066.90625,233.81351,9.66509,1077.354
104,0.858,111.18445,-36.41206,1068.23413,207.8342,-83.66064,1066.90625,234.10406,9.83915,1076.86768
105,0.867,111.74249,-36.78776,1067.53882,206.86063,-83.06834,1066.72021,233.51271,9.59181,1076.07739
106,0.875,111.77101,-36.67895,1067.16724,207.30003,-82.74146,1066.70593,233.63181,9.88763,1074.83569
107,0.883,111.43261,-36.05282,1066.80664,207.10674,-82.7053,1066.52063,234.32458,10.34624,1074.2677
108,0.892,111.74809,-36.02474,1066.703,207.55896,-82.58467,1066.02466,234.36365,10.26295,1074.00427
109,0.9,111.85207,-35.10592,1066.19922,207.55896,-82.58467,1066.02466,234.75793,10.1405,1074.02344
110,0.908,112.05596,-35.22654,1066.14246,208.32724,-83.13134,1066.05505,234.5396,10.18368,1074.04199
111,0.917,111.91069,-35.45063,1066.3053,208.32724,-83.13134,1066.05505,234.75793,10.1405,1074.02344
112,0.925,111.91069,-35.45063,1066.3053,208.79637,-83.34791,1065.94983,234.82213,9.84889,1073.88843
113,0.933,112.03145,-35.59509,1066.21924,208.87926,-83.40792,1065.85583,234.82213,9.84889,1073.88843
114,0.942,112.28886,-35.90945,1066.5575,208.87926,-83.40792,1065.85583,235.0654,8.73561,1073.2959
115,0.95,112.12566,-36.70164,1066.98413,209.02817,-83.39536,1065.1322,234.82213,9.84889,1073.88843
116,0.958,112.23131,-36.8959,1067.1759,209.19398,-83.29348,1064.99097,234.82213,9.84889,1073.88843
117,0.967,112.37556,-37.27322,1067.50134,208.95894,-83.38914,1064.9447,235.10522,9.25065,1074.07947
118,0.975,112.41844,-36.7676,1067.50439,208.95894,-83.38914,1064.9447,235.10522,9.25065,1074.07947
119,0.983,112.49711,-36.84254,1067.42371,208.95894,-83.38914,1064.9447,234.65146,8.71969,1074.30603
120,0.992,112.41844,-36.7676,1067.50439,208.95894,-83.38914,1064.9447,234.65146,8.71969,1074.30603
121,1,112.41844,-36.7676,1067.50439,208.95894,-83.38914,1064.9447,234.67781,8.63343,1074.40027
122,1.008,112.41844,-36.7676,1067.50439,208.65143,-83.4324,1064.98059,234.67781,8.63343,1074.40027
123,1.017,112.56932,-37.0297,1067.46399,208.48561,-83.53423,1065.12183,234.67781,8.63343,1074.40027
124,1.025,112.48935,-36.97723,1067.56885,208.759,-83.583,1064.89319,234.97699,8.02983,1074.61865
125,1.033,112.48935,-36.97723,1067.56885,208.77818,-83.56706,1064.57922,235.10884,7.46479,1074.49048
126,1.042,112.62381,-37.09981,1067.52832,208.77818,-83.56706,1064.57922,235.19858,6.99024,1073.95422
127,1.05,112.54384,-37.04734,1067.63306,208.77818,-83.56706,1064.57922,234.95248,6.91235,1074.21082
128,1.058,112.72376,-37.13972,1067.54773,208.42569,-83.64486,1064.61621,235.17082,7.15525,1074.21411
129,1.067,112.62381,-37.09981,1067.52832,208.42569,-83.64486,1064.61621,234.95248,6.91235,1074.21082
130,1.075,112.62381,-37.09981,1067.52832,208.42569,-83.64486,1064.61621,235.55927,6.70129,1073.81836
131,1.083,112.62381,-37.09981,1067.52832,208.13655,-84.10863,1065.0614,235.55927,6.70129,1073.81836
132,1.092,112.61934,-37.22473,1067.41309,208.13655,-84.10863,1065.0614,235.55927,6.70129,1073.81836
133,1.1,112.50472,-37.42629,1067.28662,208.2993,-84.6003,1065.28259,235.41776,6.4071,1073.63989
134,1.108,112.60915,-37.34128,1067.42139,208.2993,-84.6003,1065.28259,235.15617,6.51347,1073.86218
135,1.117,112.60915,-37.34128,1067.42139,208.0741,-85.19978,1065.46729,235.15617,6.51347,1073.86218
136,1.125,112.60468,-37.4662,1067.30615,208.0741,-85.19978,1065.46729,235.86617,5.56699,1073.39941
137,1.133,112.60468,-37.4662,1067.30615,207.97156,-85.0472,1065.55664,235.94342,5.32427,1073.75049
138,1.142,112.60915,-37.34128,1067.42139,208.18242,-85.45535,1065.8147,236.5166,4.9112,1073.50964
139,1.15,112.60468,-37.4662,1067.30615,208.0799,-85.30276,1065.90405,236.5166,4.9112,1073.50964
140,1.158,112.60468,-37.4662,1067.30615,208.0799,-85.30276,1065.90405,236.50902,4.85708,1073.08533
141,1.167,112.60024,-37.59123,1067.19092,208.15321,-85.56618,1066.06189,236.50902,4.85708,1073.08533
142,1.175,112.56994,-37.84731,1067.24609,208.15321,-85.56618,1066.06189,236.92535,4.78237,1073.05469
143,1.183,112.5568,-37.52903,1067.13269,208.25574,-85.71875,1065.97253,236.92535,4.78237,1073.05469
144,1.192,112.60024,-37.59123,1067.19092,208.17783,-86.16128,1065.87671,237.18092,5.03857,1072.84412
145,1.2,112.86962,-37.44096,1066.94922,208.17783,-86.16128,1065.87671,237.24132,4.49792,1072.90247
146,1.208,112.92668,-37.57901,1066.89685,208.17783,-86.16128,1065.87671,236.98576,4.24171,1073.11304
147,1.217,112.65728,-37.72927,1067.13855,208.19524,-87.1633,1065.69678,236.82852,4.26611,1073.29321
148,1.225,112.65728,-37.72927,1067.13855,208.15294,-88.09767,1065.4989,236.8378,3.73958,1073.23035
149,1.233,112.65728,-37.72927,1067.13855,208.09952,-88.07788,1065.02515,236.8378,3.73958,1073.23035
150,1.242,112.76388,-37.89692,1067.09338,207.88727,-88.1786,1064.76453,236.8378,3.73958,1073.23035
151,1.25,112.89848,-38.19086,1067.10474,207.88727,-88.1786,1064.76453,236.8378,3.73958,1073.23035
152,1.258,112.84057,-38.1994,1067.04932,207.88727,-88.1786,1064.76453,236.83018,3.68545,1072.80603
153,1.267,113.00073,-38.25165,1067.00647,207.88727,-88.1786,1064.76453,236.83018,3.68545,1072.80603
154,1.275,113.02059,-38.17128,1067.10144,207.88727,-88.1786,1064.76453,236.83018,3.68545,1072.80603
155,1.283,112.94282,-38.26019,1066.95117,207.6534,-88.48705,1064.44629,236.83018,3.68545,1072.80603
156,1.292,112.97737,-38.18919,1066.72107,207.86919,-88.54562,1064.28723,236.83018,3.68545,1072.80603
157,1.3,112.98083,-38.58586,1066.96692,207.66106,-88.66484,1064.21497,236.83018,3.68545,1072.80603
158,1.308,112.98083,-38.58586,1066.96692,207.5293,-88.86042,1064.17358,236.79652,3.43275,1072.68359
159,1.317,112.87841,-38.7806,1066.76917,207.51939,-88.94104,1063.89209,236.79652,3.43275,1072.68359
160,1.325,112.87841,-38.7806,1066.76917,207.28304,-89.16866,1064.01501,236.79652,3.43275,1072.68359
161,1.333,112.9193,-38.6043,1066.84827,207.40118,-88.98199,1063.82202,236.79652,3.43275,1072.68359
162,1.342,112.71677,-40.07553,1067.09399,207.28304,-89.16866,1064.01501,236.83475,3.30639,1072.8656
163,1.35,112.65141,-40.05146,1066.96069,207.28304,-89.16866,1064.01501,236.68965,2.37558,1072.7937
164,1.358,112.81454,-40.12874,1066.76746,207.28304,-89.16866,1064.01501,236.71158,2.62506,1072.55188
165,1.367,112.71677,-40.07553,1067.09399,207.37262,-88.98676,1063.39941,236.71158,2.62506,1072.55188
166,1.375,112.96774,-38.73606,1066.79114,207.37262,-88.98676,1063.39941,236.84772,2.07842,1072.56494
167,1.383,112.92685,-38.91235,1066.71204,207.37262,-88.98676,1063.39941,236.98654,1.54984,1072.71948
168,1.392,112.81454,-40.12874,1066.76746,207.25453,-89.17343,1063.59229,236.82475,1.50538,1072.57202
169,1.4,112.81454,-40.12874,1066.76746,207.25453,-89.17343,1063.59229,236.82475,1.50538,1072.57202
170,1.408,113.1516,-40.284,1066.51685,206.97446,-89.26402,1063.47327,236.82475,1.50538,1072.57202
171,1.417,112.97282,-40.18167,1066.66943,206.97446,-89.26402,1063.47327,236.98347,1.25903,1072.47559
172,1.425,113.1516,-40.284,1066.51685,206.82079,-89.48576,1063.66101,236.98347,1.25903,1072.47559
173,1.433,113.1516,-40.284,1066.51685,207.18321,-89.41897,1063.50513,236.84195,0.96427,1072.29688
174,1.442,113.1516,-40.284,1066.51685,207.18321,-89.41897,1063.50513,236.84195,0.96427,1072.29688
175,1.45,113.29996,-40.56829,1066.44678,207.35652,-89.30212,1062.97644,236.84195,0.96427,1072.29688
176,1.458,113.29996,-40.56829,1066.44678,207.07745,-89.60785,1063.47791,236.84195,0.96427,1072.29688
177,1.467,113.29996,-40.56829,1066.44678,207.07745,-89.60785,1063.47791,237.17734,0.85952,1072.11963
178,1.475,113.14996,-40.38265,1066.41309,207.07745,-89.60785,1063.47791,237.17734,0.85952,1072.11963
179,1.483,113.29996,-40.56829,1066.44678,207.18321,-89.41897,1063.50513,237.17734,0.85952,1072.11963
180,1.492,113.14996,-40.38265,1066.41309,207.06865,-89.88999,1063.75696,237.04378,0.91462,1071.90002
181,1.5,113.14996,-40.38265,1066.41309,206.92375,-89.82953,1063.66577,237.17056,0.80563,1071.69519
182,1.508,113.14996,-40.38265,1066.41309,207.30922,-89.98397,1064.2052,237.24408,0.83521,1071.43945
183,1.517,113.23804,-40.34335,1066.33655,207.21837,-90.21396,1064.17358,237.24408,0.83521,1071.43945
184,1.525,113.38805,-40.529,1066.37012,207.06865,-89.88999,1063.75696,237.38441,0.83403,1072.08337
185,1.533,113.4475,-40.51015,1066.23413,207.06865,-89.88999,1063.75696,237.38441,0.83403,1072.08337
186,1.542,113.53493,-40.67183,1065.58643,207.23682,-90.06212,1063.71362,237.38441,0.83403,1072.08337
187,1.55,113.50449,-40.5043,1065.77698,208.03046,-90.35591,1063.20459,237.38441,0.83403,1072.08337
188,1.558,113.53493,-40.67183,1065.58643,207.78436,-90.21552,1063.09009,237.32762,0.63548,1072.22778
189,1.567,113.55975,-41.06916,1065.26428,207.60199,-89.79897,1062.43835,237.32762,0.63548,1072.22778
190,1.575,113.53038,-41.10795,1065.95593,207.60199,-89.79897,1062.43835,237.32762,0.63548,1072.22778
191,1.583,113.56734,-41.07561,1066.32007,207.75569,-89.57712,1062.25049,237.32762,0.63548,1072.22778
192,1.592,113.5364,-41.25882,1065.81592,207.77133,-89.96255,1062.40906,237.32762,0.63548,1072.22778
193,1.6,113.673,-41.22009,1065.30798,207.77133,-89.96255,1062.40906,237.32762,0.63548,1072.22778
194,1.608,113.74947,-41.27515,1065.18909,207.60199,-89.79897,1062.43835,237.32762,0.63548,1072.22778
195,1.617,113.59503,-41.34446,1065.14038,207.77133,-89.96255,1062.40906,237.96947,0.96542,1071.46167
196,1.625,113.604,-41.39111,1065.13318,207.94986,-90.05759,1062.4917,237.96947,0.96542,1071.46167
197,1.633,113.81994,-41.44772,1065.03271,207.77133,-89.96255,1062.40906,237.96947,0.96542,1071.46167
198,1.642,113.81994,-41.44772,1065.03271,207.77133,-89.96255,1062.40906,237.91264,0.76694,1071.60608
