Frame#,Time,L.Forearm.x,L.Forearm.y,L.Forearm.z,L.Ulna.x,L.Ulna.y,L.Ulna.z,L.Radius.x,L.Radius.y,L.Radius.z
1,0,2023.56384,-23.86236,982.31305,2066.82715,-43.02731,915.22449,1994.47668,-22.06035,900.62988
2,0.008,2018.61462,-24.56432,981.05145,2062.09961,-40.17083,914.85071,1990.30676,-21.06906,899.53497
3,0.017,2014.58679,-22.51105,981.48065,2058.94385,-41.23847,914.87592,1987.35242,-23.21135,900.33484
4,0.025,2012.89526,-23.19528,980.95135,2056.04004,-41.50692,915.80573,1983.02112,-23.16359,900.58807
5,0.033,2007.8811,-23.3651,980.76385,2051.57983,-39.62528,914.48456,1979.34973,-22.09715,900.56726
6,0.042,2003.55273,-22.54826,981.14868,2048.05444,-39.80983,915.2392,1976.79871,-22.82919,900.716
7,0.05,2001.59302,-24.07283,980.73395,2045.74219,-40.39306,915.1405,1972.18164,-21.8728,900.68365
8,0.058,1998.77856,-24.9853,980.65485,2040.78455,-39.79524,914.44855,1968.06165,-21.72445,899.87512
9,0.067,1992.84448,-22.1456,980.49548,2036.78516,-39.84058,914.85339,1964.89795,-24.02476,900.15845
10,0.075,1989.27319,-24.29267,980.76001,2033.38708,-39.17311,914.79401,1960.5249,-23.10961,900.04657
11,0.083,1986.4751,-26.34439,980.20111,2028.92578,-39.15,914.71783,1956.1416,-22.20315,901.24164
12,0.092,1979.93164,-23.59628,979.50049,2024.92566,-39.73303,913.99951,1952.2019,-24.15104,899.94666
13,0.1,1978.04102,-24.12324,979.19232,2020.74731,-40.33696,913.66138,1946.21997,-24.13885,899.52673
14,0.108,1971.30835,-21.36489,978.47992,2016.24158,-39.87977,913.42554,1942.17297,-23.96666,899.39313
15,0.117,1966.87024,-25.10054,977.94263,2011.49817,-40.5099,912.83014,1939.64246,-24.76284,899.39594
16,0.125,1963.96765,-26.09283,977.95483,2007.38416,-41.06325,912.94727,1933.92102,-24.72561,898.46906
17,0.133,1957.8916,-23.35093,977.64746,2001.70789,-40.63569,911.51392,1929.01135,-25.79364,899.06262
18,0.142,1953.07788,-26.59918,976.74426,1997.0144,-41.0145,911.6225,1924.47827,-24.93835,897.32037
19,0.15,1949.30505,-29.13372,976.74579,1991.93567,-41.07328,911.33063,1918.56299,-25.8017,897.37073
20,0.158,1942.19275,-27.27851,975.47296,1987.26294,-42.58601,910.0827,1912.43701,-26.03234,895.8205
21,0.167,1936.74707,-30.70818,975.54016,1981.36462,-42.27491,909.32153,1907.22192,-25.86031,894.11316
22,0.175,1930.08679,-27.68508,975.03882,1975.46423,-43.39494,908.70782,1903.64331,-28.95871,894.01147
23,0.183,1925.76147,-31.15654,973.81897,1969.88916,-44.48803,908.92261,1897.90161,-30.46225,893.16766
24,0.192,1918.99731,-28.53563,972.45612,1963.54395,-45.43009,907.51349,1891.2699,-30.30371,893.10522
25,0.2,1913.75769,-32.34565,972.2251,1958.2467,-46.20842,907.04895,1884.92603,-32.04477,891.10858
26,0.208,1906.83691,-33.29659,971.92944,1951.56824,-47.3224,905.04779,1879.33948,-31.70121,889.85077
27,0.217,1900.79675,-34.29878,970.2569,1945.49597,-48.78962,903.53577,1872.43262,-33.72219,890.38867
28,0.225,1894.22217,-35.4507,969.86481,1939.43127,-49.03484,902.737,1867.93579,-33.02104,888.9447
29,0.233,1887.89209,-35.67433,968.58282,1932.81274,-50.65997,901.8562,1858.69434,-35.76875,889.02295
30,0.242,1880.66199,-37.82094,968.02899,1925.02417,-51.94046,901.01886,1853.94055,-35.25518,887.19397
31,0.25,1873.7251,-38.25969,967.31934,1918.5824,-53.82534,899.95026,1846.27771,-37.77776,887.32843
32,0.258,1866.68372,-40.8527,966.16803,1911.49866,-54.15564,899.24274,1840.02405,-37.78316,886.54272
33,0.267,1860.30334,-40.6643,965.8869,1903.65259,-56.43237,897.94971,1830.74194,-38.83602,885.84583
34,0.275,1850.7406,-41.20898,964.89709,1896.69226,-56.27153,897.25513,1825.56543,-42.515,883.69336
35,0.283,1844.88269,-45.05857,964.5108,1888.90735,-59.4252,896.35095,1816.86023,-42.32233,882.35632
36,0.292,1837.20923,-46.57609,963.71356,1880.86951,-60.40178,895.70837,1809.93506,-43.55002,883.4502
37,0.3,1830.5304,-47.86123,963.68329,1873.3783,-61.82312,895.70129,1800.91943,-45.05748,881.92462
38,0.308,1821.69226,-47.26243,963.37988,1865.5437,-63.37597,895.45587,1793.12146,-46.19282,881.80054
39,0.317,1814.90137,-52.11978,963.09302,1857.31116,-65.6324,895.70569,1784.6543,-48.65874,881.65002
40,0.325,1806.26965,-51.67969,965.03717,1848.80249,-67.34938,897.35333,1776.84814,-49.97188,883.55286
41,0.333,1799.83179,-55.61803,965.5874,1840.17712,-70.35504,898.27826,1768.25464,-53.36804,884.91272
42,0.342,1789.328,-55.44098,966.15271,1832.75439,-71.81462,898.6651,1760.5415,-52.94398,885.32617
43,0.35,1783.22192,-60.15015,966.79974,1823.76331,-73.43864,898.93811,1752.34827,-55.50401,886.85541
44,0.358,1775.26953,-59.17921,968.80365,1815.80615,-75.70586,901.1261,1744.66785,-56.80313,888.89563
45,0.367,1765.64636,-61.9486,969.94354,1807.5,-76.62874,902.22681,1735.36951,-56.13601,890.51398
46,0.375,1760.15308,-62.27985,971.97754,1800.25061,-80.41711,903.20245,1727.15283,-59.06974,892.40979
47,0.383,1748.56104,-63.55641,973.51764,1790.61841,-81.21074,905.63269,1719.95056,-61.86332,893.70966
48,0.392,1742.45056,-67.88393,973.95984,1782.7937,-84.28265,906.19995,1711.81299,-64.48175,894.87653
49,0.4,1733.86707,-66.82198,975.88129,1773.63538,-85.74824,906.43475,1702.60925,-66.02927,898.18951
50,0.408,1726.98438,-72.50095,977.45074,1766.27405,-87.32009,908.39996,1693.88916,-67.73651,898.11877
51,0.417,1718.0918,-71.15636,977.77917,1758.20203,-89.56015,909.65472,1685.77283,-68.06129,899.43835
52,0.425,1712.64014,-75.75392,980.18121,1749.55505,-90.73275,909.9812,1677.19031,-70.0928,901.33936
53,0.433,1703.15356,-75.98235,980.77063,1741.72791,-94.34695,910.1333,1669.78845,-73.49098,902.44385
54,0.442,1696.87695,-79.35922,980.63062,1733.1217,-95.49712,909.93817,1662.12622,-74.69457,902.12164
55,0.45,1688.49585,-79.59131,981.77374,1724.33862,-97.86858,910.64935,1652.73694,-76.856,904.94653
56,0.458,1682.4281,-84.36057,981.40344,1715.98352,-99.42242,910.87653,1643.95593,-78.92992,905.20343
57,0.467,1673.83398,-84.26995,982.44452,1708.7406,-102.41108,911.34454,1635.45605,-79.07892,905.26343
58,0.475,1664.58923,-86.77291,983.73785,1699.3833,-104.02529,911.27124,1627.75745,-82.43172,905.41986
59,0.483,1657.54199,-88.89223,982.9848,1690.60962,-104.82455,911.14728,1618.6106,-84.88069,905.87341
60,0.492,1649.17725,-90.7254,982.42523,1683.54065,-108.99952,911.09735,1611.60925,-84.51608,907.29858
61,0.5,1641.99304,-92.92283,982.77991,1674.82922,-109.46808,910.73627,1602.96069,-86.38374,907.4328
62,0.508,1632.95557,-93.78535,983.08716,1666.91003,-110.92443,911.41821,1594.19885,-88.68523,907.96246
63,0.517,1624.30164,-91.68082,985.22314,1659.05029,-113.89909,911.633,1586.66174,-88.3054,907.14349
64,0.525,1619.35364,-96.20358,983.71295,1649.02124,-113.50549,912.31793,1578.22961,-90.82937,908.29834
65,0.533,1609.95386,-95.58826,984.78931,1642.40588,-116.4884,912.02966,1569.76599,-90.96715,908.88855
66,0.542,1603.44495,-97.48139,984.94385,1633.79382,-117.32372,911.96899,1562.92761,-93.48074,910.2948
67,0.55,1595.86328,-99.96948,985.93518,1625.01221,-117.79967,912.50623,1555.24353,-95.70879,910.34064
68,0.558,1587.99158,-97.97858,985.21198,1619.78247,-119.94526,912.81146,1548.42859,-94.9108,911.01239
69,0.567,1581.14221,-100.79401,985.98273,1610.92981,-120.21926,913.27118,1540.29858,-96.75394,910.33783
70,0.575,1575.00488,-101.10764,986.8324,1604.02087,-121.66631,912.7525,1533.87585,-96.69007,911.38324
71,0.583,1567.48267,-103.30159,986.70361,1596.79065,-123.48409,914.21844,1524.76575,-98.08468,911.41888
72,0.592,1561.66919,-103.36352,985.97589,1588.69812,-122.72417,913.67169,1518.66492,-98.74767,911.74475
73,0.6,1552.7594,-104.01191,986.34906,1582.71045,-124.79626,913.69366,1511.55457,-99.82258,911.66986
74,0.608,1547.00256,-104.24535,986.58929,1575.80676,-125.28604,913.33099,1505.09534,-99.01665,912.29254
75,0.617,1540.33801,-106.46066,985.96832,1568.3114,-124.99701,913.03217,1497.82166,-99.93546,912.25488
76,0.625,1532.57739,-105.411,987.06158,1562.90808,-126.8342,913.89941,1492.20422,-100.28796,913.54724
77,0.633,1526.03564,-106.99654,987.0799,1554.77161,-126.33877,912.6488,1483.72571,-100.58103,913.46857
78,0.642,1520.60901,-107.01067,986.03308,1548.46301,-126.56828,913.23901,1478.63904,-100.8765,914.54773
79,0.65,1514.94067,-107.85544,986.81842,1542.22278,-127.70985,912.90509,1470.72168,-102.4838,913.79901
80,0.658,1509.31104,-108.58993,985.75537,1536.06421,-128.17007,912.76984,1464.80396,-100.29376,913.55499
81,0.667,1502.83484,-106.38526,986.9939,1528.98511,-127.59282,913.20917,1457.92517,-102.5057,913.50781
82,0.675,1496.72192,-107.72668,984.64154,1523.93457,-129.07829,913.21393,1454.47351,-102.58456,913.50958
83,0.683,1491.28406,-108.01719,986.74329,1517.38721,-127.58861,912.49298,1447.89514,-101.37066,913.35815
84,0.692,1483.80554,-107.39116,985.60706,1513.17554,-129.08762,911.95612,1441.28882,-101.7747,912.72943
85,0.7,1480.13196,-109.38609,984.63953,1505.90613,-129.13162,911.82263,1436.66846,-101.18152,912.77991
86,0.708,1474.3291,-107.75256,984.41132,1499.23438,-127.31384,910.88275,1430.80261,-99.72772,911.70087
87,0.717,1468.40454,-107.70683,983.93842,1495.53674,-129.82968,910.98413,1424.39514,-101.05151,911.2605
88,0.725,1463.14551,-108.75736,982.6629,1488.93103,-128.06458,910.34125,1419.58484,-100.10234,910.49139
89,0.733,1456.85852,-106.72486,982.34875,1484.04041,-128.03523,909.38416,1413.99426,-99.08446,910.97949
90,0.742,1452.77698,-108.05464,982.90369,1478.87122,-128.44334,909.27356,1409.25378,-99.52419,910.00293
91,0.75,1447.55615,-108.00634,981.62573,1472.43848,-126.7923,908.34143,1404.12244,-100.45348,909.05975
92,0.758,1440.93445,-105.86971,981.36145,1469.52563,-128.70633,908.20026,1398.5708,-98.35344,907.42938
93,0.767,1436.72192,-105.77763,981.55023,1463.13123,-127.20088,907.4447,1393.04834,-98.43729,906.91827
94,0.775,1431.71387,-106.14218,979.58881,1457.94263,-126.28506,906.27588,1387.96338,-98.5375,906.88354
95,0.783,1426.31335,-106.10091,978.95258,1453.49854,-126.89604,906.14612,1382.82947,-97.39771,905.56641
96,0.792,1421.86487,-106.08053,978.76654,1447.91528,-125.14641,904.573,1380.57678,-97.51726,905.40503
97,0.8,1415.2821,-104.89762,977.90143,1443.17871,-124.80051,903.16913,1373.48206,-97.51315,903.85266
98,0.808,1409.86646,-103.84477,976.75409,1438.59778,-124.54259,902.44189,1368.41248,-96.89699,903.02228
99,0.817,1406.1676,-103.94239,976.69562,1433.44055,-122.841,902.08435,1362.69153,-96.27182,902.29315
100,0.825,1400.93518,-102.05645,974.47284,1428.65259,-123.28081,900.91193,1359.35669,-93.7061,902.04852
101,0.833,1396.78491,-101.02596,973.32788,1423.40796,-122.76218,899.00403,1353.12952,-95.32931,898.5235
102,0.842,1390.2489,-100.35658,971.58765,1418.38794,-121.30331,898.48688,1349.26453,-94.15739,897.19257
103,0.85,1385.26929,-99.70451,969.83148,1415.60461,-121.52549,897.78076,1344.07739,-93.18186,896.51776
104,0.858,1381.28992,-99.64294,969.29626,1409.67114,-119.91177,896.46271,1340.23865,-90.924,896.62006
105,0.867,1376.40674,-100.2651,968.37756,1404.69775,-118.41341,895.90497,1334.95911,-91.9107,894.67535
106,0.875,1370.89478,-98.31477,967.77448,1400.86743,-119.93722,895.27008,1329.25049,-90.16586,894.34943
107,0.883,1366.81677,-97.94882,967.49805,1395.74219,-117.76229,894.13928,1325.80457,-89.32455,893.61035
108,0.892,1362.35083,-96.2633,967.14215,1390.68677,-116.85942,893.33618,1321.75415,-88.95158,893.31305
109,0.9,1355.89404,-96.57703,965.8559,1387.80957,-116.28807,893.54431,1315.87476,-89.11929,891.61713
110,0.908,1351.68994,-96.61014,965.84283,1382.24841,-115.68967,892.6792,1311.755,-89.39703,890.57758
111,0.917,1347.81946,-94.4256,965.42676,1378.22876,-113.67146,893.46448,1306.08057,-87.87627,890.84143
112,0.925,1341.71667,-91.97463,965.13,1372.92639,-112.79435,893.17493,1303.17432,-85.71448,890.28577
113,0.933,1337.86841,-92.32042,966.31726,1369.28186,-112.26782,893.87396,1298.59302,-85.82437,890.03326
114,0.942,1330.70544,-91.01381,966.8175,1364.83582,-111.29258,894.38287,1293.00293,-85.87203,890.61981
115,0.95,1326.90588,-90.46747,967.73907,1360.76733,-109.27959,895.81042,1289.86743,-84.52833,890.43921
116,0.958,1322.71643,-89.81789,968.07452,1355.41736,-109.21033,896.98132,1285.58948,-83.8307,891.28717
117,0.967,1316.70667,-89.41061,968.73425,1352.61047,-107.46356,897.53333,1280.02112,-81.82745,891.52625
118,0.975,1311.79639,-88.35972,970.50446,1347.65979,-107.11492,899.73718,1275.91772,-83.08211,892.93567
119,0.983,1307.26172,-87.2775,971.17908,1344.58594,-106.35724,901.03796,1272.21973,-81.00195,893.36926
120,0.992,1303.13574,-87.14467,972.04865,1338.7821,-105.50221,901.05499,1268.28333,-81.01174,893.48566
121,1,1297.24622,-86.92292,972.12,1335.32471,-104.75085,901.75842,1263.54309,-80.23323,893.83716
122,1.008,1292.30786,-87.00323,972.97125,1330.28699,-103.78123,902.18115,1258.89111,-79.79946,894.69629
123,1.017,1287.45605,-85.54027,973.45325,1325.19958,-103.19736,903.15942,1254.83167,-80.65321,894.83972
124,1.025,1284.17114,-84.80072,973.46863,1321.12585,-103.6388,904.75195,1249.31909,-79.27197,895.49524
125,1.033,1277.9679,-83.28587,973.92657,1315.98303,-102.10635,904.45801,1246.73474,-78.87247,895.93439
126,1.042,1273.651,-83.68584,974.64435,1311.34204,-102.28312,905.05786,1240.81555,-79.61047,896.77863
127,1.05,1269.32434,-83.11717,975.98547,1306.0647,-102.04067,905.78082,1235.00525,-77.69271,896.48212
128,1.058,1263.85889,-81.39635,975.99255,1301.52527,-101.6127,906.41235,1231.72144,-78.71542,896.75677
129,1.067,1258.82446,-82.42083,976.9411,1297.43542,-101.95669,907.07123,1226.74268,-75.50642,897.30182
130,1.075,1253.75232,-81.63383,976.65472,1292.09167,-101.66081,907.42084,1221.50061,-76.73711,898.19702
131,1.083,1251.03345,-81.49734,977.45978,1288.12817,-101.03119,907.61218,1216.96973,-76.51017,898.95538
132,1.092,1245.72266,-82.65668,977.27289,1283.5127,-100.51443,907.547,1212.55249,-74.57215,899.03589
133,1.1,1240.302,-81.27597,977.54321,1279.05615,-100.92441,908.53192,1209.14709,-77.65475,899.55298
134,1.108,1237.36023,-82.14652,978.47858,1274.94543,-100.47737,908.84729,1203.24854,-74.72204,898.76318
135,1.117,1231.41174,-81.10532,977.07343,1270.01294,-100.06232,909.13391,1200.5072,-76.90636,898.74481
136,1.125,1227.80249,-82.92884,978.20636,1266.20154,-100.2309,909.39063,1194.19409,-76.02938,899.00409
137,1.133,1222.68237,-82.09413,978.07513,1261.73645,-99.34906,909.65253,1190.47681,-76.90887,899.7348
138,1.142,1216.43408,-82.46782,978.48474,1258.03992,-99.32342,910.10254,1186.66382,-76.48386,898.69122
139,1.15,1212.83142,-82.31243,978.02606,1252.87708,-99.69112,910.08191,1182.07629,-77.21796,899.59045
140,1.158,1208.5719,-81.95989,978.58795,1248.89709,-98.3565,910.56812,1177.22729,-76.30484,900.97119
141,1.167,1204.6488,-82.79128,979.04382,1244.67773,-99.21992,911.41962,1172.61609,-77.71386,900.59521
142,1.175,1199.67676,-82.97496,979.46002,1239.7052,-99.05118,910.83392,1168.46008,-79.13862,900.33752
143,1.183,1195.15698,-82.21616,980.87256,1236.24451,-99.13815,911.67181,1165.63745,-79.45343,900.38745
144,1.192,1190.41699,-81.66852,980.94989,1230.63171,-98.77828,911.89777,1159.86548,-78.55792,900.77148
145,1.2,1186.01904,-83.21998,981.18213,1226.93018,-98.80079,911.32556,1154.41272,-78.90285,900.71503
146,1.208,1180.03918,-82.05176,980.06097,1222.29871,-99.34543,911.67004,1151.47107,-79.52461,900.19617
147,1.217,1176.92712,-81.3553,979.64966,1217.26355,-99.61983,911.74878,1145.65845,-78.98209,900.42438
148,1.225,1170.7041,-83.19032,979.63226,1212.53101,-99.461,911.65594,1141.15796,-80.89458,900.79492
149,1.233,1166.87622,-82.86851,979.44769,1208.58875,-99.66293,911.17383,1137.49536,-79.85384,900.73529
150,1.242,1161.99902,-85.25854,979.68561,1203.20142,-99.61521,911.38574,1131.95007,-80.83197,900.53424
151,1.25,1156.62854,-83.4104,979.36023,1198.54968,-99.65927,911.56171,1125.88928,-80.83886,900.09973
152,1.258,1153.68176,-84.11147,980.22137,1193.29187,-99.6805,911.71338,1121.82166,-80.67146,900.776
153,1.267,1145.61206,-85.25958,979.40063,1189.04822,-99.96028,911.48334,1116.23059,-82.46014,900.6142
154,1.275,1141.82922,-84.54922,980.22198,1183.94312,-100.02807,911.33722,1111.50366,-81.88121,900.19562
155,1.283,1135.35034,-85.61922,978.78455,1178.16113,-100.90385,911.07349,1105.68933,-84.00762,900.42657
156,1.292,1130.42981,-85.07578,978.87463,1172.99023,-100.83851,909.95184,1100.36902,-82.91645,900.13763
157,1.3,1126.88977,-86.07208,978.97559,1167.09375,-101.08899,909.7207,1094.52747,-83.61987,899.43579
158,1.308,1119.67456,-87.46107,978.64563,1161.27283,-101.687,910.05841,1089.62964,-84.6264,898.98254
159,1.317,1114.33936,-86.02434,978.41809,1155.35413,-101.81176,909.75653,1083.34705,-84.6213,898.89514
160,1.325,1109.29553,-89.89368,976.86963,1150.4541,-102.60766,909.26343,1076.59814,-85.1768,897.91602
161,1.333,1103.06812,-88.5758,977.11566,1144.44067,-102.86827,907.97815,1072.46545,-85.97382,898.71436
162,1.342,1095.38025,-90.27663,977.00018,1137.90894,-103.16106,908.69232,1065.59607,-87.63309,897.5293
163,1.35,1091.073,-89.65214,976.46686,1132.38123,-104.52665,908.42358,1058.90686,-87.64346,896.44604
164,1.358,1084.1095,-91.6383,976.21613,1126.07959,-104.73564,907.60114,1052.84143,-89.36627,896.02307
165,1.367,1078.22388,-90.46083,975.02618,1118.88257,-106.69889,907.20605,1046.61182,-90.25172,895.50067
166,1.375,1070.24402,-91.93671,974.63831,1112.24878,-106.36845,906.29681,1039.72302,-90.25195,895.19897
167,1.383,1064.12756,-93.0537,974.63855,1106.04004,-108.13076,905.92474,1033.05957,-90.83302,894.94214
168,1.392,1059.35071,-94.15318,973.56049,1099.46997,-108.65397,904.90033,1025.89368,-90.72731,893.43524
169,1.4,1050.46838,-96.75859,972.24286,1091.63855,-109.66202,903.46399,1019.15143,-92.50787,894.42456
170,1.408,1042.99707,-97.07107,971.34894,1084.31165,-110.96438,903.32092,1011.74023,-92.6169,893.06592
171,1.417,1036.45959,-97.81576,970.91248,1077.68054,-111.01245,901.77484,1004.72406,-93.7365,891.99377
172,1.425,1028.98193,-99.5583,969.37238,1069.83582,-113.32741,900.75525,997.70996,-95.47597,891.12445
173,1.433,1023.16718,-100.42948,968.87091,1062.02612,-114.30463,899.76373,989.13702,-96.17724,890.74524
174,1.442,1015.12549,-100.67376,967.86029,1054.50586,-115.33366,898.55029,981.61243,-96.98447,889.74384
175,1.45,1007.24817,-102.60603,967.20837,1046.23047,-116.27566,897.89044,974.2558,-98.5817,889.07837
176,1.458,999.10651,-103.37934,966.05145,1037.48389,-117.44385,896.67279,964.81165,-99.40736,888.04938
177,1.467,991.15558,-104.26041,965.07532,1029.7168,-120.40803,895.99231,956.88916,-100.57203,887.50085
178,1.475,982.97931,-106.46981,965.20123,1021.47882,-121.00365,895.35938,948.0744,-100.99933,887.34564
179,1.483,974.35034,-107.85414,964.53662,1013.2774,-121.8942,894.71375,940.19366,-103.83334,887.04749
180,1.492,964.55951,-109.85747,964.26385,1004.04797,-123.23272,893.98279,931.81805,-104.83452,887.67419
181,1.5,956.6969,-109.85362,965.12531,995.89661,-124.54929,894.50226,922.6604,-106.2964,888.00073
182,1.508,948.7724,-110.41431,965.02051,986.65137,-126.08103,895.07062,914.224,-107.68781,888.29431
183,1.517,940.19897,-112.08611,966.04449,977.94696,-127.79524,896.25903,906.10291,-108.15932,888.78394
184,1.525,930.48303,-115.12376,967.94037,968.55231,-129.57373,897.16736,896.90173,-109.49233,890.60413
185,1.533,921.70618,-117.15884,969.37109,960.69373,-131.21552,898.83972,887.60718,-110.84167,891.82153
186,1.542,913.62097,-116.64043,971.30054,952.1424,-132.81099,899.67639,880.11041,-113.50404,894.216
187,1.55,906.48029,-118.46217,972.82635,942.82477,-133.95946,901.82104,870.59857,-113.51043,895.66785
188,1.558,898.01654,-119.76497,975.4751,935.12762,-135.54289,903.97406,861.61682,-115.97387,898.21881
189,1.567,890.65869,-122.34711,976.70667,925.56116,-136.93491,905.7132,852.76648,-117.32674,899.8515
190,1.575,882.58069,-125.53448,979.0694,917.08118,-139.36226,907.18713,844.75543,-118.35175,902.61859
191,1.583,874.80542,-126.24184,981.68848,908.24097,-140.27194,908.78949,836.27563,-119.92941,904.7215
192,1.592,866.42163,-127.37876,982.47955,900.70355,-142.1367,909.64825,827.84143,-122.52728,906.81812
193,1.6,859.12567,-128.75841,984.49756,891.29865,-143.75768,910.61572,818.34521,-123.67431,909.01935
194,1.608,850.24481,-130.27744,984.77667,883.16119,-145.15433,911.84155,809.94977,-124.69274,910.75903
195,1.617,842.55872,-133.24962,986.68585,874.30957,-146.94017,912.89026,801.13293,-126.05029,912.68152
