Frame#,Time,R.Forearm.x,R.Forearm.y,R.Forearm.z,R.Ulna.x,R.Ulna.y,R.Ulna.z,R.Radius.x,R.Radius.y,R.Radius.z
1,0,-156.5755,-233.59868,638.33734,-108.95156,-209.69226,562.38196,-64.14619,-142.75078,608.08679
2,0.008,-156.33235,-232.16026,638.52747,-108.37953,-209.6199,563.30658,-64.30356,-141.84174,608.04138
3,0.017,-155.95985,-232.18661,638.28278,-108.37953,-209.6199,563.30658,-64.68367,-141.36418,608.09137
4,0.025,-155.75293,-231.95953,638.49023,-108.39445,-209.42453,562.83032,-64.32947,-141.16563,607.74927
5,0.033,-155.53165,-232.06099,638.04272,-108.42878,-209.58553,562.44049,-63.77174,-140.97115,607.5993
6,0.042,-155.07381,-233.38756,637.66473,-108.4853,-209.70526,561.52478,-62.21103,-142.8372,607.02087
7,0.05,-154.6087,-233.43167,637.73193,-108.27076,-209.59683,560.61261,-62.43422,-144.95282,607.33435
8,0.058,-154.2737,-233.67795,637.45453,-108.43203,-209.96461,560.35931,-60.8955,-147.26717,607.4884
9,0.067,-154.25319,-237.37326,637.05566,-108.41063,-211.40335,559.40924,-58.98894,-149.40433,607.57367
10,0.075,-154.41457,-239.44348,636.89307,-108.16968,-212.96448,557.19452,-57.65374,-152.4185,606.91455
11,0.083,-153.16336,-239.74043,635.4657,-108.71556,-212.83823,556.32965,-54.36472,-156.19093,606.81683
12,0.092,-153.53543,-241.99734,634.65906,-109.01371,-214.09509,555.50916,-54.93728,-159.68831,606.58044
13,0.1,-152.64441,-243.4581,633.24054,-109.84577,-215.028,553.66132,-53.353,-162.56348,605.65588
14,0.108,-152.8748,-245.34666,632.14276,-110.34966,-216.55705,553.79559,-50.9367,-163.96391,603.98499
15,0.117,-152.79291,-246.5452,631.20367,-110.88651,-216.57329,553.63251,-51.10372,-165.25316,603.83997
16,0.125,-152.69296,-247.26132,630.03979,-111.08081,-216.75496,553.5979,-51.88498,-165.58836,603.57172
17,0.133,-152.54509,-249.90497,629.26385,-111.53443,-217.09193,553.39197,-55.81295,-165.52415,603.71387
18,0.142,-153.2473,-250.58516,628.8125,-111.53443,-217.09193,553.39197,-56.39343,-165.26521,603.30548
19,0.15,-153.39304,-250.93414,628.85345,-111.82659,-217.23517,553.56995,-56.80123,-164.59262,603.33197
20,0.158,-153.76782,-250.34538,629.19659,-112.44572,-217.17107,554.00226,-56.35967,-163.7034,603.82001
21,0.167,-155.17517,-248.69379,630.33368,-112.22243,-216.86707,554.30316,-57.44572,-161.50244,604.07513
22,0.175,-155.26132,-248.08513,631.51941,-112.25757,-216.85004,555.59692,-57.95103,-159.84512,604.61627
23,0.183,-156.00562,-247.18851,632.63147,-112.33275,-216.43904,556.26752,-59.66849,-156.90169,605.60925
24,0.192,-156.64253,-246.48903,634.02484,-112.53297,-216.43742,556.82196,-59.80575,-157.64903,604.65692
25,0.2,-157.95743,-244.09448,634.48273,-112.32926,-215.59572,557.5744,-62.06311,-155.25336,606.47125
26,0.208,-157.2914,-241.16965,635.56171,-112.52768,-215.18103,558.34668,-61.97878,-153.91902,607.64868
27,0.217,-157.19084,-240.61871,637.14417,-112.53239,-214.86874,558.93817,-63.00138,-152.27252,606.073
28,0.225,-157.70938,-240.26579,637.45026,-112.63052,-214.71892,559.39746,-63.24365,-151.68054,606.87231
29,0.233,-158.17723,-240.12253,637.78174,-112.45316,-214.05377,559.62067,-64.10788,-149.73022,606.90338
30,0.242,-158.18196,-239.5359,638.10956,-112.5668,-213.49065,560.26068,-63.87481,-148.786,607.21039
31,0.25,-157.74535,-238.90062,638.28064,-112.45286,-213.57521,560.43616,-63.88375,-147.79527,606.95557
32,0.258,-157.71564,-237.65395,638.26526,-112.30057,-213.19942,560.36597,-63.88375,-147.79527,606.95557
33,0.267,-157.29665,-237.43152,638.30194,-112.17088,-212.99899,560.21143,-63.76846,-147.54878,606.72229
34,0.275,-157.2562,-236.97046,638.01892,-112.28484,-212.91435,560.03589,-63.76846,-147.54878,606.72229
35,0.283,-156.67619,-236.91023,637.50116,-112.12476,-212.93634,559.90784,-63.55356,-148.13304,606.10498
36,0.292,-156.79813,-238.25598,637.70349,-111.68954,-213.08092,559.88702,-63.78507,-148.47005,605.68445
37,0.3,-156.48785,-238.78732,637.78625,-111.21342,-214.35757,559.31012,-61.95691,-151.42999,605.77643
38,0.308,-156.39618,-239.5685,637.6438,-111.25928,-214.64972,559.23633,-61.31124,-152.24501,606.07281
39,0.317,-156.37114,-239.94138,637.42096,-111.49986,-214.64786,558.46533,-59.67184,-154.74051,606.90491
40,0.325,-156.04758,-239.94624,637.40198,-111.0553,-215.43341,557.72485,-58.52079,-156.97701,606.33844
41,0.333,-155.30251,-240.57405,637.54065,-111.25188,-215.33859,557.50275,-55.70166,-158.63759,605.81158
42,0.342,-154.74347,-240.61856,637.0224,-111.55803,-215.50648,556.77173,-55.49984,-160.55196,606.20416
43,0.35,-154.55511,-242.04242,636.27716,-112.30775,-216.29013,556.54901,-56.33429,-161.13327,606.74622
44,0.358,-154.44626,-242.54852,635.43542,-112.33275,-216.43904,556.26752,-56.50827,-161.08067,605.56708
45,0.367,-154.69002,-243.87788,635.12408,-112.33393,-216.30666,555.86554,-55.14799,-162.72157,606.05176
46,0.375,-154.16888,-244.27205,634.86145,-112.14179,-216.33241,555.81378,-55.71786,-161.98889,605.53424
47,0.383,-154.09737,-244.82356,634.30188,-112.14179,-216.33241,555.81378,-56.4953,-160.88806,605.26953
48,0.392,-154.1338,-244.72488,634.20819,-112.33393,-216.30666,555.86554,-56.93652,-159.78937,604.94464
49,0.4,-154.38835,-244.7117,634.1369,-112.47216,-216.08615,556.40875,-57.31112,-159.629,605.06396
50,0.408,-154.51105,-244.00838,634.72052,-112.37617,-216.44481,556.70984,-58.35057,-157.41356,605.62213
51,0.417,-154.33485,-242.74539,635.24719,-112.42509,-215.74995,557.00513,-59.14568,-157.62073,604.67944
52,0.425,-154.96048,-242.02522,635.48138,-112.23504,-215.37346,557.3067,-59.33491,-157.56023,604.82874
53,0.433,-155.34201,-240.36235,636.32709,-112.09418,-215.15509,557.37,-59.25222,-156.07317,605.62048
54,0.442,-156.31093,-239.84674,636.87335,-112.38443,-214.01997,557.40918,-56.73526,-156.80693,605.41791
55,0.45,-156.62999,-240.21922,637.25031,-112.24589,-213.93236,557.70447,-59.57033,-155.53282,605.65381
56,0.458,-156.94028,-240.14218,637.34027,-112.1116,-214.70958,557.9447,-59.99314,-154.48634,606.09235
57,0.467,-156.69826,-239.25725,637.4444,-112.40272,-213.79208,558.18011,-59.99314,-154.48634,606.09235
58,0.475,-156.72411,-238.45667,638.04285,-112.40272,-213.79208,558.18011,-60.40995,-153.5386,607.50317
59,0.483,-156.70671,-238.47482,638.22003,-112.4659,-213.80899,558.32697,-58.97023,-154.82799,606.59875
60,0.492,-156.69795,-238.59439,638.21582,-112.29717,-213.51511,558.27667,-58.97023,-154.82799,606.59875
61,0.5,-156.58055,-238.47426,638.13141,-112.08135,-213.33482,558.1712,-58.28008,-154.55801,606.95593
62,0.508,-156.58055,-238.47426,638.13141,-112.08135,-213.33482,558.1712,-57.9221,-154.69624,606.85126
63,0.517,-156.24631,-238.64603,638.09863,-112.14455,-213.35173,558.31812,-57.9221,-154.69624,606.85126
64,0.525,-156.20303,-238.89516,638.06512,-112.08135,-213.33482,558.1712,-57.9221,-154.69624,606.85126
65,0.533,-155.67746,-239.20911,638.15198,-111.5854,-213.04697,557.95972,-57.82586,-155.29457,606.9408
66,0.542,-155.55737,-239.47456,638.06793,-111.5854,-213.04697,557.95972,-57.72198,-155.22531,605.84052
67,0.55,-155.55737,-239.47456,638.06793,-111.65621,-212.75031,557.6153,-58.18811,-156.70752,605.5177
68,0.558,-155.18864,-239.62683,637.93201,-111.5182,-212.48135,557.3595,-58.03468,-156.09694,606.43396
69,0.567,-155.06915,-239.88832,637.82135,-111.47706,-212.83461,557.08575,-58.03468,-156.09694,606.43396
70,0.575,-155.06915,-239.88832,637.82135,-111.34956,-213.18065,557.52917,-58.03468,-156.09694,606.43396
71,0.583,-155.00238,-239.53352,637.5943,-111.2656,-212.81409,557.55518,-58.03468,-156.09694,606.43396
72,0.592,-155.06915,-239.88832,637.82135,-111.4455,-212.79625,557.6485,-57.93636,-155.91731,606.72937
73,0.6,-155.06915,-239.88832,637.82135,-111.47309,-212.82481,557.82098,-57.96499,-154.97467,606.00867
74,0.608,-155.30365,-239.60336,637.80328,-111.80022,-212.81886,557.98212,-57.30439,-154.75597,607.02136
75,0.617,-155.8438,-239.44342,637.91754,-111.68584,-212.28351,558.11658,-57.65676,-153.98085,606.78381
76,0.625,-156.28461,-238.01443,638.06635,-111.76546,-212.33014,558.42944,-58.76551,-152.72061,605.99188
77,0.633,-156.36841,-237.93863,638.16827,-111.83823,-211.99207,559.21783,-59.70375,-150.08755,606.71326
78,0.642,-156.26358,-237.34949,638.51135,-111.83823,-211.99207,559.21783,-59.6147,-150.64841,605.48468
79,0.65,-156.20143,-236.0498,638.63934,-112.01849,-211.79543,559.37988,-60.54277,-149.96259,606.50305
80,0.658,-156.32715,-235.65297,638.86157,-112.17568,-211.78822,559.49219,-61.55335,-147.9218,607.41602
81,0.667,-156.59015,-235.44475,639.1908,-112.06895,-211.83704,559.63818,-61.49212,-147.77812,607.02661
82,0.675,-156.74364,-235.11232,639.03595,-111.94265,-211.75084,559.78748,-61.94565,-147.91345,606.89752
83,0.683,-157.22627,-234.97343,639.10931,-112.17568,-211.78822,559.49219,-62.63865,-147.02415,607.4585
84,0.692,-157.32352,-234.6991,639.10724,-112.36737,-211.9102,559.30426,-61.66467,-148.42696,606.11249
85,0.7,-157.34123,-234.67419,638.95557,-112.58595,-212.26364,559.42194,-61.40628,-148.33754,605.15491
86,0.708,-156.91649,-235.19368,638.43146,-112.50834,-212.23146,559.18494,-60.99059,-149.57474,605.10718
87,0.717,-156.99854,-235.6198,638.16376,-112.56335,-212.07169,558.77863,-60.79633,-150.61398,605.05823
88,0.725,-156.73221,-235.6008,638.00574,-112.28448,-212.85048,558.58423,-60.67859,-149.71536,605.65222
89,0.733,-156.60596,-235.60033,637.91711,-112.77335,-213.25806,558.5,-60.36875,-151.60448,605.76831
90,0.742,-156.58244,-236.05289,637.58112,-112.61371,-213.65184,557.78571,-59.56535,-155.05458,604.42212
91,0.75,-156.724,-237.19237,637.68457,-112.82311,-214.08629,557.14417,-59.9739,-155.54816,603.60022
92,0.758,-156.84602,-238.53839,637.88696,-112.80737,-213.79013,556.48798,-58.4443,-157.26926,604.13055
93,0.767,-156.69826,-239.25725,637.4444,-113.05,-214.13054,556.27222,-58.88019,-156.87668,605.45099
94,0.775,-156.85455,-239.56694,637.37927,-113.00801,-214.41743,556.43481,-57.84579,-158.4382,604.69128
95,0.783,-156.50966,-239.55031,636.99689,-113.05,-214.13054,556.27222,-57.84579,-158.4382,604.69128
96,0.792,-156.75827,-239.83009,636.83612,-113.00801,-214.41743,556.43481,-58.73166,-157.54855,603.94708
97,0.8,-156.05801,-239.83443,636.75513,-112.8287,-214.46613,556.51257,-58.4735,-157.26442,603.83771
98,0.808,-155.91582,-239.5089,636.64417,-112.40071,-214.24785,557.26263,-58.18589,-157.11949,603.98236
99,0.817,-155.91582,-239.5089,636.64417,-112.38443,-214.01997,557.40918,-59.29121,-155.05431,603.84888
100,0.825,-155.91582,-239.5089,636.64417,-112.10619,-213.45908,557.92883,-58.79134,-153.75204,604.2525
101,0.833,-155.71892,-239.2242,636.86157,-111.77389,-212.94997,558.60468,-60.2173,-149.30444,605.23828
102,0.842,-155.83075,-237.63258,636.69055,-111.70446,-212.62849,559.1441,-60.26842,-150.11929,604.69427
103,0.85,-156.09462,-236.77753,637.28845,-111.47946,-212.09,559.37335,-61.49805,-148.3212,604.8634
104,0.858,-156.28162,-235.44324,637.76654,-111.54955,-211.58119,559.86041,-61.87476,-147.46872,605.46027
105,0.867,-156.12791,-234.39114,637.82678,-111.4545,-211.02121,560.50641,-63.36916,-145.37375,605.15472
106,0.875,-156.42192,-233.36948,638.24908,-110.87095,-209.51962,560.73993,-62.58534,-145.3782,604.52496
107,0.883,-156.35033,-232.44246,638.6001,-110.24649,-209.80984,561.02789,-63.21889,-145.40579,604.70453
108,0.892,-156.53123,-232.37903,638.75726,-110.24649,-209.80984,561.02789,-63.97527,-145.32999,605.01855
109,0.9,-156.49512,-232.14549,639.01831,-110.68562,-209.64491,560.97668,-64.20618,-144.82901,605.10303
110,0.908,-156.4774,-232.17044,639.1701,-110.65056,-209.60695,560.78357,-64.0722,-145.27394,604.8476
111,0.917,-156.4774,-232.17044,639.1701,-110.755,-210.37836,560.54883,-63.6808,-145.46809,604.47925
112,0.925,-156.39632,-232.44936,639.17273,-110.85336,-212.22023,560.2832,-62.40078,-145.94409,604.11652
113,0.933,-156.08362,-232.42349,638.44189,-111.491,-212.62779,559.73572,-60.64324,-148.17856,603.67969
114,0.942,-156.06149,-234.41377,637.9585,-111.41287,-213.72398,559.15131,-59.51394,-149.04478,603.77307
115,0.95,-156.48724,-235.40671,637.56921,-111.95356,-213.29568,557.97021,-60.43379,-149.45987,605.13782
116,0.958,-156.52203,-236.58165,637.03284,-112.38443,-214.01997,557.40918,-55.54134,-155.24258,603.21063
117,0.967,-156.51442,-238.80983,636.80353,-112.60317,-214.74304,556.46838,-54.5015,-158.42476,604.20691
118,0.975,-156.12831,-239.54633,636.91467,-112.77391,-215.22957,555.77704,-58.20365,-158.29987,604.79553
119,0.983,-156.09848,-239.80936,636.60284,-112.86672,-215.35931,555.53394,-56.68876,-159.14136,605.9245
120,0.992,-155.34201,-240.36235,636.32709,-112.87897,-215.53027,555.42413,-56.94404,-161.55881,603.22168
121,1,-155.0706,-241.91116,635.41534,-112.87897,-215.53027,555.42413,-55.85149,-162.83357,603.33496
122,1.008,-155.15588,-242.67456,634.9165,-112.87897,-215.53027,555.42413,-55.81919,-163.03027,603.1156
123,1.017,-154.69566,-243.2571,634.81372,-112.7984,-215.57137,555.55737,-56.8219,-160.47971,603.41034
124,1.025,-154.49939,-243.32072,634.66986,-112.60784,-215.44725,555.73633,-56.93652,-159.78937,604.94464
125,1.033,-154.17342,-242.97192,634.97034,-112.33109,-215.55115,556.41309,-57.20225,-157.955,605.84918
126,1.042,-154.27438,-242.46481,635.20947,-111.77271,-215.02,557.56006,-58.22524,-157.1078,604.27545
127,1.05,-153.93153,-240.64284,635.71802,-110.98621,-214.41095,558.14691,-58.44751,-154.07541,604.78162
128,1.058,-154.4478,-240.24574,636.992,-110.76369,-213.84473,559.14716,-58.20654,-151.38574,605.39801
129,1.067,-154.40765,-239.50777,637.31458,-110.89591,-212.86871,559.87329,-59.6147,-150.64841,605.48468
130,1.075,-154.81363,-237.77213,637.77844,-109.84356,-211.65198,560.67236,-60.46732,-147.60454,606.41394
131,1.083,-155.38614,-234.62505,638.27045,-109.78017,-209.85571,560.85126,-60.44935,-147.13828,606.95148
132,1.092,-155.25226,-233.70407,638.91956,-109.34158,-209.91997,561.68396,-61.37472,-144.92424,606.15558
133,1.1,-155.75644,-232.25423,639.05786,-109.17886,-210.06845,562.0387,-62.54285,-143.03671,605.8725
134,1.108,-155.83966,-231.33734,639.6803,-108.97885,-209.67654,562.17847,-62.79227,-141.59985,606.19879
135,1.117,-155.70338,-231.2948,639.64429,-108.7487,-209.79105,562.49274,-63.00921,-139.95393,605.24176
136,1.125,-155.32219,-229.81006,639.71252,-108.60277,-209.55573,562.55658,-63.0687,-139.39859,605.17535
137,1.133,-155.32219,-229.81006,639.71252,-108.60277,-209.55573,562.55658,-63.91012,-138.51041,604.94208
138,1.142,-155.37775,-230.71245,639.3833,-108.77599,-209.77536,562.28925,-63.446,-139.47945,604.677
139,1.15,-155.07124,-230.76385,639.13306,-108.74121,-209.67917,561.76392,-63.33474,-140.14006,604.62482
140,1.158,-155.16225,-231.08188,639.06915,-108.8778,-209.73376,560.95862,-62.97456,-141.91832,604.72131
141,1.167,-154.75914,-232.16707,638.75421,-108.71818,-209.62059,560.29602,-61.15818,-145.23854,604.87567
142,1.175,-154.58255,-233.75261,638.02405,-108.70136,-211.02687,560.19604,-61.49771,-146.04654,605.10828
143,1.183,-153.69931,-234.23286,638.18317,-108.46615,-212.14648,559.3894,-60.12083,-148.59586,603.98572
144,1.192,-153.53621,-236.82353,637.78534,-109.17429,-213.5769,557.71948,-55.5454,-150.87965,604.55573
145,1.2,-154.02475,-239.19539,637.43018,-109.23073,-213.45071,556.8067,-53.36329,-154.8737,604.81628
146,1.208,-153.44077,-240.11943,636.75525,-109.37041,-213.66081,556.01996,-51.31763,-159.23666,605.0141
147,1.217,-153.01237,-240.33821,635.75037,-110.12396,-214.81703,555.02576,-50.80809,-160.78333,604.67157
148,1.225,-152.9068,-242.86133,634.43158,-110.50163,-215.18524,554.33154,-53.09644,-161.39394,603.31763
149,1.233,-152.62515,-243.41702,634.03784,-110.54205,-216.29247,554.15393,-52.7155,-163.38748,603.99792
150,1.242,-152.29486,-244.85356,633.35059,-110.64666,-216.56749,554.04669,-52.76354,-163.57945,603.77216
151,1.25,-151.66748,-245.50681,632.76178,-110.63033,-216.60236,554.21075,-53.29759,-162.84769,603.77783
152,1.258,-151.93373,-246.45654,632.59338,-110.62177,-216.66045,554.5011,-54.70103,-159.7832,603.24493
153,1.267,-151.70625,-245.96466,632.742,-110.04134,-216.04678,554.78064,-54.95424,-158.40656,604.784
154,1.275,-151.51538,-245.1953,632.83063,-109.96364,-214.69859,556.10706,-56.93124,-157.60855,603.88098
155,1.283,-152.02875,-243.19244,633.77856,-109.4105,-213.8304,556.83313,-56.93871,-156.30695,604.6394
156,1.292,-152.22672,-242.88638,634.38,-109.1073,-213.5659,557.31622,-57.246,-153.18077,604.92871
157,1.3,-152.51912,-239.88431,635.66644,-108.75641,-213.67252,558.9649,-59.43526,-149.56636,605.63757
158,1.308,-152.47324,-239.78725,636.65631,-108.42853,-211.7934,559.61353,-59.98678,-148.16734,604.98523
159,1.317,-152.9679,-238.08076,637.58429,-108.59655,-210.81664,560.27368,-60.34529,-146.82271,605.80566
160,1.325,-152.96753,-234.21776,638.29138,-108.35394,-210.7019,560.53223,-60.9133,-145.13435,605.80164
161,1.333,-153.46837,-233.56337,638.43512,-108.27076,-209.59683,560.61261,-61.64962,-143.74176,605.07611
162,1.342,-153.84227,-232.6297,639.14069,-108.10798,-209.7451,560.96747,-61.95461,-141.0455,604.7359
163,1.35,-153.9888,-230.80225,639.2616,-107.98003,-209.67137,561.58704,-62.75513,-140.08664,604.87805
164,1.358,-154.11078,-230.48495,639.1701,-107.75129,-209.77107,561.66644,-63.06452,-139.6044,604.66284
165,1.367,-154.11078,-230.48495,639.1701,-107.75129,-209.77107,561.66644,-63.09423,-139.81563,604.53229
166,1.375,-153.92188,-230.62718,639.4093,-107.45509,-209.81721,561.44995,-63.10534,-139.90585,604.58514
167,1.383,-153.25848,-230.99474,639.58832,-107.17305,-210.04597,560.87921,-61.54169,-141.42334,604.40143
168,1.392,-152.54871,-232.10379,639.18701,-107.00098,-211.19345,560.74634,-59.54968,-143.43457,604.02216
169,1.4,-152.20972,-232.59377,637.98474,-106.82389,-211.71471,560.33533,-60.26096,-144.99252,605.67059
170,1.408,-151.98537,-232.94412,637.95624,-107.03383,-212.04471,559.75189,-58.92696,-148.04991,605.14404
171,1.417,-151.36385,-234.17052,637.68817,-106.96977,-212.87723,557.55652,-56.67884,-150.84424,604.26935
172,1.425,-151.06741,-236.23811,637.76361,-107.16069,-212.97681,556.95746,-55.05729,-153.11893,604.80798
173,1.433,-151.32109,-238.1769,636.55835,-107.64025,-213.00955,555.98572,-53.93008,-155.59357,604.93561
174,1.442,-151.44647,-239.15604,635.49329,-107.88426,-213.54437,555.39545,-54.11819,-157.65231,604.51111
175,1.45,-151.07373,-240.73505,635.0318,-108.57069,-214.83775,554.90045,-53.45677,-159.20403,603.73505
176,1.458,-151.02505,-242.27255,633.91058,-108.79447,-215.80986,554.28363,-53.2148,-159.95946,602.87561
177,1.467,-150.88554,-244.55762,633.11237,-108.98882,-215.99141,554.24884,-53.87267,-160.3591,601.8363
178,1.475,-150.30362,-244.50436,632.05182,-109.15781,-216.28487,554.29932,-53.53474,-159.64809,601.98584
179,1.483,-150.14336,-244.47993,631.62585,-109.15781,-216.28487,554.29932,-54.00819,-159.3454,602.12628
180,1.492,-150.14336,-244.47993,631.62585,-108.96256,-216.12192,554.67517,-54.78565,-157.33377,603.91791
181,1.5,-150.31116,-244.45413,631.88123,-108.67998,-215.85347,555.37164,-56.62868,-155.66943,602.25531
182,1.508,-150.90923,-243.13202,632.84186,-108.58254,-215.01431,556.3656,-56.45072,-153.93878,602.25494
183,1.517,-151.03802,-242.18448,633.32074,-108.6865,-214.85442,557.21698,-57.77337,-153.31339,602.63501
184,1.525,-151.7753,-238.94191,634.8064,-108.47101,-214.04526,557.8949,-58.446,-149.92084,605.00763
185,1.533,-152.00113,-239.14026,635.36505,-108.85202,-214.04791,558.55359,-59.67362,-149.08162,604.63983
186,1.542,-152.5567,-238.86578,636.74213,-109.32481,-213.8344,559.534,-60.92638,-147.79565,604.13538
187,1.55,-153.2527,-235.44907,637.51727,-108.7103,-212.5907,560.5304,-60.72256,-147.15022,605.37274
188,1.558,-153.38208,-233.98743,638.13141,-108.5742,-211.84796,561.0802,-61.23743,-145.30917,605.60742
189,1.567,-154.11031,-233.77357,638.56708,-108.14165,-211.04057,560.67401,-59.83187,-145.6443,604.59039
190,1.575,-153.80656,-233.18184,638.66772,-108.23998,-210.78668,560.70789,-61.53647,-143.48755,604.62964
191,1.583,-153.80656,-233.18184,638.66772,-108.27587,-209.65036,560.82599,-62.37885,-142.18008,604.93872
192,1.592,-153.80374,-232.08714,639.10193,-108.10798,-209.7451,560.96747,-62.19248,-140.96153,604.77618
193,1.6,-153.02194,-232.3344,638.74561,-108.10798,-209.7451,560.96747,-62.16116,-141.17422,604.31818
