Frame#,Time,L.Forearm.x,L.Forearm.y,L.Forearm.z,L.Ulna.x,L.Ulna.y,L.Ulna.z,L.Radius.x,L.Radius.y,L.Radius.z
1,0,233.59506,140.24017,1207.18115,315.25162,177.55641,1240.703,339.17361,68.94641,1228.401
2,0.008,233.63707,142.46712,1208.61072,313.83221,178.48114,1241.54932,338.4487,71.90936,1230.73633
3,0.017,233.56419,142.92175,1210.48767,313.16864,180.50066,1244.20447,337.47205,72.35279,1233.58374
4,0.025,233.30479,144.81786,1212.39624,312.77182,182.13692,1246.18884,338.07669,74.45296,1234.88391
5,0.033,233.19771,146.87268,1214.45789,312.61481,183.57207,1247.38037,338.297,76.85397,1236.73523
6,0.042,231.95404,148.4081,1215.12073,311.44183,186.85568,1250.29675,338.06323,79.28328,1239.3241
7,0.05,231.46722,148.914,1216.84167,310.52039,188.29796,1252.04431,337.98465,81.39368,1241.54602
8,0.058,230.58421,149.71405,1218.62976,309.82605,189.7151,1253.8092,337.11597,82.12115,1243.61182
9,0.067,231.30585,153.09956,1219.76929,308.57825,192.01434,1256.33618,335.71619,81.24422,1245.53101
10,0.075,229.49855,155.80594,1222.23401,307.93039,194.0714,1257.96704,337.33838,87.7877,1248.17859
11,0.083,229.59518,155.97069,1222.99292,307.54865,197.03737,1259.53931,336.45474,89.48577,1249.16956
12,0.092,229.17934,157.07803,1224.5968,306.7543,198.08702,1261.36694,336.73862,91.56304,1251.88635
13,0.1,229.26857,159.4355,1226.61719,305.87317,200.03883,1263.87585,336.49088,92.42005,1254.12195
14,0.108,229.33888,160.80339,1228.82092,305.28452,202.39423,1264.93774,336.14835,95.58649,1255.6803
15,0.117,228.14128,161.91054,1228.9043,304.78577,205.38147,1267.01099,336.47372,100.65524,1257.5769
16,0.125,227.95712,165.22507,1230.30493,303.91516,206.45888,1268.31396,336.10602,102.08964,1259.65051
17,0.133,228.04137,166.33553,1232.10327,302.58286,209.44653,1269.87866,336.55588,103.39852,1261.34412
18,0.142,228.02898,167.99232,1233.95911,301.42352,210.9453,1271.35632,335.22968,106.2639,1262.57507
19,0.15,226.18451,170.27518,1234.91223,301.16638,213.88371,1272.78015,334.62115,108.02874,1264.73462
20,0.158,226.29697,171.87645,1235.22974,300.65897,214.98476,1273.68713,335.16797,110.6234,1265.93445
21,0.167,225.76012,175.17151,1236.98328,299.60114,218.87848,1276.0603,334.48154,112.23561,1267.29065
22,0.175,225.01176,175.7569,1237.43542,298.63791,219.94983,1277.08923,333.9704,115.91721,1268.81042
23,0.183,223.83423,178.03384,1239.41321,297.47842,222.85666,1277.98401,334.34946,118.12159,1269.73169
24,0.192,224.35536,179.83881,1239.99658,297.18567,224.85448,1279.37598,334.32846,120.71174,1271.92419
25,0.2,223.62831,180.91631,1240.4021,296.70099,227.67458,1280.53296,334.31458,123.64854,1273.24158
26,0.208,224.51581,184.1675,1242.38025,296.36142,229.84761,1281.78442,333.03625,127.01601,1274.12683
27,0.217,224.11728,185.74504,1242.14832,294.76767,231.41502,1282.53784,333.28696,127.68337,1275.97168
28,0.225,222.44414,188.13075,1243.25427,293.39673,234.23473,1283.47644,333.62619,131.95224,1277.20386
29,0.233,221.942,190.19273,1244.31726,293.56482,236.40712,1284.20862,333.0354,133.74704,1278.5459
30,0.242,221.84183,190.98611,1245.18713,292.99069,239.36423,1285.40222,332.32245,134.83405,1279.11011
31,0.25,221.11,193.19551,1245.99561,291.59198,241.50873,1286.35864,333.23871,139.33327,1280.74768
32,0.258,222.20915,194.96286,1247.13879,291.12067,244.04535,1286.99841,333.48611,140.86896,1282.17847
33,0.267,220.92776,197.01228,1247.36816,290.18933,247.06841,1287.94385,332.02856,143.67085,1282.67041
34,0.275,221.57805,199.02187,1247.6991,290.10159,248.9108,1288.5105,332.35181,146.38757,1283.85864
35,0.283,221.81931,200.78233,1248.6145,289.38574,251.92471,1289.13098,332.32022,149.00484,1284.45349
36,0.292,219.57137,202.71304,1249.19482,288.84103,253.12773,1289.74207,333.4913,151.78,1285.32727
37,0.3,219.28688,204.50198,1249.76868,288.81015,256.14926,1289.74194,331.87668,153.35201,1285.79126
38,0.308,219.43169,206.75414,1249.50867,287.22012,257.99783,1291.19678,331.56216,155.98599,1286.5033
39,0.317,219.26294,208.34987,1250.12256,286.54666,260.63214,1291.26807,332.93262,159.12228,1287.41846
40,0.325,218.25352,211.07294,1250.70264,285.50903,262.71356,1291.68433,332.19394,161.9948,1288.3053
41,0.333,218.11458,211.33185,1250.43652,284.85486,264.42215,1292.2854,331.1246,164.27962,1287.90234
42,0.342,218.42488,214.11981,1250.2406,285.07397,268.26724,1292.1698,331.68222,166.53879,1288.06287
43,0.35,218.60931,216.89194,1251.46924,284.77335,269.53705,1291.69714,332.3158,170.60921,1288.57178
44,0.358,217.47034,219.52234,1251.74597,284.19644,272.17426,1292.18103,331.17841,172.15437,1288.505
45,0.367,217.51308,220.38853,1251.93701,283.59869,275.0163,1292.66113,331.29224,175.66962,1288.854
46,0.375,217.04367,221.91226,1250.79407,283.20599,276.50134,1292.93738,332.08026,176.87447,1289.57141
47,0.383,217.52211,224.09798,1251.11438,282.17114,278.7229,1292.89844,332.35117,180.47163,1289.21521
48,0.392,216.37936,226.39836,1251.95496,282.34613,280.22079,1292.40222,331.58911,182.36954,1289.16663
49,0.4,216.85045,229.36749,1251.26208,281.92941,284.50055,1293.22095,331.465,184.61832,1289.81482
50,0.408,216.4189,230.32953,1251.56836,282.16162,286.60031,1292.62708,332.1723,188.20769,1289.80249
51,0.417,216.58348,231.4516,1251.04614,279.87207,288.25266,1292.27905,331.79657,189.60837,1289.14795
52,0.425,216.70998,234.18028,1250.17163,279.57477,290.73953,1292.09521,332.43396,193.5498,1288.68591
53,0.433,216.16397,236.37421,1250.41528,278.96609,292.89642,1291.87695,332.33649,195.73482,1288.80981
54,0.442,215.85892,237.58211,1250.48035,278.93616,295.5213,1291.84521,333.04843,198.24199,1288.19751
55,0.45,215.91907,239.22211,1250.00366,279.09662,297.17346,1290.98596,332.3992,201.14308,1288.14453
56,0.458,215.50467,242.3856,1250.83118,278.17615,300.58774,1291.50427,333.18372,204.51013,1287.78467
57,0.467,215.71777,243.05913,1250.13696,277.72824,302.79077,1291.14124,333.87231,206.79988,1287.27576
58,0.475,214.86169,245.61658,1249.1189,278.42456,304.84808,1290.63037,333.08652,207.69337,1287.3833
59,0.483,215.53214,247.65067,1249.37183,277.94724,306.70996,1289.47961,333.00186,211.87854,1286.62964
60,0.492,215.70244,249.63307,1248.63257,276.94772,308.90106,1289.45496,333.27463,214.1384,1287.76294
61,0.5,215.85567,250.0157,1248.18018,276.41724,311.59326,1288.14319,333.42078,216.64308,1287.52759
62,0.508,215.56041,252.90486,1247.10913,276.10098,314.12885,1287.61182,333.6586,219.3439,1286.33972
63,0.517,214.53305,254.99919,1246.55493,275.66946,316.13623,1286.63879,333.39709,222.37169,1285.11377
64,0.525,215.22487,257.20978,1246.91101,275.49771,318.21851,1286.28748,333.20279,223.84818,1285.07178
65,0.533,215.87943,259.57748,1246.48889,275.73315,321.46201,1286.25439,333.79373,227.79181,1285.01331
66,0.542,215.08437,260.21201,1246.04419,275.26581,323.06952,1285.29871,334.11987,229.43568,1284.68298
67,0.55,214.17265,263.91132,1246.13,273.8895,325.20374,1284.81848,333.33572,231.55188,1283.97925
68,0.558,213.95674,265.62256,1244.84875,274.24933,327.21997,1284.71643,333.52689,235.78362,1283.66565
69,0.567,214.32872,267.12811,1244.81763,274.14603,329.83652,1283.2124,333.79938,237.54877,1282.42163
70,0.575,215.25473,269.23331,1243.99841,272.84375,331.80032,1282.45007,334.78235,239.76997,1281.0752
71,0.583,215.42332,271.755,1243.78467,272.30215,333.75534,1281.86096,334.48428,242.84875,1280.61707
72,0.592,214.43558,272.83453,1243.15076,272.05008,336.84644,1281.06238,334.88477,245.5527,1279.88867
73,0.6,214.06873,273.66611,1241.83508,272.98306,338.45926,1280.54724,335.58002,248.08585,1279.32874
74,0.608,214.70726,276.16605,1241.81323,271.89719,341.87985,1279.51538,335.48422,250.11705,1278.39038
75,0.617,215.10678,277.87234,1240.59753,271.22479,343.77853,1279.18213,335.34567,252.09857,1277.80701
76,0.625,215.76173,279.32306,1239.6106,271.05099,345.2756,1278.30542,335.89301,254.94789,1277.10925
77,0.633,214.62787,283.44931,1237.83118,270.84705,347.92252,1276.93542,335.62366,257.89404,1276.74036
78,0.642,214.4238,283.89377,1236.9967,270.76917,349.8511,1276.15552,335.80634,259.65231,1275.02905
79,0.65,214.54355,286.59213,1236.40454,270.39987,352.2934,1275.17883,336.09436,261.40787,1272.65918
80,0.658,215.43788,287.84613,1235.44116,269.68875,354.67123,1273.98694,335.4982,265.81519,1272.56458
81,0.667,216.16263,288.60269,1234.66455,269.64691,356.15494,1272.95129,336.04321,266.93503,1271.81396
82,0.675,215.37892,290.63315,1233.96143,269.72534,358.44788,1270.90393,336.28604,269.19727,1270.67859
83,0.683,215.20528,291.68564,1233.26111,269.64786,360.33334,1269.93701,337.57919,273.24277,1268.73181
84,0.692,214.78372,292.83279,1232.51733,270.02808,362.99921,1268.92468,336.70688,273.9957,1268.57458
85,0.7,214.52039,294.05731,1231.85486,269.60202,365.22012,1267.71973,336.91287,278.03369,1266.34802
86,0.708,215.17873,296.6373,1230.73047,268.82059,367.64066,1266.71106,337.16089,279.7764,1265.5647
87,0.717,214.19066,298.3204,1229.62708,268.31808,368.6713,1265.01917,336.82587,283.75244,1264.2478
88,0.725,213.87602,301.90036,1229.63074,269.04523,371.73022,1263.41748,336.15012,284.32697,1263.00806
89,0.733,214.06129,301.16312,1227.43848,268.66437,374.01831,1262.48376,337.22263,286.14084,1261.20618
90,0.742,214.08904,301.4537,1226.99573,268.21313,375.30038,1260.2616,337.98834,289.89941,1260.04395
91,0.75,214.58807,307.64499,1226.4856,268.02441,378.03171,1258.66394,338.34036,292.4368,1258.90161
92,0.758,214.67429,308.52829,1225.08337,267.58292,379.48209,1257.69714,337.65771,295.53909,1257.33044
93,0.767,213.93163,311.3801,1223.09033,267.39755,381.87302,1256.15552,338.51233,297.55139,1255.77686
94,0.775,213.80862,312.54156,1221.84021,267.41409,384.44458,1254.97144,338.82086,299.71722,1253.93237
95,0.783,213.41916,313.71051,1219.79248,267.49152,386.26367,1252.28699,339.2135,301.50363,1253.06702
96,0.792,214.20799,316.33176,1219.14856,267.38715,388.23428,1250.76733,338.77396,305.37363,1251.23865
97,0.8,214.89853,318.13733,1217.83777,266.88956,390.88535,1249.64185,339.02048,307.38953,1249.17395
98,0.808,214.03699,319.08441,1217.15369,267.0267,392.0434,1247.61462,339.05466,308.7648,1247.33252
99,0.817,213.52292,320.59717,1215.57239,266.04279,394.16776,1245.5658,340.00357,311.33777,1246.4635
100,0.825,213.33463,323.42117,1213.41309,266.69766,396.69598,1243.82361,340.33813,313.75143,1245.01038
101,0.833,214.67096,324.29382,1212.69946,266.40616,398.81729,1241.61316,339.61765,315.62582,1240.78723
102,0.842,215.90758,327.8327,1211.82544,265.80692,400.74741,1240.01611,340.05374,318.20642,1239.83411
103,0.85,214.73827,328.89096,1209.57825,265.86093,402.48364,1238.10815,339.8847,320.57632,1237.87012
104,0.858,214.75368,329.24844,1206.77271,265.55386,404.49939,1234.74084,340.5293,322.58704,1236.31958
105,0.867,214.57185,330.2673,1206.33142,265.45081,406.30185,1233.57507,340.77481,324.93546,1232.56494
106,0.875,214.56813,333.87262,1203.9082,264.73795,407.24896,1231.67834,340.05173,325.95105,1231.32275
107,0.883,213.87404,333.47275,1202.11646,264.75372,409.23508,1228.70264,340.32462,329.0051,1228.5293
108,0.892,215.61142,335.84821,1201.30811,265.95276,411.68533,1227.26343,341.05344,330.98138,1226.22717
109,0.9,214.24153,337.86145,1198.15271,264.78198,413.72791,1224.16223,341.84763,333.10962,1223.5625
110,0.908,214.84698,339.34799,1197.06335,265.2124,414.49716,1221.9801,341.35294,335.51831,1220.73877
111,0.917,214.59534,341.06259,1195.24194,264.30045,416.60645,1220.27966,341.14996,337.15869,1219.48083
112,0.925,214.83955,342.14886,1192.55774,263.66776,418.936,1217.22314,341.89914,338.01099,1215.52344
113,0.933,215.2791,343.06326,1190.5531,264.3663,420.36136,1215.15271,343.46051,341.36716,1214.54541
114,0.942,215.4843,343.15344,1189.47949,264.2179,422.64661,1213.03967,342.88885,342.73288,1212.37329
115,0.95,214.55339,345.65298,1186.90662,264.41119,423.6308,1210.2218,342.0246,344.9043,1207.77075
116,0.958,214.91,348.05029,1186.07129,263.92444,425.50787,1207.91602,342.83688,347.59946,1206.9967
117,0.967,216.00665,348.47568,1182.50037,263.8161,426.31625,1204.85522,343.26483,348.53589,1205.07434
118,0.975,216.01134,350.90012,1180.84473,264.25616,428.09729,1202.1925,342.55667,349.58429,1201.18457
119,0.983,216.47212,351.44516,1179.12354,263.47803,429.43585,1200.34412,342.9744,352.53329,1198.21069
120,0.992,215.68114,352.24637,1176.00635,263.20688,431.30664,1197.27319,341.98679,353.38004,1195.81506
121,1,215.92419,354.06546,1173.82043,262.89249,432.41617,1194.97815,343.18173,355.76953,1193.28796
122,1.008,215.86359,354.74655,1172.99988,263.37457,433.05273,1192.43347,342.89392,357.01981,1189.90454
123,1.017,213.98711,357.56165,1170.00098,263.42746,434.67297,1188.83813,343.10095,359.14386,1187.26587
124,1.025,215.85295,357.38943,1167.56848,263.11328,435.98053,1186.93542,342.81927,359.02844,1185.22876
125,1.033,215.69632,357.85059,1165.05298,261.37845,440.07968,1182.32581,342.99924,362.01636,1181.71851
126,1.042,215.18236,358.81088,1162.48413,261.06818,440.98062,1180.28638,343.14136,363.02759,1177.97205
127,1.05,215.0377,359.46097,1160.49927,261.32355,442.53387,1178.14429,343.36658,364.56915,1175.59912
128,1.058,215.02267,362.34018,1158.07642,261.54401,443.17004,1174.422,343.44907,366.27698,1172.91211
129,1.067,215.58858,362.69348,1155.60913,261.20651,444.30756,1172.47388,343.66669,366.14767,1169.92529
130,1.075,214.89395,364.80859,1152.40247,261.19324,445.35562,1168.66663,343.8746,369.61472,1166.61975
131,1.083,215.4281,365.05307,1151.69128,260.996,446.00305,1166.35303,343.97333,370.83466,1162.32788
132,1.092,215.0795,366.12122,1148.35767,260.73248,447.25073,1163.35571,344.22348,371.25681,1159.63403
133,1.1,215.55289,366.49557,1144.97412,260.95096,448.46951,1159.44336,344.24936,371.59839,1157.25781
134,1.108,215.0652,367.49704,1142.95117,260.875,449.12421,1156.51843,344.30798,372.20087,1153.87329
135,1.117,214.92476,368.07703,1140.99805,260.28595,450.03378,1153.54187,343.68085,373.79276,1150.70544
136,1.125,217.92383,367.78629,1137.29956,260.90195,451.63202,1150.39929,345.2056,374.88687,1147.46204
137,1.133,216.05165,369.28784,1135.73047,260.93698,451.51599,1147.43994,344.03372,376.15942,1143.98621
138,1.142,217.65033,370.41055,1133.36511,260.60928,452.89667,1144.00146,344.29852,377.74731,1140.6366
139,1.15,217.13533,370.98434,1129.30908,260.80347,453.39801,1141.8833,343.70062,379.01205,1136.96826
140,1.158,217.69659,370.70935,1126.79761,260.75284,453.84219,1138.55139,344.09024,379.00876,1134.10596
141,1.167,217.18997,371.6189,1124.98438,260.77301,454.56628,1135.073,344.31345,379.62546,1129.85242
142,1.175,216.73761,372.57248,1121.99792,260.44168,453.90765,1132.05798,344.96799,379.41168,1126.93958
143,1.183,216.33253,371.4697,1118.85229,260.81161,455.23419,1128.2533,344.13181,380.82437,1123.98511
144,1.192,216.3196,374.25635,1116.87073,260.81055,455.91821,1124.91443,344.52557,380.55713,1119.77905
145,1.2,216.14067,374.08112,1114.08484,261.44534,455.95636,1122.04468,343.67233,381.513,1117.83118
146,1.208,215.24228,373.39496,1111.60266,261.12906,456.11011,1118.552,344.32782,382.58652,1112.89001
147,1.217,215.41812,374.8887,1109.3313,261.03293,458.15518,1115.30542,344.29761,381.91125,1109.17493
148,1.225,214.13074,374.53137,1106.53638,260.93167,457.52655,1112.2052,343.9025,383.6196,1105.84961
149,1.233,215.83194,374.12207,1102.58618,261.6452,458.43002,1108.26648,344.42889,383.01343,1102.45898
150,1.242,215.52264,375.43716,1100.26074,261.43976,458.20914,1105.51526,343.91455,382.91229,1097.59705
151,1.25,215.27687,375.39462,1097.55518,261.34323,458.98013,1102.09937,345.11816,383.62131,1095.28979
152,1.258,215.57431,375.61273,1094.71313,261.01627,458.33539,1099.15173,344.37384,383.00458,1090.87439
153,1.267,216.02545,375.0441,1091.42834,261.37027,458.32144,1095.43713,345.12256,383.57281,1087.59924
154,1.275,215.40474,375.09109,1088.99133,262.77521,458.35367,1090.47375,345.6481,382.66788,1084.24109
155,1.283,215.71532,374.58118,1085.84534,262.90195,457.37518,1086.21045,345.16367,383.04904,1080.59143
156,1.292,215.39162,375.65805,1083.0094,262.55283,457.49463,1083.17773,345.0575,383.38687,1076.63574
157,1.3,215.4745,374.27374,1080.39453,263.33487,457.31223,1079.85156,345.32687,382.67282,1072.50537
158,1.308,215.70969,375.12497,1078.19507,263.09906,457.81024,1076.6167,345.29922,382.91312,1070.37537
159,1.317,215.82002,375.27228,1074.3418,263.34897,457.15164,1073.71106,345.75745,383.14944,1066.46277
160,1.325,216.96262,374.45609,1073.01038,263.57214,457.21622,1069.74194,345.46814,382.71198,1063.41931
161,1.333,217.32649,373.271,1070.35974,263.30563,456.9054,1067.05103,345.888,382.05246,1060.05249
162,1.342,217.78439,373.90472,1067.80786,264.01852,457.31152,1063.65405,345.01669,382.42139,1055.99475
163,1.35,216.78401,373.52206,1064.58057,263.59625,457.48248,1060.15967,344.50052,382.29797,1053.55408
164,1.358,217.84741,374.27335,1062.38,265.91818,457.97702,1057.56812,344.62231,381.29834,1049.38354
165,1.367,217.33862,372.74228,1058.42029,263.89673,456.95898,1053.89771,344.85458,381.49054,1045.79395
166,1.375,217.67879,373.1106,1057.31177,265.19171,457.43518,1052.21082,344.79779,380.27408,1043.88281
167,1.383,217.3707,372.84229,1054.55518,263.77057,455.85144,1047.6427,345.22125,380.00992,1039.83923
168,1.392,216.91258,372.61374,1051.86475,265.63101,456.68225,1045.77295,344.79865,379.05756,1038.67603
169,1.4,217.87059,371.69464,1050.09485,264.68393,454.60388,1042.17358,345.22653,379.48782,1033.84009
170,1.408,217.82343,372.17419,1047.25342,265.80164,455.26334,1040.03772,344.23691,379.58084,1031.76416
171,1.417,217.45299,371.13062,1044.70068,264.69489,452.75238,1036.9314,345.19733,378.84937,1027.98975
172,1.425,216.9855,371.10214,1042.90918,265.28275,453.36615,1033.6991,344.80112,378.87134,1024.16406
173,1.433,217.77426,370.71246,1041.57568,266.29407,453.50183,1031.57971,344.0813,376.52554,1022.11957
174,1.442,217.66301,369.69464,1038.56079,265.40527,451.97253,1028.81592,344.95139,377.31711,1019.01337
175,1.45,217.7374,369.33572,1036.68616,266.8905,452.94775,1026.16455,344.15509,375.4118,1017.24188
176,1.458,217.71429,369.3674,1034.39209,264.31113,451.65643,1023.50604,345.08319,376.52948,1012.94305
177,1.467,218.21315,369.02567,1033.34424,266.4025,451.47528,1020.30627,343.83777,373.59598,1011.62793
178,1.475,218.18338,367.05289,1029.64575,265.79434,451.04657,1018.89832,343.80164,375.08118,1008.01001
179,1.483,218.55247,367.02637,1027.65161,266.49982,450.4205,1015.60065,344.12335,374.33075,1005.48053
180,1.492,219.29759,367.57779,1026.73193,266.75574,449.884,1013.05243,344.46661,374.6861,1002.22931
181,1.5,218.30942,365.57782,1024.36792,266.01202,449.98169,1011.1806,344.55783,371.0946,1000.90442
182,1.508,218.66173,365.68384,1022.81519,266.72354,449.93002,1007.95923,344.79312,370.54932,998.51959
183,1.517,218.37157,364.39133,1019.62427,267.25198,447.92068,1006.00439,344.04269,369.17059,996.1394
184,1.525,218.44043,363.84647,1018.82806,266.90506,446.66544,1004.79095,344.56839,369.53656,994.74042
185,1.533,218.28644,363.27533,1017.41882,266.24539,445.94537,1000.98798,344.3768,368.85468,991.1402
186,1.542,217.99681,362.43808,1014.37946,266.31754,444.70029,1000.00873,344.0575,366.22397,990.08081
187,1.55,218.52196,362.73041,1013.80737,266.00964,443.62216,997.09082,344.92419,364.71936,986.75336
188,1.558,218.45357,361.67816,1011.45844,266.62674,443.17352,995.68018,343.85312,364.09286,985.46991
189,1.567,219.09445,361.14664,1009.9577,267.33197,443.19278,992.68719,343.90704,362.36102,983.6214
190,1.575,218.3567,360.49509,1008.63782,266.81625,443.26187,991.19958,343.92032,362.82489,981.28937
191,1.583,219.68544,359.30255,1007.56116,266.85837,441.86276,989.24652,343.69281,362.24649,978.58997
192,1.592,219.44867,359.38184,1005.32159,267.57788,440.48099,986.93524,344.19171,361.58578,977.3205
193,1.6,219.61424,358.53497,1004.27924,267.71002,439.64905,984.5719,343.09009,360.45276,974.96674
194,1.608,219.60283,357.68921,1002.5202,267.09293,438.56366,983.12897,342.78738,358.24692,973.36743
195,1.617,219.16486,356.1843,1000.82434,266.50055,437.47632,982.39508,342.44702,356.87823,971.0498
196,1.625,219.34587,355.38565,999.95221,267.14923,436.3342,979.4328,342.26822,356.12381,969.15936
197,1.633,218.66927,355.47656,998.20709,266.66367,435.97681,977.80084,342.65097,355.82635,966.94238
