Frame#,Time,R.Forearm.x,R.Forearm.y,R.Forearm.z,R.Ulna.x,R.Ulna.y,R.Ulna.z,R.Radius.x,R.Radius.y,R.Radius.z
1,0,1785.94275,285.09222,1063.90894,1819.45581,360.0856,1001.66742,1784.94141,299.30316,920.25397
2,0.008,1784.03015,286.8364,1063.78442,1815.23352,361.4267,1001.31342,1776.26318,300.73358,920.43213
3,0.017,1776.05603,287.46405,1063.38586,1810.30042,363.43085,1000.79791,1769.62939,298.60995,919.39276
4,0.025,1771.95923,288.19681,1062.64343,1803.82141,364.59903,999.77679,1767.0907,299.83847,919.40472
5,0.033,1766.42004,292.26526,1060.87891,1797.83325,365.27783,998.58295,1760.96521,302.33569,919.05011
6,0.042,1760.79211,293.28571,1059.92944,1791.84216,367.68405,998.32916,1752.81714,305.07642,915.84967
7,0.05,1752.89709,293.90799,1059.53906,1786.98474,369.62363,998.37555,1745.52649,307.83481,915.35785
8,0.058,1745.76855,295.88208,1059.1748,1779.7085,370.02676,997.04956,1741.47437,307.63327,915.85559
9,0.067,1741.74609,295.53369,1057.70984,1772.87891,371.4429,995.24127,1737.67883,309.19998,914.48175
10,0.075,1734.41675,298.44351,1056.32751,1765.65002,373.9809,994.38434,1731.11121,312.34259,913.40997
11,0.083,1728.46021,302.02271,1053.54346,1760.22864,377.14453,993.70508,1722.88245,313.16379,910.85321
12,0.092,1721.48901,303.90796,1052.37671,1754.87573,379.40549,991.68182,1715.35461,314.94162,909.95258
13,0.1,1714.46289,305.88116,1052.02588,1748.2168,381.13882,988.69244,1708.49231,316.95193,909.63953
14,0.108,1706.30872,307.61685,1050.88928,1739.83459,383.07291,987.2851,1700.2196,317.6142,906.08008
15,0.117,1701.03076,308.68338,1047.49829,1731.9613,385.84052,985.44879,1693.40601,320.33679,904.70978
16,0.125,1693.10474,309.30219,1046.48792,1724.48401,386.71964,984.05109,1686.22595,323.26047,903.83435
17,0.133,1684.44678,312.92413,1043.32935,1717.87891,388.44781,981.5282,1678.63452,323.88599,899.58228
18,0.142,1678.84375,317.42865,1040.87073,1709.24341,392.81088,977.75897,1671.93555,325.89828,898.53979
19,0.15,1671.77527,319.44177,1038.00659,1702.43884,394.68707,976.2149,1663.85547,330.19589,895.513
20,0.158,1662.94043,322.97327,1036.15149,1694.58472,397.31644,973.41541,1656.65442,331.03836,893.60095
21,0.167,1656.70679,325.61929,1032.95691,1686.32971,399.92508,970.37567,1648.80273,333.72748,889.61646
22,0.175,1650.43188,327.46643,1029.6676,1679.40869,401.89728,968.79993,1641.36987,338.10236,888.33838
23,0.183,1642.93335,329.99414,1029.73279,1671.77307,402.71219,966.95038,1633.45911,339.39993,888.05426
24,0.192,1633.65784,330.59,1029.03638,1665.23535,404.44574,965.6532,1626.46753,341.98627,886.41132
25,0.2,1625.91248,334.49982,1027.37268,1657.69849,408.08408,964.74963,1618.92737,344.10315,884.61108
26,0.208,1619.18958,336.47141,1027.06396,1650.60718,409.77881,964.03247,1610.9281,346.41492,884.59967
27,0.217,1610.71716,335.7959,1027.1377,1643.36609,410.20328,963.14166,1600.47021,347.6301,884.67169
28,0.225,1603.35156,338.32239,1027.20947,1636.4303,410.78033,963.15967,1593.10437,347.55142,883.59479
29,0.233,1595.68665,340.15714,1026.52307,1629.54614,413.36642,963.13013,1586.34497,349.53189,883.76013
30,0.242,1589.52576,342.39005,1027.49829,1622.203,415.68588,963.47186,1578.83789,349.93466,883.63721
31,0.25,1581.72351,342.97134,1025.90857,1614.12402,416.24887,963.62988,1571.99536,351.29581,884.03369
32,0.258,1575.89111,342.00873,1028.41296,1605.69934,416.32712,963.49969,1562.21362,351.63049,884.7666
33,0.267,1569.31714,343.98087,1028.10974,1598.07495,417.46063,963.85889,1558.73438,353.38242,885.7807
34,0.275,1560.98352,345.42157,1030.48145,1591.46912,417.8313,964.12225,1552.88647,352.83875,887.22266
35,0.283,1553.24243,348.06903,1031.44763,1582.59717,419.97913,965.69458,1546.66199,354.4762,887.49988
36,0.292,1547.52771,347.56161,1031.80579,1575.38831,421.41983,966.16907,1537.29138,353.89786,889.47858
37,0.3,1539.72668,349.00919,1032.13342,1567.47705,422.01099,967.57599,1529.32837,354.06223,890.02826
38,0.308,1533.24731,350.29205,1034.25439,1560.11682,423.3894,967.36932,1524.68518,353.09778,891.14044
39,0.317,1525.31055,350.91641,1035.70923,1551.2229,423.40369,968.42023,1517.44861,354.61191,890.42712
40,0.325,1517.89258,353.36853,1036.45337,1544.17358,425.92136,970.10352,1510.15173,354.54132,892.08716
41,0.333,1510.55347,355.17734,1037.36267,1535.65247,427.047,970.30554,1503.75769,358.43411,893.91693
42,0.342,1503.59924,355.10764,1038.31763,1528.24207,427.18527,970.8407,1495.04236,357.93475,893.67645
43,0.35,1496.58679,355.99799,1039.47168,1520.81006,428.8147,971.33984,1487.40796,357.56647,893.20544
44,0.358,1488.65857,357.25449,1039.13745,1512.73328,429.02689,972.04236,1479.91418,357.63437,894.47296
45,0.367,1482.67676,357.17334,1040.86865,1504.17236,430.24484,972.89362,1473.32971,359.25012,896.16132
46,0.375,1475.26807,358.65948,1041.62415,1496.73389,431.90479,972.97723,1464.84888,359.32718,896.3551
47,0.383,1467.71301,359.72708,1041.63208,1489.21436,433.06387,973.50867,1456.51221,359.31094,897.04291
48,0.392,1460.50317,360.12567,1041.34497,1482.56897,433.34192,973.71674,1451.68689,362.25119,896.35309
49,0.4,1454.31067,361.31348,1041.96118,1474.51672,434.29742,974.03381,1443.47559,362.56125,897.71228
50,0.408,1446.36768,361.41672,1041.62048,1466.54126,434.42542,973.83899,1434.51355,362.3761,898.15515
51,0.417,1438.91687,360.99335,1042.13623,1459.02112,434.88428,973.91132,1428.99475,362.08533,898.73877
52,0.425,1431.96216,361.70624,1042.50793,1452.98853,436.22412,974.35974,1421.14856,362.53778,899.22211
53,0.433,1425.89624,362.26984,1043.03796,1444.84143,434.43152,974.28925,1414.06006,363.36566,899.08575
54,0.442,1418.74988,362.32565,1043.67053,1438.71521,435.55478,974.51593,1404.48877,363.59467,898.41742
55,0.45,1411.20764,363.14786,1043.83081,1430.62878,436.31845,975.95563,1396.76221,364.08627,901.70764
56,0.458,1403.82288,363.71695,1044.97498,1423.19971,435.56134,975.37207,1387.7113,363.78741,900.9317
57,0.467,1397.52478,365.40515,1044.88232,1417.41528,436.16742,975.91162,1380.23926,362.71686,900.75745
58,0.475,1392.02795,364.20578,1044.62439,1410.42004,435.92337,975.66125,1376.18152,363.05161,901.45642
59,0.483,1384.11584,362.85208,1044.60498,1403.68665,435.26376,975.48505,1368.45081,360.82065,901.30463
60,0.492,1377.85925,362.71222,1045.31165,1396.46936,434.46811,975.81543,1361.203,360.48959,902.97601
61,0.5,1370.82605,363.18527,1045.38635,1390.32397,433.25214,976.16345,1353.16956,360.88245,903.72717
62,0.508,1366.21619,361.17908,1046.57288,1384.86426,432.70395,976.04291,1347.77136,357.97418,902.95538
63,0.517,1359.69788,359.07767,1045.38684,1379.42029,431.77853,975.99615,1341.38232,359.13052,903.3573
64,0.525,1353.53711,359.56049,1045.62732,1372.09412,430.3924,974.78015,1332.93323,357.53168,903.22174
65,0.533,1348.24341,357.14648,1044.3606,1366.46387,428.57468,974.74792,1330.30017,356.46967,902.65259
66,0.542,1342.09558,354.76147,1044.23181,1360.45984,427.16132,974.65472,1321.96814,355.12088,902.86084
67,0.55,1337.33508,353.50327,1043.48682,1355.63318,424.80582,974.66266,1316.80261,354.51532,903.66235
68,0.558,1331.81116,352.28094,1044.09875,1351.00696,423.46628,974.52045,1310.79053,353.42166,901.26843
69,0.567,1324.56824,350.10992,1042.63684,1344.52222,421.84741,973.15106,1304.15283,351.40338,900.81561
70,0.575,1320.38464,348.0972,1041.73279,1338.11206,420.43231,972.98566,1298.43286,348.6149,899.71777
71,0.583,1314.26367,346.89191,1041.03821,1332.74524,418.92816,972.25525,1293.8905,344.76035,900.48053
72,0.592,1309.74487,341.80377,1040.323,1327.82813,416.37891,971.48969,1288.31567,344.77298,899.70978
73,0.6,1305.75549,339.70541,1040.59521,1322.87268,413.51077,971.31555,1284.01013,342.0928,898.74854
74,0.608,1299.26782,339.31628,1039.35938,1317.45117,411.87106,970.64362,1277.38013,341.74609,897.99725
75,0.617,1295.4519,336.4512,1038.33411,1312.18445,409.58771,970.19983,1273.61438,338.409,896.86206
76,0.625,1289.70544,334.35605,1037.51331,1306.76697,407.39536,968.81934,1270.77942,336.00842,896.86401
77,0.633,1285.19238,332.0892,1037.23889,1302.08386,404.80853,968.96979,1262.12244,333.34039,897.20441
78,0.642,1281.1333,328.01746,1036.25427,1298.15002,402.58154,968.27209,1259.36914,331.83911,896.89929
79,0.65,1278.34875,326.72595,1036.04639,1295.44348,399.91675,968.57831,1256.21033,328.78528,895.79901
80,0.658,1273.41614,322.16226,1035.88464,1291.0636,397.63376,968.76697,1250.90686,328.83997,895.35883
81,0.667,1268.31897,321.35693,1035.75769,1287.81226,395.37112,969.11627,1247.21777,323.42264,895.81165
82,0.675,1265.34985,318.26077,1036.27148,1284.1405,392.56998,969.98553,1244.34924,322.83469,895.55396
83,0.683,1261.1709,315.99286,1038.03271,1280.88696,389.32526,970.22552,1240.84583,319.50055,896.87122
84,0.692,1257.96375,311.56317,1039.32349,1275.72546,386.73154,971.55914,1237.08704,316.86728,897.98425
85,0.7,1254.16467,308.3602,1039.72571,1272.28491,383.54984,973.47589,1235.98035,313.55569,899.79279
86,0.708,1251.25977,307.07858,1040.96484,1269.68286,381.43558,974.21136,1232.33447,310.58133,900.12958
87,0.717,1247.82678,302.59073,1043.75513,1265.40601,377.6532,976.14044,1230.44812,308.88937,900.23529
88,0.725,1244.61267,298.94528,1044.50073,1262.69849,375.91269,977.6366,1228.00854,306.53058,903.89771
89,0.733,1239.95728,299.68692,1045.82935,1259.79614,373.44376,980.3313,1224.96228,303.18973,904.77502
90,0.742,1237.06555,297.56281,1048.11438,1257.24963,371.0434,982.27917,1224.18127,301.56708,905.87885
91,0.75,1233.96057,295.95871,1049.76501,1254.59473,368.78329,984.43396,1221.30701,299.32419,907.46741
92,0.758,1231.84937,293.04898,1051.32617,1252.42004,367.75537,986.36774,1220.62256,297.97296,908.57501
93,0.767,1228.12476,289.26154,1052.69055,1248.41345,365.86053,987.37231,1217.62622,295.29507,909.22687
94,0.775,1224.88318,287.97705,1054.11511,1246.42786,364.92004,989.16602,1214.59644,295.49207,910.35999
95,0.783,1221.66626,288.90848,1055.0155,1243.35144,364.22043,990.74084,1212.65063,294.49829,912.9613
96,0.792,1217.89868,287.40887,1058.00769,1242.1272,363.58392,991.75415,1209.90076,294.07031,913.9715
97,0.8,1215.12012,287.04056,1058.99292,1238.4071,362.53564,992.29584,1207.33337,291.59741,914.21051
98,0.808,1212.21472,286.98047,1059.90173,1234.81274,361.1413,993.94263,1205.02551,292.49704,915.55145
99,0.817,1208.71887,286.85596,1061.07825,1233.69763,360.97925,995.69678,1203.5979,292.57843,916.56189
100,0.825,1205.67639,285.23764,1061.78149,1229.46521,361.41437,997.00616,1198.30371,291.33395,918.72174
101,0.833,1201.20544,285.37415,1062.25696,1227.65332,360.87418,998.29456,1197.43713,290.60364,918.50964
102,0.842,1198.87402,284.81155,1062.20605,1224.89075,360.78528,998.47601,1195.31519,291.21967,919.00177
103,0.85,1196.71106,283.98254,1063.41223,1221.58655,359.47079,998.6803,1190.45728,291.51248,918.63757
104,0.858,1193.0885,285.1145,1063.53931,1218.65369,359.46329,1000.2655,1188.98669,290.17114,919.11926
105,0.867,1189.74634,284.36505,1064.01831,1215.13879,359.97696,1000.44391,1186.62976,290.86893,919.74048
106,0.875,1187.38037,282.86429,1064.48328,1213.98889,359.49643,1001.00006,1183.83057,290.59692,920.09326
107,0.883,1183.55713,284.15494,1064.10437,1209.77869,359.49747,1000.19623,1180.72607,290.80548,919.2774
108,0.892,1180.65808,283.20169,1064.31189,1208.19287,358.35333,1000.1452,1177.32874,290.91599,919.91577
109,0.9,1176.58716,284.38324,1063.74707,1204.17004,359.38693,1000.49463,1174.22766,291.09433,921.28485
110,0.908,1173.7887,284.14636,1063.33105,1201.20776,359.41998,1000.73907,1171.02466,291.86981,919.70148
111,0.917,1169.50842,284.58524,1063.01331,1198.87622,359.24213,1000.6037,1168.46851,292.55127,920.84167
112,0.925,1166.42041,284.15942,1063.0199,1194.5564,359.15408,1000.5174,1163.22534,291.43121,921.31549
113,0.933,1161.44043,285.09848,1062.83362,1192.40308,358.87833,999.72284,1159.5177,292.95551,919.93347
114,0.942,1158.87036,284.14124,1062.68677,1188.51123,359.36426,999.90698,1157.94507,293.5307,919.39691
115,0.95,1154.76453,286.34598,1062.13123,1184.70801,360.30429,999.33704,1153.42383,295.629,919.97308
116,0.958,1151.35181,285.22388,1062.28125,1182.89966,361.04666,999.54266,1149.24866,295.10895,918.96136
117,0.967,1145.80139,288.55695,1060.68103,1178.75757,360.72662,999.3493,1146.25977,295.92523,919.03369
118,0.975,1143.16479,286.99756,1060.96521,1173.35205,360.83243,998.17804,1142.07849,294.3739,917.9375
119,0.983,1139.07849,288.80792,1060.14539,1170.32312,361.27856,998.14001,1139.03308,296.04837,918.98517
120,0.992,1134.03613,290.97171,1060.10913,1166.09814,363.28995,997.85187,1132.35962,297.40649,917.4317
121,1,1130.15527,288.90778,1060.36523,1162.68152,363.66891,997.14624,1129.7179,297.21161,916.36414
122,1.008,1124.65649,288.99896,1058.92554,1156.40686,364.23218,996.13794,1124.39966,297.3208,915.21692
123,1.017,1118.76892,290.66299,1058.29077,1151.89771,365.03256,995.75397,1120.15466,299.82428,915.43188
124,1.025,1114.35681,291.49826,1057.65369,1147.23755,366.13715,995.1803,1117.20532,301.43674,914.3985
125,1.033,1109.49207,291.44156,1056.75537,1142.54858,367.44104,993.6145,1109.38647,302.21896,912.40387
126,1.042,1105.65686,294.78308,1055.69434,1138.17078,367.57785,992.74603,1106.12866,301.83884,910.49683
127,1.05,1100.54395,296.49213,1054.66687,1132.28198,369.02509,991.55829,1100.35181,304.17679,910.19727
128,1.058,1094.81567,297.55658,1053.34839,1128.04138,371.58264,989.45459,1095.00452,306.58075,908.78265
129,1.067,1089.60535,300.1452,1051.92554,1123.10181,372.83148,988.82953,1090.08997,307.91293,908.40228
130,1.075,1084.73669,302.534,1050.89526,1116.39978,373.64841,987.16302,1085.61572,308.11105,906.92993
131,1.083,1078.15833,303.47672,1048.55139,1111.58813,376.01175,985.1134,1080.46472,311.25037,904.24969
132,1.092,1071.58203,305.65735,1045.89258,1106.15967,377.58267,983.46863,1073.22815,311.20172,902.72809
133,1.1,1065.20605,307.00641,1044.98022,1100.19946,379.21091,980.97699,1066.37463,312.5723,900.02002
134,1.108,1058.92383,308.79849,1042.31616,1093.52112,381.00571,979.0177,1061.51636,315.7915,899.58844
135,1.117,1053.93506,310.77515,1040.00159,1088.1781,383.91568,976.37549,1057.3219,317.95059,896.78516
136,1.125,1047.23193,313.29956,1038.40796,1081.86121,387.19733,975.03418,1050.41418,320.01746,894.52734
137,1.133,1040.54175,313.64792,1036.16418,1075.64441,387.41187,971.37598,1042.91797,321.98785,891.92065
138,1.142,1034.68738,316.92328,1034.77393,1069.32336,389.42307,969.52991,1034.77588,323.41025,890.03491
139,1.15,1029.84058,320.09518,1031.26172,1061.97302,392.37994,967.12207,1029.06543,324.38211,888.28253
140,1.158,1022.12933,323.52164,1029.13049,1055.82312,395.60431,964.68158,1023.90961,327.48123,883.97247
141,1.167,1015.79285,327.13446,1027.09265,1049.08594,396.45422,960.7569,1019.04889,329.88773,883.70837
142,1.175,1008.51154,327.5657,1025.13208,1042.83423,399.57718,960.94684,1008.61511,331.12662,881.3515
143,1.183,1003.47089,330.69293,1025.20154,1035.51892,402.05209,957.75372,1002.36438,334.01648,878.70331
144,1.192,996.58179,332.12946,1021.89307,1028.8269,403.49969,956.8916,994.3847,336.62543,877.01337
145,1.2,987.88519,333.45816,1020.0517,1022.16931,405.55353,957.13031,989.39636,338.28732,877.36932
146,1.208,982.74475,336.59,1020.6319,1015.19568,408.36694,954.99841,980.80884,340.72293,876.43787
147,1.217,975.68359,340.37103,1021.09363,1008.19855,409.01224,955.12695,973.17059,341.612,875.50055
148,1.225,966.93079,340.47147,1020.76245,1001.98883,411.1188,955.08881,964.50226,344.85153,876.44611
149,1.233,962.0708,342.61664,1020.78961,994.83795,412.69366,956.06458,958.94672,346.00095,876.37311
150,1.242,955.3504,344.38321,1021.23254,987.63977,415.17221,956.41614,950.60126,345.0032,877.04333
151,1.25,947.52472,345.29602,1023.56335,979.8175,415.61185,956.57404,944.18335,347.64709,878.17639
152,1.258,942.25128,346.70935,1024.00122,973.34863,417.70316,957.77051,937.63727,350.83023,879.32776
153,1.267,935.25281,348.02469,1026.68384,965.84985,419.78769,958.86688,929.29541,350.43234,880.76465
154,1.275,927.91748,349.35272,1027.88367,958.3515,421.1861,960.38116,921.40491,353.07245,882.3056
155,1.283,919.40784,353.09479,1027.88904,951.41919,422.99979,962.2171,916.0741,354.85059,884.34503
156,1.292,912.51782,354.1713,1030.70239,943.27856,424.90143,962.73663,905.7157,355.73911,886.2179
157,1.3,906.03479,356.90607,1031.57715,935.89453,427.28986,964.39081,899.93738,357.57285,888.2417
158,1.308,898.48645,358.26724,1032.29785,928.78436,429.62808,964.72656,892.90234,360.61932,888.88055
159,1.317,891.83405,360.44788,1033.23206,919.60321,431.27713,965.7345,885.50476,361.89685,889.24536
160,1.325,882.63782,363.125,1034.78064,912.59857,433.64969,966.54224,878.9671,364.47012,891.35315
161,1.333,876.15436,364.94272,1035.0625,904.96454,436.44223,967.90454,872.43292,366.43958,891.57001
162,1.342,869.17883,366.87262,1036.89807,896.7912,438.616,968.71741,864.8175,369.3624,891.95874
163,1.35,861.68665,370.82629,1037.58862,888.70538,441.26193,968.45935,856.09296,370.7872,892.55725
164,1.358,853.9505,373.38821,1037.40906,881.50513,443.67374,969.54559,849.45221,374.24307,893.13727
165,1.367,846.70923,374.26154,1039.11426,873.54272,446.11679,970.21088,839.57666,374.15802,893.82288
166,1.375,840.7417,377.14929,1039.46167,865.51672,447.85574,971.27551,830.6601,376.11215,894.95862
167,1.383,833.42114,380.27573,1040.45471,858.14343,450.6312,971.94385,824.17419,379.66644,896.08447
168,1.392,826.63635,380.56076,1040.69348,850.44574,453.05969,971.72638,816.58398,382.36584,896.2489
169,1.4,819.37726,383.09482,1041.80798,842.72723,454.23163,972.12048,808.75116,381.75403,896.87958
170,1.408,812.10437,384.52927,1042.24548,835.94611,456.50848,973.50446,799.71729,383.90814,897.65179
171,1.417,805.70667,386.09927,1042.34863,826.48712,458.55688,974.80182,793.79639,385.55112,898.08832
172,1.425,798.46118,387.73126,1043.27673,818.96802,460.50464,975.68878,784.36096,388.07932,899.52759
173,1.433,791.24066,388.77966,1043.85864,810.91235,462.19922,975.42731,775.59332,388.8288,900.29016
174,1.442,783.86682,391.84622,1044.56189,802.96436,463.21423,976.04834,768.6593,389.54294,900.34247
175,1.45,777.36047,391.84415,1044.3606,795.521,464.94617,976.17078,759.76526,390.94458,901.70349
176,1.458,770.55267,393.72885,1045.87207,787.05304,465.07318,976.30573,754.20483,392.70941,902.43243
177,1.467,763.69513,395.69571,1047.75549,780.15826,467.33997,977.19568,744.41168,393.74197,903.87921
178,1.475,756.09479,395.61307,1047.50305,771.95996,467.32495,978.08691,737.84308,395.09558,904.39508
179,1.483,750.25165,397.29916,1047.34033,765.12006,468.89566,978.99207,728.80151,394.05203,905.81219
180,1.492,742.30243,396.16656,1048.3877,756.99506,470.58035,979.51239,723.39734,396.29218,906.8147
181,1.5,736.90369,397.71774,1048.99597,749.79889,470.14697,979.56006,713.61072,395.19345,906.56616
182,1.508,729.52264,397.97153,1049.07715,742.82507,469.51288,980.06543,707.21332,396.4884,908.07135
183,1.517,722.4082,398.5018,1049.74011,735.40784,469.94632,980.43188,700.19611,396.03967,907.5387
184,1.525,715.99561,397.84814,1050.49573,728.51062,470.32318,980.65289,692.57611,395.59698,909.20703
185,1.533,709.88763,398.487,1051.95764,722.11243,469.48569,980.96106,686.573,395.12277,909.43481
186,1.542,702.77863,397.47949,1051.21985,713.99268,470.12299,981.49884,678.40356,395.14618,909.30219
187,1.55,696.4278,398.14157,1051.47937,707.15662,470.11453,982.04083,672.57758,395.80252,909.46619
188,1.558,690.20074,397.67416,1050.76929,700.77771,469.29611,982.18744,664.80139,395.12064,909.67529
189,1.567,684.263,396.21811,1051.37183,695.38971,469.70758,981.72266,658.51038,394.56931,909.40765
190,1.575,677.89038,395.30176,1050.88672,687.97406,467.70825,981.44409,651.86823,393.2081,909.80621
191,1.583,671.99475,392.405,1050.94006,681.94122,467.8869,981.36768,643.31165,390.61203,909.74127
192,1.592,666.15735,394.17551,1051.02649,676.33215,465.92944,980.4837,641.08868,391.73987,909.33118
193,1.6,659.59448,393.90402,1050.56897,670.69928,464.59113,979.61505,633.15723,389.86172,908.87537
194,1.608,655.14197,392.4411,1049.98157,665.71777,463.94958,979.27539,628.74933,389.92029,908.21466
195,1.617,649.92987,390.96085,1049.26196,660.3407,462.83258,979.19873,622.24084,389.15076,907.80396
