Frame#,Time,L.Forearm.x,L.Forearm.y,L.Forearm.z,L.Ulna.x,L.Ulna.y,L.Ulna.z,L.Radius.x,L.Radius.y,L.Radius.z
1,0,-77.25211,335.76053,700.17877,-19.67012,366.49008,639.3382,1.52487,278.00339,638.39191
2,0.008,-77.25211,335.76053,700.17877,-19.77009,366.66888,639.67023,1.52487,278.00339,638.39191
3,0.017,-77.25211,335.76053,700.17877,-19.77009,366.66888,639.67023,1.55159,278.14325,638.82172
4,0.025,-77.25211,335.76053,700.17877,-19.69637,366.91464,640.1297,1.52487,278.00339,638.39191
5,0.033,-76.14078,335.68256,699.81708,-19.75857,366.86874,640.19696,1.52487,278.00339,638.39191
6,0.042,-76.87685,335.50952,699.9328,-19.75857,366.86874,640.19696,1.52487,278.00339,638.39191
7,0.05,-76.87685,335.50952,699.9328,-19.724,367.06076,640.28577,1.52487,278.00339,638.39191
8,0.058,-76.87685,335.50952,699.9328,-19.67781,367.18964,640.56293,1.55159,278.14325,638.82172
9,0.067,-76.87685,335.50952,699.9328,-19.53422,367.18802,640.36731,1.55159,278.14325,638.82172
10,0.075,-76.63098,335.40701,700.1203,-19.49652,367.09543,640.66888,1.52487,278.00339,638.39191
11,0.083,-77.68807,335.5455,699.19379,-19.53422,367.18802,640.36731,1.55159,278.14325,638.82172
12,0.092,-77.41029,335.43573,699.41388,-19.49652,367.09543,640.66888,1.52487,278.00339,638.39191
13,0.1,-77.41029,335.43573,699.41388,-19.49652,367.09543,640.66888,1.55159,278.14325,638.82172
14,0.108,-77.41029,335.43573,699.41388,-19.50227,367.05945,640.85449,1.55159,278.14325,638.82172
15,0.117,-77.41029,335.43573,699.41388,-19.49652,367.09543,640.66888,1.52487,278.00339,638.39191
16,0.125,-76.4343,334.89731,700.34467,-19.49652,367.09543,640.66888,1.55159,278.14325,638.82172
17,0.133,-76.4343,334.89731,700.34467,-19.49652,367.09543,640.66888,1.55159,278.14325,638.82172
18,0.142,-76.4343,334.89731,700.34467,-19.49652,367.09543,640.66888,1.55159,278.14325,638.82172
19,0.15,-76.4343,334.89731,700.34467,-19.49652,367.09543,640.66888,1.55159,278.14325,638.82172
20,0.158,-77.31154,334.83124,699.60669,-19.49652,367.09543,640.66888,1.52487,278.00339,638.39191
21,0.167,-76.4343,334.89731,700.34467,-19.49652,367.09543,640.66888,1.52487,278.00339,638.39191
22,0.175,-76.4343,334.89731,700.34467,-19.49478,366.83893,640.48529,1.52487,278.00339,638.39191
23,0.183,-76.4343,334.89731,700.34467,-19.49478,366.83893,640.48529,1.52487,278.00339,638.39191
24,0.192,-77.58936,334.94107,699.38654,-19.6761,366.93314,640.37933,1.52487,278.00339,638.39191
25,0.2,-77.58936,334.94107,699.38654,-19.6761,366.93314,640.37933,1.52487,278.00339,638.39191
26,0.208,-76.76091,334.85864,700.16833,-19.75857,366.86874,640.19696,1.52487,278.00339,638.39191
27,0.217,-77.58936,334.94107,699.38654,-19.75857,366.86874,640.19696,1.52487,278.00339,638.39191
28,0.225,-77.40155,335.00336,700.37793,-19.86589,366.80585,640.29773,1.52487,278.00339,638.39191
29,0.233,-77.40155,335.00336,700.37793,-19.82908,366.69485,640.22729,1.52487,278.00339,638.39191
30,0.242,-77.40155,335.00336,700.37793,-19.82908,366.69485,640.22729,1.52487,278.00339,638.39191
31,0.25,-77.40155,335.00336,700.37793,-19.93639,366.63199,640.32806,1.43737,277.8905,638.53589
32,0.258,-77.40155,335.00336,700.37793,-19.93639,366.63199,640.32806,1.43737,277.8905,638.53589
33,0.267,-77.40155,335.00336,700.37793,-20.19968,366.77237,640.30975,1.43737,277.8905,638.53589
34,0.275,-77.40155,335.00336,700.37793,-19.93639,366.63199,640.32806,1.43737,277.8905,638.53589
35,0.283,-77.40155,335.00336,700.37793,-19.93639,366.63199,640.32806,1.43737,277.8905,638.53589
36,0.292,-77.40155,335.00336,700.37793,-20.34469,367.03012,640.68915,1.43737,277.8905,638.53589
37,0.3,-77.40155,335.00336,700.37793,-19.94384,366.85257,640.69733,1.52487,278.00339,638.39191
38,0.308,-77.40155,335.00336,700.37793,-19.94384,366.85257,640.69733,1.52487,278.00339,638.39191
39,0.317,-77.28622,335.03561,700.46606,-19.94384,366.85257,640.69733,1.43737,277.8905,638.53589
40,0.325,-77.40155,335.00336,700.37793,-19.80605,366.91943,640.76855,1.43737,277.8905,638.53589
41,0.333,-77.28622,335.03561,700.46606,-19.80605,366.91943,640.76855,1.43737,277.8905,638.53589
42,0.342,-78.44184,334.80066,699.52826,-19.80605,366.91943,640.76855,1.43737,277.8905,638.53589
43,0.35,-78.44184,334.80066,699.52826,-19.65413,366.83676,640.77722,1.43737,277.8905,638.53589
44,0.358,-78.44184,334.80066,699.52826,-19.51389,367.06097,640.66699,1.52487,278.00339,638.39191
45,0.367,-78.44184,334.80066,699.52826,-19.24328,366.96884,640.49756,1.52487,278.00339,638.39191
46,0.375,-78.44184,334.80066,699.52826,-19.30609,366.56415,640.77942,1.43737,277.8905,638.53589
47,0.383,-78.44184,334.80066,699.52826,-18.95848,366.68079,640.86841,1.43737,277.8905,638.53589
48,0.392,-78.29652,334.86612,699.44843,-18.95848,366.68079,640.86841,1.52487,278.00339,638.39191
49,0.4,-78.44184,334.80066,699.52826,-18.74494,366.56488,640.78979,1.79689,277.88315,638.50482
50,0.408,-78.44184,334.80066,699.52826,-18.70006,366.46759,641.02563,1.43737,277.8905,638.53589
51,0.417,-78.07671,334.75632,699.78107,-18.70006,366.46759,641.02563,1.43737,277.8905,638.53589
52,0.425,-78.07671,334.75632,699.78107,-18.82248,366.23328,641.04565,2.04259,277.60995,638.4422
53,0.433,-77.93141,334.82178,699.70123,-18.82248,366.23328,641.04565,2.04259,277.60995,638.4422
54,0.442,-77.93141,334.82178,699.70123,-18.11281,366.48172,640.9892,2.04259,277.60995,638.4422
55,0.45,-77.93141,334.82178,699.70123,-18.67791,366.22934,641.03027,2.04259,277.60995,638.4422
56,0.458,-77.86952,335.19919,700.03082,-18.31626,366.45215,640.79834,2.49247,277.60535,638.29559
57,0.467,-77.40508,334.4617,699.72577,-18.51058,366.48639,641.02588,3.22224,277.85406,638.4093
58,0.475,-76.72339,334.68161,699.4173,-18.37569,366.21265,640.73926,3.22224,277.85406,638.4093
59,0.483,-76.68924,334.67596,699.69586,-18.42272,365.98444,640.62067,4.29163,277.58536,637.71027
60,0.492,-76.06004,334.26389,700.22131,-18.29407,366.30786,640.35358,2.44334,277.52011,638.19403
61,0.5,-75.67408,334.44229,700.28033,-18.29407,366.30786,640.35358,2.59392,277.20651,638.3537
62,0.508,-76.34867,334.39069,700.09747,-18.2741,366.31558,640.14276,2.59392,277.20651,638.3537
63,0.517,-76.84456,334.31931,699.49463,-18.44147,366.0585,640.14709,2.59392,277.20651,638.3537
64,0.525,-77.48415,334.57739,699.18915,-18.23763,366.12521,639.86627,2.44334,277.52011,638.19403
65,0.533,-76.6412,334.81564,700.0188,-18.31513,365.9859,639.57098,2.44334,277.52011,638.19403
66,0.542,-77.17604,335.02643,700.12573,-18.16309,365.83752,639.71771,3.17555,277.2341,638.35425
67,0.55,-77.17604,335.02643,700.12573,-18.33049,365.58035,639.72198,2.44334,277.52011,638.19403
68,0.558,-77.17604,335.02643,700.12573,-18.44401,365.41855,639.44873,2.44334,277.52011,638.19403
69,0.567,-77.17604,335.02643,700.12573,-18.6181,365.33075,639.36261,2.44334,277.52011,638.19403
70,0.575,-77.11815,334.48041,699.6189,-18.6181,365.33075,639.36261,2.44334,277.52011,638.19403
71,0.583,-77.11815,334.48041,699.6189,-18.67484,365.42709,639.29681,1.97738,277.58438,638.06482
72,0.592,-77.11815,334.48041,699.6189,-18.6181,365.33075,639.36261,1.97738,277.58438,638.06482
73,0.6,-77.06834,334.63095,699.2713,-18.67484,365.42709,639.29681,1.97738,277.58438,638.06482
74,0.608,-77.06834,334.63095,699.2713,-18.9669,365.33127,639.17096,1.97738,277.58438,638.06482
75,0.617,-77.2821,334.70224,699.39178,-18.75232,365.28769,639.00153,2.44334,277.52011,638.19403
76,0.625,-77.06834,334.63095,699.2713,-19.02362,365.42758,639.10522,2.44334,277.52011,638.19403
77,0.633,-77.02448,334.86795,699.4729,-19.28889,365.49652,639.15588,1.97738,277.58438,638.06482
78,0.642,-77.2812,334.91153,699.5799,-19.45559,365.64108,638.96295,1.97738,277.58438,638.06482
79,0.65,-77.07431,334.71741,699.8205,-19.66765,365.73355,638.96838,1.97738,277.58438,638.06482
80,0.658,-78.59081,334.69553,698.6651,-19.56842,365.92154,638.94763,1.97738,277.58438,638.06482
81,0.667,-77.69913,334.81082,699.38629,-19.7851,366.03668,639.05219,2.84002,277.46234,637.62964
82,0.675,-77.26764,335.55191,699.93994,-19.7851,366.03668,639.05219,3.0613,278.15805,638.12592
83,0.683,-77.37539,336.07831,699.78503,-20.11277,366.18613,639.04694,2.70479,278.24747,638.35907
84,0.692,-77.15068,335.8533,699.52258,-20.11277,366.18613,639.04694,1.97484,277.99878,638.24524
85,0.7,-77.33261,336.05414,699.50476,-20.30391,366.27933,638.82062,1.4776,277.78409,638.10602
86,0.708,-77.47533,335.17627,699.43622,-20.56374,366.17123,638.77942,1.4776,277.78409,638.10602
87,0.717,-77.71194,335.57809,699.39374,-20.56374,366.17123,638.77942,1.4776,277.78409,638.10602
88,0.725,-77.67065,335.25586,699.42444,-20.64434,365.95837,638.82684,1.4776,277.78409,638.10602
89,0.733,-77.76609,335.81708,699.29773,-20.56374,366.17123,638.77942,1.4776,277.78409,638.10602
90,0.742,-77.76609,335.81708,699.29773,-20.57728,366.0036,638.75525,1.4776,277.78409,638.10602
91,0.75,-77.9369,335.89267,699.28174,-20.64434,365.95837,638.82684,1.4776,277.78409,638.10602
92,0.758,-77.67065,335.25586,699.42444,-20.81131,365.98398,638.87567,1.4776,277.78409,638.10602
93,0.767,-77.76609,335.81708,699.29773,-20.64434,365.95837,638.82684,1.4776,277.78409,638.10602
94,0.775,-77.9369,335.89267,699.28174,-20.81131,365.98398,638.87567,1.4776,277.78409,638.10602
95,0.783,-77.84148,335.33148,699.40851,-20.64434,365.95837,638.82684,1.4776,277.78409,638.10602
96,0.792,-77.9369,335.89267,699.28174,-20.89708,366.13931,638.5639,1.25128,277.75513,638.16559
97,0.8,-77.9369,335.89267,699.28174,-20.97615,365.90439,639.49731,1.4776,277.78409,638.10602
98,0.808,-77.9369,335.89267,699.28174,-20.82819,366.34277,638.58142,1.4776,277.78409,638.10602
99,0.817,-77.9369,335.89267,699.28174,-20.82969,366.40817,638.52075,1.4776,277.78409,638.10602
100,0.825,-77.9369,335.89267,699.28174,-19.95509,366.3298,638.38953,1.4776,277.78409,638.10602
101,0.833,-77.86273,336.08575,699.22308,-20.61349,366.62784,638.47815,1.4776,277.78409,638.10602
102,0.842,-79.49004,335.57877,698.05481,-20.69914,367.00549,638.91663,1.4776,277.78409,638.10602
103,0.85,-79.22943,335.3862,697.68317,-20.66206,367.06088,638.85175,1.4776,277.78409,638.10602
104,0.858,-79.34564,335.28668,697.92499,-20.72426,366.84988,638.76599,1.4776,277.78409,638.10602
105,0.867,-79.67745,335.27502,697.81567,-20.81768,367.03244,638.94336,1.4776,277.78409,638.10602
106,0.875,-79.15313,335.18481,697.9682,-20.85274,366.73224,638.92535,1.4776,277.78409,638.10602
107,0.883,-79.80333,335.30508,698.00122,-20.72846,366.70856,638.89325,1.4776,277.78409,638.10602
108,0.892,-79.67745,335.27502,697.81567,-20.56997,367.14346,638.99066,1.4776,277.78409,638.10602
109,0.9,-79.67745,335.27502,697.81567,-20.89974,366.59763,638.91962,1.4776,277.78409,638.10602
110,0.908,-79.7258,335.76984,698.15759,-20.90652,366.53171,638.98108,1.25128,277.75513,638.16559
111,0.917,-79.22375,335.24576,698.07635,-20.85016,366.62552,638.99426,1.4776,277.78409,638.10602
112,0.925,-79.06948,335.19458,698.13428,-20.83619,366.70502,638.92175,1.4776,277.78409,638.10602
113,0.933,-79.42578,335.24683,697.93384,-20.85016,366.62552,638.99426,1.25128,277.75513,638.16559
114,0.942,-79.06948,335.19458,698.13428,-20.85016,366.62552,638.99426,1.4776,277.78409,638.10602
115,0.95,-78.8587,335.1265,697.87268,-20.89974,366.59763,638.91962,1.4776,277.78409,638.10602
116,0.958,-79.55167,335.27689,698.11932,-21.0057,366.68073,638.99823,1.25128,277.75513,638.16559
117,0.967,-79.70675,335.37354,698.05768,-21.02029,367.04053,639.05292,1.25128,277.75513,638.16559
118,0.975,-79.27604,335.01404,697.74066,-21.09071,367.06812,639.05255,1.25128,277.75513,638.16559
119,0.983,-79.40147,335.12344,697.67761,-21.26031,367.02695,638.81842,1.25128,277.75513,638.16559
120,0.992,-79.38232,335.22397,697.44476,-21.1139,367.44931,638.7337,1.12594,278.33136,637.88763
121,1,-79.51904,335.37881,697.39771,-21.40562,367.65417,638.5896,1.17323,278.55069,638.17358
122,1.008,-79.51904,335.37881,697.39771,-21.43401,367.76218,638.44666,1.17323,278.55069,638.17358
123,1.017,-79.53619,335.24744,697.12988,-21.41066,367.85663,638.3584,1.17323,278.55069,638.17358
124,1.025,-79.69521,335.27606,697.13885,-21.41066,367.85663,638.3584,1.09972,279.12326,638.33954
125,1.033,-80.07463,335.41226,697.44391,-21.63793,367.957,638.29456,1.09972,279.12326,638.33954
126,1.042,-80.12536,335.49783,696.81903,-22.00915,367.72519,638.33203,0.7817,279.5365,638.24371
127,1.05,-80.12536,335.49783,696.81903,-22.00915,367.72519,638.33203,0.7817,279.5365,638.24371
128,1.058,-80.24277,335.21674,696.98584,-22.00915,367.72519,638.33203,0.7817,279.5365,638.24371
129,1.067,-80.26302,335.19171,696.68933,-22.00915,367.72519,638.33203,0.7817,279.5365,638.24371
130,1.075,-80.26302,335.19171,696.68933,-22.00915,367.72519,638.33203,0.83564,279.35104,637.76605
131,1.083,-80.26302,335.19171,696.68933,-22.00915,367.72519,638.33203,0.98017,279.04388,637.89508
132,1.092,-80.11353,335.14374,696.81927,-22.00915,367.72519,638.33203,1.02742,279.26328,638.18103
133,1.1,-80.13379,335.11865,696.52277,-22.00915,367.72519,638.33203,1.05362,278.47137,637.72906
134,1.108,-80.13379,335.11865,696.52277,-22.00915,367.72519,638.33203,1.05362,278.47137,637.72906
135,1.117,-80.26302,335.19171,696.68933,-22.00915,367.72519,638.33203,1.05362,278.47137,637.72906
136,1.125,-80.39878,334.79196,696.64355,-22.00915,367.72519,638.33203,1.05362,278.47137,637.72906
137,1.133,-80.11353,335.14374,696.81927,-21.81922,367.64145,638.39282,1.05362,278.47137,637.72906
138,1.142,-80.11353,335.14374,696.81927,-22.00915,367.72519,638.33203,1.05362,278.47137,637.72906
139,1.15,-80.44573,335.22629,696.97449,-22.00915,367.72519,638.33203,1.05362,278.47137,637.72906
140,1.158,-80.11353,335.14374,696.81927,-22.00915,367.72519,638.33203,1.05362,278.47137,637.72906
141,1.167,-80.11353,335.14374,696.81927,-22.00915,367.72519,638.33203,1.05362,278.47137,637.72906
142,1.175,-80.31742,335.43738,696.91272,-22.00915,367.72519,638.33203,1.05362,278.47137,637.72906
143,1.183,-80.32279,335.75824,696.65326,-22.00915,367.72519,638.33203,1.05362,278.47137,637.72906
144,1.192,-80.69653,336.02969,696.92468,-22.00915,367.72519,638.33203,0.98017,279.04388,637.89508
145,1.2,-80.65808,335.99481,696.65186,-21.8216,368.04065,638.32495,0.83564,279.35104,637.76605
146,1.208,-80.48123,336.11221,696.65271,-22.00915,367.72519,638.33203,0.61029,279.63116,637.79041
147,1.217,-80.86472,335.50534,696.27667,-22.12903,367.83939,638.27393,0.73445,279.31711,637.95776
148,1.225,-80.62349,336.03357,695.94019,-22.61309,367.68353,637.81262,0.73445,279.31711,637.95776
149,1.233,-80.99219,336.21576,695.82269,-22.53046,367.83456,637.92767,0.83564,279.35104,637.76605
150,1.242,-80.56209,336.13174,695.85114,-22.16014,367.97058,638.04211,1.05362,278.47137,637.72906
151,1.25,-81.06065,335.77606,695.42444,-22.30736,368.08105,637.98682,1.05362,278.47137,637.72906
152,1.258,-80.55054,336.21768,695.74396,-21.92367,367.88107,637.99481,1.05362,278.47137,637.72906
153,1.267,-80.50202,336.34058,695.63611,-21.82016,367.81146,637.81354,1.05362,278.47137,637.72906
154,1.275,-80.50202,336.34058,695.63611,-21.73881,367.16837,637.60248,1.29396,278.51569,637.64966
155,1.283,-80.50202,336.34058,695.63611,-21.88827,367.79172,637.58636,1.29396,278.51569,637.64966
156,1.292,-80.50202,336.34058,695.63611,-21.44129,367.02942,637.40247,1.29396,278.51569,637.64966
157,1.3,-80.29858,336.30978,695.63721,-21.34006,366.97491,637.16602,1.29396,278.51569,637.64966
158,1.308,-80.29858,336.30978,695.63721,-21.29615,367.05374,637.33661,1.29396,278.51569,637.64966
159,1.317,-80.29858,336.30978,695.63721,-20.86829,366.92108,637.15912,1.66114,278.47513,637.47992
160,1.325,-80.02539,336.2373,695.45856,-20.94043,366.80594,637.01678,2.09136,278.72711,637.69135
161,1.333,-80.02539,336.2373,695.45856,-21.13743,366.86459,637.04779,2.41116,278.46686,637.2359
162,1.342,-80.19954,336.44495,695.50696,-21.08929,367.35052,637.17963,1.43563,278.6145,637.74103
163,1.35,-80.19954,336.44495,695.50696,-21.00294,367.37198,637.12201,1.43563,278.6145,637.74103
164,1.358,-80.47203,336.92844,695.53668,-21.00294,367.37198,637.12201,1.43563,278.6145,637.74103
165,1.367,-80.60072,336.77017,695.66644,-21.00294,367.37198,637.12201,1.43563,278.6145,637.74103
166,1.375,-80.29974,336.8576,695.61182,-21.00294,367.37198,637.12201,1.43563,278.6145,637.74103
167,1.383,-80.39213,336.86008,695.27271,-21.00294,367.37198,637.12201,1.43563,278.6145,637.74103
168,1.392,-80.19328,336.79166,695.11591,-21.00294,367.37198,637.12201,1.43563,278.6145,637.74103
169,1.4,-80.27802,337.23373,695.30011,-20.84292,367.28644,637.13251,1.43563,278.6145,637.74103
170,1.408,-80.14114,337.24521,695.26355,-20.67916,367.53329,637.31677,1.43563,278.6145,637.74103
171,1.417,-80.14114,337.24521,695.26355,-20.70549,367.48837,637.23798,1.43563,278.6145,637.74103
172,1.425,-80.1263,337.19348,694.9245,-20.61198,367.36337,637.37146,1.43563,278.6145,637.74103
173,1.433,-78.80399,336.73297,695.43292,-20.46306,366.81885,637.20868,1.50256,278.48038,637.94586
174,1.442,-77.54414,336.59378,695.50885,-20.25623,366.74255,637.33344,1.50256,278.48038,637.94586
175,1.45,-77.64484,336.62531,695.75476,-20.10198,366.6962,637.30981,1.50256,278.48038,637.94586
176,1.458,-77.64484,336.62531,695.75476,-19.76096,366.53885,637.3017,1.50256,278.48038,637.94586
177,1.467,-77.54414,336.59378,695.50885,-19.76096,366.53885,637.3017,1.50256,278.48038,637.94586
178,1.475,-77.54414,336.59378,695.50885,-19.90998,367.08344,637.46448,1.50256,278.48038,637.94586
179,1.483,-77.54414,336.59378,695.50885,-19.72228,367.35144,637.53021,1.43563,278.6145,637.74103
180,1.492,-77.64484,336.62531,695.75476,-19.57324,366.80698,637.36749,1.50256,278.48038,637.94586
181,1.5,-77.64484,336.62531,695.75476,-19.57324,366.80698,637.36749,1.50256,278.48038,637.94586
182,1.508,-77.54414,336.59378,695.50885,-19.66108,366.34732,637.48358,1.50256,278.48038,637.94586
183,1.517,-77.85386,336.72272,696.09155,-19.66108,366.34732,637.48358,1.50256,278.48038,637.94586
184,1.525,-77.85386,336.72272,696.09155,-19.66108,366.34732,637.48358,1.50256,278.48038,637.94586
185,1.533,-77.67342,336.65451,696.33508,-19.25816,366.91586,637.55768,1.50256,278.48038,637.94586
186,1.542,-77.67342,336.65451,696.33508,-19.39411,366.7406,637.68878,1.59204,277.87744,638.19824
187,1.55,-77.53825,336.54691,696.39319,-19.24615,366.16217,637.68628,1.59204,277.87744,638.19824
188,1.558,-77.67342,336.65451,696.33508,-19.24615,366.16217,637.68628,1.59204,277.87744,638.19824
189,1.567,-77.53825,336.54691,696.39319,-19.2709,366.39755,638.31262,1.59204,277.87744,638.19824
190,1.575,-77.42704,336.28012,696.802,-19.2709,366.39755,638.31262,1.59204,277.87744,638.19824
191,1.583,-77.48958,336.42361,696.48492,-19.27166,366.24289,638.151,1.59204,277.87744,638.19824
192,1.592,-77.42704,336.28012,696.802,-19.19425,366.38242,638.44635,1.59204,277.87744,638.19824
193,1.6,-77.48958,336.42361,696.48492,-18.95128,366.71466,638.39722,1.59204,277.87744,638.19824
194,1.608,-77.48476,336.73672,696.77271,-18.87612,366.48904,638.51825,1.59204,277.87744,638.19824
195,1.617,-77.38252,336.14307,696.90631,-18.95128,366.71466,638.39722,1.59204,277.87744,638.19824
196,1.625,-77.19334,336.6452,696.72168,-19.1191,366.15674,638.56738,1.59204,277.87744,638.19824
197,1.633,-77.49432,336.19995,697.21979,-19.19651,366.01718,638.27203,1.59204,277.87744,638.19824
198,1.642,-77.49432,336.19995,697.21979,-18.87612,366.48904,638.51825,1.97738,277.58438,638.06482
199,1.65,-77.49432,336.19995,697.21979,-18.87612,366.48904,638.51825,1.97738,277.58438,638.06482
200,1.658,-76.92247,336.70029,697.15668,-19.1191,366.15674,638.56738,1.97738,277.58438,638.06482
201,1.667,-77.23625,336.72598,697.43695,-19.1191,366.15674,638.56738,4.01973,277.70569,637.59735
202,1.675,-77.13184,336.49603,697.53455,-19.00999,365.95328,638.71014,3.62587,277.84708,638.07288
203,1.683,-77.46996,336.36087,697.51733,-18.76703,366.28568,638.66101,3.2694,277.93646,638.30609
204,1.692,-76.35045,336.3927,698.28625,-19.05633,365.89703,638.7829,2.95032,277.97437,638.29645
205,1.7,-76.22054,336.71286,698.54022,-19.05633,365.89703,638.7829,2.09031,277.47046,637.87366
206,1.708,-76.86367,336.57776,698.5882,-18.57601,365.82364,638.68091,2.09031,277.47046,637.87366
