Frame#,Time,R.Forearm.x,R.Forearm.y,R.Forearm.z,R.Ulna.x,R.Ulna.y,R.Ulna.z,R.Radius.x,R.Radius.y,R.Radius.z
1,0,701.55524,-107.73113,1557.84973,800.69049,-145.76988,1542.69885,863.39465,-69.29846,1546.78491
2,0.008,701.19324,-107.14307,1557.82727,800.8255,-145.96484,1542.64832,863.39465,-69.29846,1546.78491
3,0.017,701.44843,-107.78925,1557.95593,800.8255,-145.96484,1542.64832,863.55072,-69.47084,1546.73669
4,0.025,701.23297,-107.23259,1558.02307,800.69049,-145.76988,1542.69885,863.55072,-69.47084,1546.73669
5,0.033,701.42694,-107.84041,1558.06104,800.8255,-145.96484,1542.64832,863.55072,-69.47084,1546.73669
6,0.042,701.42694,-107.84041,1558.06104,800.8255,-145.96484,1542.64832,863.55072,-69.47084,1546.73669
7,0.05,701.42694,-107.84041,1558.06104,800.8255,-145.96484,1542.64832,863.64697,-69.66751,1546.78967
8,0.058,701.42694,-107.84041,1558.06104,800.8255,-145.96484,1542.64832,863.64697,-69.66751,1546.78967
9,0.067,701.42694,-107.84041,1558.06104,800.8255,-145.96484,1542.64832,863.64697,-69.66751,1546.78967
10,0.075,701.26855,-108.01578,1558.09009,800.71295,-146.48613,1542.50281,863.64697,-69.66751,1546.78967
11,0.083,701.26855,-108.01578,1558.09009,800.71295,-146.48613,1542.50281,863.64697,-69.66751,1546.78967
12,0.092,701.07269,-108.56686,1558.29492,800.78778,-145.87518,1542.75745,863.64697,-69.66751,1546.78967
13,0.1,701.0592,-108.06109,1558.15369,800.58331,-145.70181,1542.8335,863.64697,-69.66751,1546.78967
14,0.108,701.15149,-108.72603,1558.37366,800.58911,-146.09666,1542.91089,863.64697,-69.66751,1546.78967
15,0.117,700.60913,-108.61769,1558.32581,800.17914,-146.47272,1542.65308,863.44861,-69.71545,1546.81848
16,0.125,700.59552,-108.11198,1558.18457,800.0285,-146.43639,1542.7478,863.44861,-69.71545,1546.81848
17,0.133,700.39795,-108.81506,1558.41345,800.14093,-145.91516,1542.89343,863.29907,-69.54041,1546.85535
18,0.142,700.31909,-108.65588,1558.33472,799.89343,-146.24141,1542.79834,863.29907,-69.54041,1546.85535
19,0.15,700.30542,-108.1502,1558.19348,799.87665,-145.92003,1543.07166,863.29907,-69.54041,1546.85535
20,0.158,700.30542,-108.1502,1558.19348,800.01172,-146.11501,1543.02124,863.14789,-69.61382,1546.94897
21,0.167,700.07458,-108.17103,1558.20203,799.76422,-146.44122,1542.92615,863.19629,-69.34641,1546.81372
22,0.175,700.07458,-108.17103,1558.20203,799.76422,-146.44122,1542.92615,863.19629,-69.34641,1546.81372
23,0.183,699.77155,-107.39369,1558.11511,799.87665,-145.92003,1543.07166,863.0451,-69.41981,1546.90723
24,0.192,699.77155,-107.39369,1558.11511,799.71289,-146.09962,1543.255,863.0451,-69.41981,1546.90723
25,0.2,699.77155,-107.39369,1558.11511,799.71289,-146.09962,1543.255,863.0451,-69.41981,1546.90723
26,0.208,699.77155,-107.39369,1558.11511,799.6004,-146.62079,1543.1095,862.89392,-69.49313,1547.00085
27,0.217,699.78522,-107.89925,1558.25623,799.71289,-146.09962,1543.255,862.89392,-69.49313,1547.00085
28,0.225,699.77155,-107.39369,1558.11511,799.70081,-145.91957,1543.31226,862.89392,-69.49313,1547.00085
29,0.233,699.77155,-107.39369,1558.11511,799.71289,-146.09962,1543.255,862.89392,-69.49313,1547.00085
30,0.242,699.61322,-107.5691,1558.14429,799.71289,-146.09962,1543.255,862.89392,-69.49313,1547.00085
31,0.25,699.61322,-107.5691,1558.14429,799.75684,-146.007,1543.15698,862.89392,-69.49313,1547.00085
32,0.258,699.61322,-107.5691,1558.14429,799.75684,-146.007,1543.15698,862.89392,-69.49313,1547.00085
33,0.267,699.61322,-107.5691,1558.14429,799.75684,-146.007,1543.15698,862.89392,-69.49313,1547.00085
34,0.275,699.61322,-107.5691,1558.14429,799.75684,-146.007,1543.15698,862.89392,-69.49313,1547.00085
35,0.283,699.61322,-107.5691,1558.14429,799.75684,-146.007,1543.15698,862.89392,-69.49313,1547.00085
36,0.292,699.61322,-107.5691,1558.14429,799.75684,-146.007,1543.15698,862.89392,-69.49313,1547.00085
37,0.3,699.57336,-107.51288,1558.01892,799.75684,-146.007,1543.15698,862.73792,-69.32066,1547.04895
38,0.308,699.55933,-107.6916,1558.06433,799.75684,-146.007,1543.15698,862.85541,-69.58439,1546.82556
39,0.317,699.51953,-107.63539,1557.93909,799.75684,-146.007,1543.15698,862.85541,-69.58439,1546.82556
40,0.325,699.68555,-107.38619,1557.75244,799.87665,-145.92003,1543.07166,862.85541,-69.58439,1546.82556
41,0.333,699.73853,-107.50558,1558.01331,799.87665,-145.92003,1543.07166,862.85541,-69.58439,1546.82556
42,0.342,699.68555,-107.38619,1557.75244,799.87665,-145.92003,1543.07166,862.68359,-69.33529,1546.87451
43,0.35,699.68555,-107.38619,1557.75244,799.78857,-146.00392,1542.95874,862.85541,-69.58439,1546.82556
44,0.358,699.68555,-107.38619,1557.75244,799.78857,-146.00392,1542.95874,862.68359,-69.33529,1546.87451
45,0.367,699.74829,-107.33116,1557.64587,799.78857,-146.00392,1542.95874,862.83099,-69.25564,1546.77356
46,0.375,699.74829,-107.33116,1557.64587,799.91779,-145.80405,1542.83093,862.54889,-69.29175,1546.77136
47,0.383,699.50214,-107.57574,1557.48047,799.78857,-146.00392,1542.95874,862.64203,-69.26196,1546.74207
48,0.392,699.50757,-107.47832,1557.64246,799.91779,-145.80405,1542.83093,863.00287,-69.50474,1546.72449
49,0.4,699.50214,-107.57574,1557.48047,799.91779,-145.80405,1542.83093,862.71509,-69.20969,1546.67053
50,0.408,699.56488,-107.52072,1557.3739,799.91779,-145.80405,1542.83093,862.71509,-69.20969,1546.67053
51,0.417,699.2973,-107.3798,1557.42859,799.91779,-145.80405,1542.83093,862.71509,-69.20969,1546.67053
52,0.425,699.56488,-107.52072,1557.3739,799.91779,-145.80405,1542.83093,862.68115,-68.35359,1546.4729
53,0.433,699.36005,-107.32477,1557.32202,799.91779,-145.80405,1542.83093,862.20782,-69.46551,1546.5376
54,0.442,699.36005,-107.32477,1557.32202,798.50378,-144.3945,1542.7395,862.20782,-69.46551,1546.5376
55,0.45,698.88672,-106.84521,1557.10828,799.2113,-145.09839,1542.78516,861.98059,-68.619,1546.31311
56,0.458,699.14282,-107.39851,1557.03955,798.50378,-144.3945,1542.7395,861.98059,-68.619,1546.31311
57,0.467,699.14282,-107.39851,1557.03955,798.50378,-144.3945,1542.7395,861.98059,-68.619,1546.31311
58,0.475,699.14282,-107.39851,1557.03955,798.29077,-144.37773,1542.81787,861.98059,-68.619,1546.31311
59,0.483,698.78491,-106.63892,1557.29712,798.29077,-144.37773,1542.81787,862.48773,-68.36312,1546.44604
60,0.492,698.72217,-106.69389,1557.40356,799.00446,-144.90016,1542.71899,861.98059,-68.619,1546.31311
61,0.5,698.81793,-106.527,1557.39893,797.96057,-144.19899,1542.75,861.81256,-68.69625,1546.40552
62,0.508,698.97241,-106.50831,1557.78772,797.76917,-144.2892,1542.84766,861.67108,-68.59615,1546.54407
63,0.517,698.97241,-106.50831,1557.78772,797.4389,-144.11072,1542.77991,861.67108,-68.59615,1546.54407
64,0.525,698.97241,-106.50831,1557.78772,797.4389,-144.11072,1542.77991,861.58362,-68.36418,1546.47095
65,0.533,698.81177,-106.3547,1557.82922,798.05853,-144.25443,1542.83325,862.09076,-68.10824,1546.60376
66,0.542,698.65112,-106.20104,1557.87085,797.72247,-144.25648,1542.89502,861.67108,-68.59615,1546.54407
67,0.55,698.65112,-106.20104,1557.87085,797.85168,-144.05626,1542.76709,861.16345,-68.24008,1547.20129
68,0.558,698.65112,-106.20104,1557.87085,797.61932,-144.06847,1542.80383,861.31396,-67.1847,1548.60535
69,0.567,698.69342,-106.25669,1557.995,797.49017,-144.26868,1542.93176,860.69958,-67.23329,1548.84692
70,0.575,698.54584,-106.49577,1558.16089,797.5697,-144.12772,1543.02002,860.69958,-67.23329,1548.84692
71,0.583,698.63354,-106.48152,1558.36096,797.46594,-144.05759,1543.15735,861.0957,-67.09887,1548.82239
72,0.592,698.47699,-106.51424,1558.40637,797.32434,-144.01054,1543.26709,860.80078,-67.28636,1548.93188
73,0.6,698.6781,-106.1119,1558.4978,797.453,-143.7594,1543.55603,861.0957,-67.09887,1548.82239
74,0.608,698.48431,-106.01666,1558.58801,797.48468,-143.65135,1543.72156,860.62354,-66.64468,1548.89587
75,0.617,698.51971,-106.28735,1558.52698,797.12811,-143.02057,1543.40247,860.93079,-66.50648,1548.97705
76,0.625,698.62909,-105.96338,1558.95068,797.08514,-142.97751,1543.54944,860.53784,-66.6419,1549.01233
77,0.633,698.84607,-105.88931,1559.23315,797.08514,-142.97751,1543.54944,860.68671,-67.38095,1549.1842
78,0.642,698.84607,-105.88931,1559.23315,797.08514,-142.97751,1543.54944,860.68768,-67.02057,1548.3645
79,0.65,698.71405,-105.8282,1559.34436,797.08514,-142.97751,1543.54944,861.2229,-66.86806,1548.31934
80,0.658,698.64105,-105.70432,1559.4895,797.08514,-142.97751,1543.54944,861.24847,-66.92136,1548.43103
81,0.667,698.71405,-105.8282,1559.34436,797.34009,-143.18387,1544.45142,861.24847,-66.92136,1548.43103
82,0.675,698.64105,-105.70432,1559.4895,797.58795,-143.52985,1545.29382,861.47644,-67.62035,1549.00842
83,0.683,698.64105,-105.70432,1559.4895,797.58795,-143.52985,1545.29382,861.4184,-66.81081,1549.07178
84,0.692,698.44635,-105.53406,1559.73486,797.41791,-143.10226,1545.58044,861.25775,-67.14005,1549.22144
85,0.7,698.64105,-105.70432,1559.4895,797.81879,-143.54134,1545.28589,861.34277,-67.42237,1549.25244
86,0.708,698.63855,-106.12173,1559.51257,797.58795,-143.52985,1545.29382,861.29163,-67.28153,1549.80725
87,0.717,698.53253,-105.68423,1559.6167,798.01782,-143.77512,1545.3302,861.29462,-68.33646,1549.8335
88,0.725,698.53003,-106.10165,1559.63989,797.96014,-144.07687,1545.46692,861.29462,-68.33646,1549.8335
89,0.733,698.53003,-106.10165,1559.63989,797.79285,-143.62054,1545.37012,861.34589,-68.47722,1549.27881
90,0.742,698.66589,-106.16968,1559.53125,797.85297,-143.38054,1545.61353,861.71796,-69.00182,1549.76208
91,0.75,698.66589,-106.16968,1559.53125,797.95471,-143.99411,1545.54395,861.20667,-68.13674,1549.047
92,0.758,698.77057,-106.18284,1559.40137,798.15375,-144.22806,1545.58838,861.36169,-68.59299,1549.49622
93,0.767,698.77057,-106.18284,1559.40137,798.15375,-144.22806,1545.58838,861.63257,-68.94941,1549.64526
94,0.775,698.77057,-106.18284,1559.40137,798.01721,-143.80051,1545.7948,861.70215,-68.88605,1549.54468
95,0.783,698.77057,-106.18284,1559.40137,798.15375,-144.22806,1545.58838,861.63257,-68.94941,1549.64526
96,0.792,698.73682,-106.21317,1558.80945,798.15375,-144.22806,1545.58838,861.70215,-68.88605,1549.54468
97,0.8,698.62592,-106.23605,1559.03857,798.15375,-144.22806,1545.58838,861.70215,-68.88605,1549.54468
98,0.808,698.73682,-106.21317,1558.80945,798.19092,-144.08832,1545.45886,861.70215,-68.88605,1549.54468
99,0.817,698.73682,-106.21317,1558.80945,798.25684,-144.06119,1545.25891,861.79309,-68.15307,1549.06262
100,0.825,699.05396,-106.33408,1558.72241,798.84039,-145.21956,1545.76709,861.79309,-68.15307,1549.06262
101,0.833,699.05396,-106.33408,1558.72241,798.04962,-144.03023,1544.70752,861.36182,-67.74835,1549.69995
102,0.842,699.05396,-106.33408,1558.72241,798.24963,-144.07394,1544.63074,861.51251,-68.69563,1549.79773
103,0.85,699.05396,-106.33408,1558.72241,798.44727,-144.03595,1544.44519,861.48523,-67.76114,1549.74304
104,0.858,699.01117,-106.56098,1558.60181,798.44727,-144.03595,1544.44519,861.5033,-68.11541,1549.74316
105,0.867,698.95483,-106.78879,1558.27783,798.44727,-144.03595,1544.44519,861.89252,-68.72771,1549.49927
106,0.875,699.37677,-106.91058,1558.61218,799.11407,-145.16373,1544.78259,861.89252,-68.72771,1549.49927
107,0.883,699.62451,-106.67358,1558.46594,799.19757,-145.28279,1544.62561,861.89252,-68.72771,1549.49927
108,0.892,699.40747,-106.7478,1558.18335,799.71967,-146.22296,1543.95679,862.47119,-68.60661,1549.36157
109,0.9,699.40747,-106.7478,1558.18335,799.1416,-145.36537,1544.50098,862.70074,-68.68266,1549.151
110,0.908,699.40747,-106.7478,1558.18335,799.06488,-145.55606,1544.15564,862.6814,-68.57846,1549.01965
111,0.917,699.40747,-106.7478,1558.18335,799.64404,-146.27672,1544.17505,862.6814,-68.57846,1549.01965
112,0.925,699.40747,-106.7478,1558.18335,799.74292,-146.0199,1544.43457,862.6814,-68.57846,1549.01965
113,0.933,699.40747,-106.7478,1558.18335,799.64404,-146.27672,1544.17505,862.6814,-68.57846,1549.01965
114,0.942,699.40747,-106.7478,1558.18335,799.64404,-146.27672,1544.17505,862.6814,-68.57846,1549.01965
115,0.95,699.40747,-106.7478,1558.18335,800.19983,-146.17812,1544.20947,862.4187,-68.23848,1548.37
116,0.958,699.57825,-106.78543,1558.07715,799.67712,-146.13701,1544.27161,862.4187,-68.23848,1548.37
117,0.967,699.57825,-106.78543,1558.07715,800.29883,-146.10909,1544.11755,862.4187,-68.23848,1548.37
118,0.975,699.57825,-106.78543,1558.07715,799.74304,-146.20767,1544.08301,862.4187,-68.23848,1548.37
119,0.983,699.57825,-106.78543,1558.07715,800.39935,-145.92336,1544.01038,862.42487,-68.07616,1548.7533
120,0.992,699.57825,-106.78543,1558.07715,799.84357,-146.02191,1543.97595,862.4187,-68.23848,1548.37
121,1,699.57825,-106.78543,1558.07715,800.29883,-146.10909,1544.11755,862.42487,-68.07616,1548.7533
122,1.008,699.57825,-106.78543,1558.07715,800.29883,-146.10909,1544.11755,862.42487,-68.07616,1548.7533
123,1.017,699.57825,-106.78543,1558.07715,800.29883,-146.10909,1544.11755,862.6814,-68.57846,1549.01965
124,1.025,699.57825,-106.78543,1558.07715,800.39935,-145.92336,1544.01038,862.4187,-68.23848,1548.37
125,1.033,699.77155,-107.39369,1558.11511,800.39935,-145.92336,1544.01038,862.4187,-68.23848,1548.37
126,1.042,699.77155,-107.39369,1558.11511,800.39935,-145.92336,1544.01038,862.6814,-68.57846,1549.01965
127,1.05,699.98859,-107.31942,1558.39771,800.39935,-145.92336,1544.01038,862.4187,-68.23848,1548.37
128,1.058,700.16077,-107.19757,1558.07751,800.29883,-146.10909,1544.11755,862.57104,-68.67914,1548.33521
129,1.067,699.92993,-107.21836,1558.08594,800.29883,-146.10909,1544.11755,862.89697,-68.97727,1548.80713
130,1.075,700.37781,-107.12333,1558.36011,800.23474,-146.03046,1544.30176,863.20178,-68.68283,1548.20459
131,1.083,700.16077,-107.19757,1558.07751,800.46387,-146.06071,1544.15198,862.67285,-68.74337,1548.24451
132,1.092,700.37781,-107.12333,1558.36011,800.46387,-146.06071,1544.15198,863.21271,-68.75993,1548.31934
133,1.1,700.00238,-107.37289,1558.10657,800.66327,-145.61815,1544.30444,863.21271,-68.75993,1548.31934
134,1.108,700.16077,-107.19757,1558.07751,800.38947,-145.94524,1544.5542,863.21271,-68.75993,1548.31934
135,1.117,700.32831,-107.46793,1558.43811,800.36487,-146.12975,1544.2439,863.31665,-68.69456,1548.25281
136,1.125,700.71338,-107.21127,1558.48853,800.56274,-145.80389,1544.4115,863.31665,-68.69456,1548.25281
137,1.133,700.77686,-107.25443,1558.40015,800.52258,-146.04736,1544.34998,863.46881,-68.6413,1548.21716
138,1.142,701.20563,-107.78642,1558.50671,800.45746,-146.0316,1544.3584,863.31665,-68.69456,1548.25281
139,1.15,701.20563,-107.78642,1558.50671,800.65692,-145.58899,1544.51086,863.54395,-68.83591,1548.26489
140,1.158,701.20563,-107.78642,1558.50671,800.61786,-145.85983,1544.51807,863.39178,-68.88919,1548.30054
141,1.167,701.20563,-107.78642,1558.50671,800.61786,-145.85983,1544.51807,863.39178,-68.88919,1548.30054
142,1.175,701.28436,-107.94556,1558.58533,800.61786,-145.85983,1544.51807,863.54395,-68.83591,1548.26489
143,1.183,701.29797,-108.45141,1558.72656,800.61786,-145.85983,1544.51807,863.55957,-69.21293,1548.54553
144,1.192,701.42889,-107.89251,1558.94788,800.61786,-145.85983,1544.51807,863.54395,-68.83591,1548.26489
145,1.2,701.28436,-107.94556,1558.58533,800.61786,-145.85983,1544.51807,863.54395,-68.83591,1548.26489
146,1.208,701.12604,-108.12092,1558.6145,800.61786,-145.85983,1544.51807,863.54395,-68.83591,1548.26489
147,1.217,701.35498,-108.1459,1558.51501,800.85278,-145.86725,1544.48767,863.54395,-68.83591,1548.26489
148,1.225,701.13965,-108.62672,1558.75574,800.61786,-145.85983,1544.51807,863.54395,-68.83591,1548.26489
149,1.233,701.12604,-108.12092,1558.6145,800.85278,-145.86725,1544.48767,863.54395,-68.83591,1548.26489
150,1.242,701.13965,-108.62672,1558.75574,800.85278,-145.86725,1544.48767,863.54395,-68.83591,1548.26489
151,1.25,701.36853,-108.65172,1558.65625,800.85278,-145.86725,1544.48767,863.54395,-68.83591,1548.26489
152,1.258,701.36853,-108.65172,1558.65625,800.61786,-145.85983,1544.51807,863.55957,-69.21293,1548.54553
153,1.267,701.35498,-108.1459,1558.51501,800.85278,-145.86725,1544.48767,863.65295,-69.00578,1548.2467
154,1.275,701.51312,-108.59867,1559.01892,800.9856,-146.96707,1544.4187,863.65295,-69.00578,1548.2467
155,1.283,701.52686,-108.4764,1558.62708,800.9856,-146.96707,1544.4187,863.66858,-69.38282,1548.52734
156,1.292,701.36853,-108.65172,1558.65625,800.84705,-146.73282,1544.47363,863.79327,-69.36882,1548.54126
157,1.3,701.51312,-108.59867,1559.01892,801.17578,-147.03058,1544.99402,863.51642,-69.4361,1548.56311
158,1.308,701.51312,-108.59867,1559.01892,800.9856,-146.96707,1544.4187,863.86841,-69.02742,1548.33728
159,1.317,701.51312,-108.59867,1559.01892,801.17578,-147.03058,1544.99402,863.88409,-69.4045,1548.61792
160,1.325,701.51312,-108.59867,1559.01892,800.9856,-146.96707,1544.4187,863.79327,-69.36882,1548.54126
161,1.333,701.51312,-108.59867,1559.01892,801.17578,-147.03058,1544.99402,863.88409,-69.4045,1548.61792
162,1.342,701.51312,-108.59867,1559.01892,801.13849,-147.16997,1545.12341,863.88409,-69.4045,1548.61792
163,1.35,701.51312,-108.59867,1559.01892,801.17578,-147.03058,1544.99402,863.88409,-69.4045,1548.61792
164,1.358,701.6347,-108.65862,1559.16638,801.26978,-147.05759,1545.36572,863.88409,-69.4045,1548.61792
165,1.367,701.6347,-108.65862,1559.16638,801.13849,-147.16997,1545.12341,864.19098,-69.21093,1548.7207
166,1.375,701.6347,-108.65862,1559.16638,801.13849,-147.16997,1545.12341,864.05396,-69.51609,1548.86108
167,1.383,701.6347,-108.65862,1559.16638,801.23254,-147.19696,1545.495,864.55591,-70.35838,1549.62341
168,1.392,702.00885,-108.73103,1559.22803,801.23254,-147.19696,1545.495,864.9101,-70.35611,1549.81018
169,1.4,701.6347,-108.65862,1559.16638,801.26434,-147.10385,1545.21643,864.77307,-70.66123,1549.95044
170,1.408,701.99536,-108.76302,1559.2937,801.26434,-147.10385,1545.21643,864.77307,-70.66123,1549.95044
171,1.417,702.00885,-108.73103,1559.22803,801.43896,-147.16042,1545.73608,864.74731,-70.78695,1550.08398
172,1.425,702.16711,-108.55577,1559.19885,801.43896,-147.16042,1545.73608,864.8844,-70.4818,1549.94373
173,1.433,702.36407,-108.53995,1559.19592,801.43896,-147.16042,1545.73608,864.74731,-70.78695,1550.08398
174,1.442,702.58044,-108.55339,1559.2583,801.43896,-147.16042,1545.73608,864.74731,-70.78695,1550.08398
175,1.45,702.58044,-108.55339,1559.2583,801.43896,-147.16042,1545.73608,864.76196,-70.08939,1550.03479
176,1.458,702.58044,-108.55339,1559.2583,801.43896,-147.16042,1545.73608,864.76196,-70.08939,1550.03479
177,1.467,702.58044,-108.55339,1559.2583,801.98157,-147.16702,1545.74866,864.74731,-70.78695,1550.08398
178,1.475,702.58044,-108.55339,1559.2583,801.98157,-147.16702,1545.74866,864.74731,-70.78695,1550.08398
179,1.483,702.86975,-108.52797,1559.22839,801.98157,-147.16702,1545.74866,864.74799,-70.9099,1549.74121
180,1.492,702.86975,-108.52797,1559.22839,801.98157,-147.16702,1545.74866,864.74731,-70.78695,1550.08398
181,1.5,702.86975,-108.52797,1559.22839,802.09967,-147.25645,1545.86255,864.74731,-70.78695,1550.08398
182,1.508,702.86975,-108.52797,1559.22839,802.09967,-147.25645,1545.86255,864.74799,-70.9099,1549.74121
183,1.517,702.86975,-108.52797,1559.22839,802.17542,-146.99335,1545.78833,864.88507,-70.60474,1549.60095
184,1.525,702.86975,-108.52797,1559.22839,802.29352,-147.08278,1545.90222,864.8844,-70.4818,1549.94373
185,1.533,703.13452,-108.70328,1559.19739,802.29352,-147.08278,1545.90222,864.8844,-70.4818,1549.94373
186,1.542,703.02252,-108.54169,1559.28162,802.29352,-147.08278,1545.90222,864.88507,-70.60474,1549.60095
187,1.55,703.13452,-108.70328,1559.19739,802.67883,-147.11929,1545.69971,865.3136,-70.48074,1549.52576
188,1.558,703.13452,-108.70328,1559.19739,802.854,-147.19365,1545.83606,865.3136,-70.48074,1549.52576
189,1.567,703.31146,-108.62756,1559.28015,802.93011,-147.28162,1545.7207,865.3136,-70.48074,1549.52576
190,1.575,703.31146,-108.62756,1559.28015,802.93011,-147.28162,1545.7207,865.3136,-70.48074,1549.52576
191,1.583,703.45575,-108.51495,1559.1864,803.08826,-147.31444,1545.68213,865.3136,-70.48074,1549.52576
192,1.592,703.45575,-108.51495,1559.1864,803.2804,-147.22192,1545.82361,865.62354,-70.23475,1549.7124
193,1.6,703.45575,-108.51495,1559.1864,803.41541,-146.86345,1545.54456,865.5108,-70.37404,1549.42505
