Frame#,Time,L.Forearm.x,L.Forearm.y,L.Forearm.z,L.Ulna.x,L.Ulna.y,L.Ulna.z,L.Radius.x,L.Radius.y,L.Radius.z
1,0,77.8726,177.46315,974.39905,163.12904,192.53978,981.80664,214.8714,107.70392,1018.15167
2,0.008,78.39688,176.77435,975.21332,162.98894,191.76085,982.9425,215.01683,107.45734,1018.07379
3,0.017,78.91966,175.80574,976.01813,162.59956,191.4872,983.35571,215.40973,107.36436,1018.2099
4,0.025,79.2542,174.42114,976.28314,162.76869,191.46901,983.45453,215.44824,107.18334,1017.82843
5,0.033,79.37708,173.37143,976.77252,163.04013,189.9837,982.99811,216.20763,106.65247,1017.82886
6,0.042,79.40641,173.23021,976.89893,163.15623,189.86928,982.90814,216.75108,106.3808,1017.823
7,0.05,79.69664,173.17105,977.21381,163.15623,189.86928,982.90814,218.01414,105.28639,1018.00476
8,0.058,79.59077,172.98483,977.21301,163.72867,189.67761,983.08112,218.76508,104.52599,1018.14001
9,0.067,79.60573,172.77737,977.45026,164.08582,189.54326,983.13983,218.82808,104.86671,1017.74585
10,0.075,79.79137,172.47964,977.59747,164.58875,189.45729,983.11688,219.49219,104.92231,1017.92175
11,0.083,79.73499,172.28178,977.56824,164.6821,189.38953,983.16364,219.44431,104.9186,1017.711
12,0.092,79.83134,172.14272,977.69861,164.6821,189.38953,983.16364,219.74629,105.36562,1016.94836
13,0.1,80.08873,171.40485,978.0849,164.79378,189.3506,983.17657,220.27376,105.17814,1016.87134
14,0.108,79.98077,171.19443,978.21136,164.79378,189.3506,983.17657,220.48589,105.07006,1016.40356
15,0.117,80.09169,171.1741,978.39819,164.79378,189.3506,983.17657,220.93173,105.10931,1015.82312
16,0.125,80.09169,171.1741,978.39819,165.23621,188.81061,983.28461,220.93173,105.10931,1015.82312
17,0.133,80.09169,171.1741,978.39819,164.91423,188.93793,983.34583,220.93173,105.10931,1015.82312
18,0.142,80.39804,170.35165,978.43658,165.27904,188.5983,983.41443,221.2579,105.54898,1015.59064
19,0.15,80.19147,169.92812,978.56415,165.27904,188.5983,983.41443,221.60339,105.63937,1015.61804
20,0.158,80.19147,169.92812,978.56415,165.27904,188.5983,983.41443,221.6113,105.40476,1015.53528
21,0.167,80.87545,169.08975,978.37872,165.27904,188.5983,983.41443,221.02881,103.92274,1014.53522
22,0.175,80.72023,169.34621,978.67322,165.34119,188.15819,983.33417,221.54704,104.52108,1014.13055
23,0.183,80.83687,169.20001,978.42383,165.31543,187.69272,983.15021,221.6711,104.29246,1013.70581
24,0.192,80.9906,168.59241,978.24365,165.96245,187.41441,982.93347,221.64737,104.41966,1013.35785
25,0.2,81.50655,167.95468,978.25226,166.01678,186.79501,982.99188,221.91916,104.10032,1013.34766
26,0.208,81.13916,168.06485,978.39435,166.01678,186.79501,982.99188,221.92358,103.90363,1013.39722
27,0.217,81.2842,168.01076,978.30811,166.01028,186.99274,982.99579,221.83818,104.17003,1013.31885
28,0.225,81.52274,167.66426,978.28278,166.01678,186.79501,982.99188,222.12341,103.83887,1013.3136
29,0.233,81.50655,167.95468,978.25226,166.01028,186.99274,982.99579,222.49866,103.30872,1013.15869
30,0.242,81.17908,168.08443,978.15332,166.01028,186.99274,982.99579,222.26567,103.55334,1012.85413
31,0.25,81.19522,167.79408,978.18384,166.01678,186.79501,982.99188,221.78697,103.37748,1012.42957
32,0.258,81.09011,167.86775,978.02905,165.91728,186.60211,982.72156,222.2198,103.45848,1012.31793
33,0.267,80.95252,167.7115,977.94519,165.91568,186.78242,982.71533,222.43985,103.36481,1012.19702
34,0.275,80.71735,167.47447,977.64227,165.9951,186.66739,982.54474,222.52525,103.09849,1012.27539
35,0.283,80.60582,167.46355,977.3963,166.17888,186.87079,982.25739,222.43985,103.36481,1012.19702
36,0.292,80.43628,167.49393,977.35663,166.05757,187.05659,981.9259,222.29602,103.31959,1012.07965
37,0.3,80.18188,167.60443,977.31512,165.63606,186.75897,981.52216,221.77783,103.50482,1012.11292
38,0.308,79.70344,168.15994,977.24854,165.00626,187.47409,981.03192,221.27086,102.26917,1012.36676
39,0.317,79.86425,168.10812,977.09412,164.89211,187.75276,980.73108,221.18814,103.15694,1011.97876
40,0.325,79.6852,168.6118,976.5423,164.57616,187.81921,980.32007,221.18814,103.15694,1011.97876
41,0.333,79.83033,168.55759,976.45605,164.49835,187.74825,979.81665,221.2227,102.98042,1011.81183
42,0.342,79.55468,169.40523,975.52917,164.38832,187.9536,979.49323,220.92424,103.95826,1010.95538
43,0.35,79.49303,169.57025,974.67511,164.22841,187.87056,978.88452,221.05176,104.18697,1009.38696
44,0.358,79.44061,169.57051,974.50836,163.74712,188.45998,978.5929,220.92979,104.20704,1009.24664
45,0.367,79.28193,170.16216,973.49396,163.59804,188.99588,978.1311,220.68069,103.47408,1008.64575
46,0.375,79.18892,170.64758,972.93365,163.79286,189.26205,977.77875,220.28252,104.11803,1008.54816
47,0.383,78.85675,170.56995,972.16962,163.8197,189.77534,977.46381,220.08844,104.26586,1008.38684
48,0.392,78.35434,170.7361,971.63977,163.43695,189.82503,976.57776,219.31328,105.00417,1008.2215
49,0.4,77.77282,170.91838,971.44629,163.42929,190.23903,975.90601,218.60396,105.30604,1007.68542
50,0.408,77.70053,171.44087,971.00787,163.31908,190.23965,975.66626,218.35246,105.75154,1007.68579
51,0.417,77.20621,172.24155,970.96832,163.43271,190.37054,974.51788,216.83728,106.60612,1007.32434
52,0.425,76.44026,172.90332,969.97333,161.76283,189.54985,973.30267,215.55141,107.80878,1005.91431
53,0.433,75.59909,174.39227,969.19794,161.06642,190.88084,972.06403,215.55141,107.80878,1005.91431
54,0.442,75.70625,175.13602,967.24573,161.00047,190.99138,971.60394,215.24165,107.38675,1005.90216
55,0.45,76.05072,176.15117,966.1651,160.45758,191.77882,970.67657,214.76918,106.22475,1006.76959
56,0.458,75.82043,176.96204,965.474,160.40077,191.83034,969.86426,213.22029,106.42955,1005.19928
57,0.467,74.99658,177.55759,964.62067,159.43489,192.36572,969.03418,211.28629,106.76187,1004.78931
58,0.475,74.53082,177.95149,962.88666,159.43149,192.65729,968.26569,209.68533,108.40934,1004.16077
59,0.483,72.90385,179.44008,961.42035,158.63832,193.452,967.4516,209.04047,107.84233,1003.56049
60,0.492,72.34389,180.46678,959.88385,158.08884,193.16524,966.06012,207.58269,108.07907,1003.172
61,0.5,71.92561,181.18962,959.23395,156.78415,193.8152,965.07507,207.45409,109.03559,1002.77576
62,0.508,71.51213,181.76492,958.27997,156.18941,194.91849,963.30621,205.25641,110.6874,1002.10992
63,0.517,70.67232,181.75084,956.6698,156.21712,196.05624,962.60211,204.2538,111.63715,1002.50415
64,0.525,70.4106,183.02844,955.5896,154.88547,195.85631,960.90387,201.97495,110.88383,1002.32892
65,0.533,68.63589,184.95544,953.36847,153.29532,196.89188,959.27722,201.66582,110.96364,1001.85675
66,0.542,67.81789,185.12833,951.58936,153.31506,197.10005,958.23425,199.52837,111.82217,1001.02924
67,0.55,67.69266,186.10506,950.13483,153.0696,198.27357,956.37585,196.72482,112.84832,1000.45978
68,0.558,66.86684,187.36597,948.90295,152.0674,199.44193,954.8949,195.02594,114.58858,999.90179
69,0.567,64.62291,189.43867,946.38928,150.46985,199.45265,953.49054,192.9557,115.92189,998.34753
70,0.575,64.10431,190.2121,944.31909,150.08351,199.83919,951.43396,191.45866,116.71417,998.0567
71,0.583,63.11368,190.99112,942.40204,148.83955,200.2437,950.00043,190.08173,116.06458,996.36639
72,0.592,61.08693,192.64972,940.52362,146.46387,202.00629,948.7677,186.46906,116.85827,995.64008
73,0.6,60.05947,194.26607,938.21002,144.11674,200.56413,947.66559,184.09431,117.67628,994.20673
74,0.608,58.56783,195.12675,936.16669,143.30559,202.53699,945.45697,182.27757,116.51414,993.61475
75,0.617,57.46207,196.25264,933.79126,141.47939,202.84613,943.89166,179.92799,117.65965,992.95294
76,0.625,55.84669,198.01089,930.94238,140.25835,203.56854,941.87561,176.25105,119.634,991.09796
77,0.633,54.38872,198.43181,929.58234,139.35178,203.70161,939.69293,174.3791,119.32825,989.18945
78,0.642,52.70337,198.79184,926.52295,137.28769,204.99886,938.4646,171.50601,121.16708,988.47119
79,0.65,51.36898,201.12909,924.6239,136.46071,204.60699,935.97882,169.43495,120.44422,987.63434
80,0.658,49.57732,201.55031,922.49762,135.35797,204.94357,933.52338,165.60619,121.39671,986.38452
81,0.667,48.82868,202.63205,920.17493,132.94624,205.05095,931.69513,163.5799,121.93299,985.46637
82,0.675,47.61525,203.78485,918.12463,132.6496,205.80423,929.48761,161.80988,121.92115,984.98315
83,0.683,45.20309,205.38988,915.45422,130.43279,205.70605,927.81915,158.06172,124.05585,985.1026
84,0.692,44.20116,205.49846,913.6922,128.69196,206.33623,925.18793,154.60466,125.09365,984.67102
85,0.7,42.59141,207.96953,910.79138,127.15159,207.77235,923.45581,151.16563,125.88512,983.38867
86,0.708,40.59152,209.59998,908.83252,125.45606,208.56735,921.42859,149.10532,126.55867,982.96411
87,0.717,39.35817,209.9164,906.57251,123.90877,209.37793,919.31781,145.63171,128.56104,981.06464
88,0.725,37.66091,211.01448,903.35883,121.15775,209.49258,917.71399,142.97745,129.35921,980.16705
89,0.733,35.74604,212.52663,901.29449,119.71081,209.46204,915.22339,139.35333,131.45264,979.46564
90,0.742,33.92551,212.98076,898.51654,117.11789,209.81905,912.96771,136.98151,130.18816,978.49744
91,0.75,32.11328,214.74147,895.35425,115.67315,210.42102,911.67493,132.68808,132.19685,977.65503
92,0.758,30.02721,215.63658,893.94708,113.94468,210.70105,909.11078,129.8632,133.089,976.65033
93,0.767,28.57211,216.13324,890.86804,111.37949,210.98436,907.20911,126.41119,135.38693,976.45477
94,0.775,26.85971,217.55591,888.75574,110.03653,211.70842,905.67078,123.43082,135.19331,974.91431
95,0.783,24.19288,218.40187,886.55316,107.23785,211.7178,903.75446,119.90529,137.97429,973.95349
96,0.792,22.68748,218.51912,883.82495,105.58491,211.64323,901.64478,115.35568,139.06503,972.53943
97,0.8,20.0799,219.80806,881.86969,102.42973,211.88174,900.17719,112.13676,138.30496,972.30347
98,0.808,18.59998,220.59871,878.92804,100.93911,211.80145,897.67877,108.70126,140.31058,969.35876
99,0.817,16.60843,222.22131,876.05188,98.02728,212.59543,895.6778,105.38207,140.09378,968.77618
100,0.825,14.61824,223.30826,873.49762,96.28813,213.05884,893.94946,101.35835,141.49977,967.724
101,0.833,12.03758,223.64882,871.55444,93.26888,212.52217,892.18634,97.88388,142.04733,967.05695
102,0.842,11.17474,224.8667,868.67255,91.03646,212.64766,890.3808,93.90829,143.24258,966.38031
103,0.85,7.60403,225.20129,866.59796,88.76902,212.561,888.17358,89.35548,145.60451,965.32971
104,0.858,6.23861,225.05296,865.03168,86.73466,212.50378,887.04059,87.28833,143.61369,964.64056
105,0.867,4.83319,226.03714,861.72681,84.55274,212.61472,885.2312,82.3474,147.49152,963.54437
106,0.875,2.13908,226.49495,859.89496,82.49315,213.10281,882.86945,79.99866,146.74889,963.26569
107,0.883,0.33383,226.75233,858.10889,79.50492,211.96136,881.62506,75.80757,149.6389,961.96613
108,0.892,-1.11675,227.27525,855.31055,77.28783,211.6815,879.73834,71.56082,152.41542,960.4646
109,0.9,-3.85659,228.15771,853.38049,74.83496,212.28873,877.73688,68.83214,151.84627,960.33643
110,0.908,-5.38683,229.25389,851.14001,73.87312,212.61432,876.85706,65.03119,154.21281,959.44037
111,0.917,-6.91051,228.82068,848.29938,70.70217,211.7359,874.30975,61.27681,155.37654,958.21857
112,0.925,-9.28872,230.63725,846.70911,69.03769,211.30695,872.64252,57.59138,157.41451,957.1908
113,0.933,-11.1646,231.29716,844.81537,66.3186,211.13187,871.6441,53.8793,158.38023,957.33844
114,0.942,-13.12335,231.0945,843.51886,63.90855,210.78398,870.26807,50.50537,157.39627,955.4892
115,0.95,-14.7796,232.07346,840.03821,60.69176,211.41805,868.62964,46.4537,160.75598,953.97858
116,0.958,-16.33455,232.9651,838.67688,59.45807,210.73911,867.40454,43.67,160.70679,953.37378
117,0.967,-18.32613,232.80672,837.03424,55.83475,210.6945,865.98041,38.37083,161.04739,952.99579
118,0.975,-21.23139,233.49611,835.13171,54.48344,210.74957,864.97229,35.48408,162.50526,951.64618
119,0.983,-23.10659,233.99756,832.43793,51.29023,210.21577,863.67267,30.95677,162.0797,950.54913
120,0.992,-25.21672,233.45612,830.81738,48.63517,209.80344,862.91919,26.92511,164.13539,949.74554
121,1,-27.7646,233.08012,829.77399,45.92134,210.07397,861.70453,23.5774,163.28972,949.27875
122,1.008,-30.03152,233.2429,827.42096,43.68372,209.25552,860.4342,20.70129,163.903,946.87665
123,1.017,-31.59531,233.09084,825.612,42.79431,208.24876,859.94696,16.49114,164.85565,946.4566
124,1.025,-32.46199,233.1338,824.71735,40.03338,208.74065,858.95752,14.2111,164.73798,945.50073
125,1.033,-34.69057,233.53099,823.87555,37.64174,207.33798,858.03564,10.2541,165.62601,944.44305
126,1.042,-36.63408,233.28777,822.66907,36.46463,206.59174,857.4939,8.98564,166.58896,943.8222
127,1.05,-37.51601,233.47105,821.29999,34.24892,206.01663,856.60419,4.66516,167.63123,943.69055
128,1.058,-39.10182,233.02029,820.71173,32.31292,205.17192,856.27692,1.48865,166.91733,943.39038
129,1.067,-40.76246,233.24535,819.71411,29.27872,204.92094,855.71667,-0.9375,168.88173,943.27399
130,1.075,-41.04523,233.92186,819.18152,27.4987,205.01108,855.67853,-3.92353,168.76256,942.54346
131,1.083,-42.82169,233.23163,817.58716,26.10341,204.38472,855.12561,-8.13924,169.5043,942.05005
132,1.092,-45.16542,233.05798,816.41949,23.32984,203.17535,854.87408,-10.59276,170.36183,941.54205
133,1.1,-45.50131,232.97,815.32581,21.32488,203.31117,854.19171,-13.21147,170.42531,941.11279
134,1.108,-46.87987,233.09468,814.70081,19.56043,202.52014,853.89325,-16.76741,170.23767,940.97095
135,1.117,-48.83588,233.79529,814.04633,17.85816,202.60992,853.40332,-18.43916,171.33336,940.38019
136,1.125,-50.21487,233.09854,813.73914,16.25367,202.04085,852.76447,-21.23538,171.98201,939.69922
137,1.133,-51.2935,232.82709,813.23615,14.56666,201.52042,852.49341,-24.18198,171.37567,938.9599
138,1.142,-52.265,231.08426,812.97437,13.00454,200.14716,851.82513,-26.62997,171.69492,939.25873
139,1.15,-52.67378,231.94479,812.26074,11.85863,200.05894,851.91858,-29.09195,172.61736,938.71332
140,1.158,-53.9094,231.48811,812.69281,10.324,199.35344,851.82837,-31.69127,172.15408,938.4505
141,1.167,-54.9536,231.18719,811.71405,8.47548,199.08823,851.8537,-34.22867,171.58531,938.24261
142,1.175,-55.3559,231.56584,811.15442,7.04977,197.54341,851.75421,-36.14165,172.22633,937.94977
143,1.183,-55.92039,231.96452,811.02545,6.09006,196.92932,851.4267,-38.15887,172.45689,937.3714
144,1.192,-56.97166,231.83502,810.50043,5.09587,196.78566,851.27051,-39.84595,171.75063,937.06036
145,1.2,-58.29529,230.95319,809.71411,3.19332,196.98123,851.61377,-42.90726,171.86476,937.01764
146,1.208,-58.80366,230.8046,809.60156,1.55405,196.37955,851.73456,-44.5178,172.30806,936.69232
147,1.217,-59.77768,231.11476,809.396,0.4781,195.81044,851.64526,-45.46154,171.43271,936.41412
148,1.225,-60.54543,229.7883,808.9375,-0.03845,194.71396,851.38428,-46.92824,171.3689,936.09296
149,1.233,-61.12709,229.2249,809.04749,-0.98162,194.38118,851.27032,-49.17578,170.99869,935.5329
150,1.242,-61.99959,228.93671,808.93018,-1.31437,193.50114,851.20313,-50.2319,171.43831,935.11792
151,1.25,-61.99959,228.93671,808.93018,-2.97016,192.75134,851.11145,-50.86562,171.13631,935.2381
152,1.258,-62.76085,227.97008,808.71838,-4.45941,191.52507,851.48755,-52.68981,172.13219,935.61646
153,1.267,-62.76248,228.06589,808.63,-4.74867,191.04422,851.26208,-53.87167,171.19577,934.98627
154,1.275,-63.58392,228.34558,808.34698,-5.64814,190.66473,851.61261,-55.78149,171.5851,934.76801
155,1.283,-63.84485,228.3576,807.99713,-6.39275,190.60641,851.63525,-57.24053,172.12596,934.35834
156,1.292,-64.30489,228.30228,807.74268,-7.21451,189.30083,851.42871,-58.66658,172.39401,934.5166
157,1.3,-64.6735,228.20045,807.54309,-8.6469,189.57518,851.25708,-59.35265,172.13899,934.34662
158,1.308,-65.22501,228.30702,807.41638,-9.31661,188.63184,851.19788,-60.79217,171.40736,934.15942
159,1.317,-65.7371,227.5891,806.88184,-10.58507,187.7224,851.48004,-62.03155,171.04575,934.17352
160,1.325,-66.11814,227.06401,806.66235,-11.26662,187.50655,851.57642,-63.83787,171.31035,934.32751
161,1.333,-66.33836,226.79898,806.8269,-12.18736,187.53674,851.37933,-65.59116,170.98018,933.21729
162,1.342,-66.88204,225.83269,807.06805,-13.06069,185.48907,851.55261,-66.82643,170.8261,933.76624
163,1.35,-67.20584,224.61667,807.54883,-12.98426,185.09631,851.96423,-67.65616,170.49574,933.74927
164,1.358,-67.28172,224.40762,807.64148,-14.4183,184.26683,852.38947,-68.85913,170.43027,934.07635
165,1.367,-67.28172,224.40762,807.64148,-14.86796,184.4447,852.42328,-69.48646,171.27565,933.39679
166,1.375,-67.44016,224.41429,807.67615,-15.10698,184.2196,853.02332,-71.44724,171.1754,933.25781
167,1.383,-67.41492,224.58231,807.82916,-16.09188,184.29918,853.44604,-73.26617,170.16701,933.7663
168,1.392,-67.99634,224.58034,807.81104,-16.74272,183.62921,853.50903,-73.57633,170.74918,933.5976
169,1.4,-68.34689,224.89883,807.71838,-17.39047,183.20728,853.85907,-74.61497,170.96492,933.68231
170,1.408,-68.61636,224.69116,807.79657,-17.9875,182.93028,854.08807,-75.09151,170.85124,933.51001
171,1.417,-69.15159,224.18497,807.69836,-19.35291,183.0619,854.37274,-75.7163,170.4751,933.47827
172,1.425,-69.84148,223.9753,807.75323,-19.36771,182.74698,854.52911,-76.30984,171.20558,933.6629
173,1.433,-70.22908,223.59276,808.12445,-19.73486,182.24757,854.59155,-77.23051,171.71028,933.73053
174,1.442,-70.53372,223.32144,808.28931,-20.16198,182.20758,854.70355,-78.08739,172.31284,933.70544
175,1.45,-70.66469,223.31511,808.15015,-20.67491,181.69186,855.20795,-79.12782,172.3775,933.75977
176,1.458,-71.33311,222.98317,808.58771,-20.87135,181.52826,855.21381,-79.76726,172.26505,933.95325
177,1.467,-71.43163,223.23166,808.26849,-21.59651,180.98238,855.1709,-80.30838,172.07251,934.05029
178,1.475,-71.86154,222.73714,808.63275,-21.72261,181.09338,855.34064,-80.64294,172.97852,933.86053
179,1.483,-71.91952,222.64156,808.73602,-21.80708,181.19833,855.27527,-81.05846,172.81529,933.53778
180,1.492,-72.14169,222.79311,808.17548,-22.12093,180.80676,855.39673,-81.53899,172.97778,933.32312
181,1.5,-72.19736,222.58415,808.37543,-22.84937,181.22945,855.79584,-81.64854,173.11447,933.12885
182,1.508,-72.14171,222.73628,808.02332,-24.00764,181.25412,856.12195,-82.98113,172.82123,932.68256
183,1.517,-73.03661,223.36768,807.94769,-24.57535,181.29912,856.08551,-84.58982,173.9731,933.16577
184,1.525,-72.93513,223.22504,807.90295,-24.57535,181.29912,856.08551,-85.02323,174.34798,933.09711
185,1.533,-73.1933,223.24811,807.75641,-24.81888,181.65926,855.98364,-85.47933,174.0993,932.87469
186,1.542,-73.55455,223.5798,807.91431,-25.19322,181.81891,855.92334,-85.93985,174.17242,932.7066
187,1.55,-73.9553,223.70178,807.89471,-25.19322,181.81891,855.92334,-86.04345,174.24559,932.65192
188,1.558,-73.9553,223.70178,807.89471,-25.19322,181.81891,855.92334,-86.37287,174.30315,932.65692
189,1.567,-73.9553,223.70178,807.89471,-25.19322,181.81891,855.92334,-86.51035,174.64063,932.68909
190,1.575,-73.9553,223.70178,807.89471,-25.33918,181.91533,855.75543,-86.51035,174.64063,932.68909
191,1.583,-73.9553,223.70178,807.89471,-25.33918,181.91533,855.75543,-86.63035,174.78372,932.80762
192,1.592,-73.9553,223.70178,807.89471,-25.33918,181.91533,855.75543,-86.63035,174.78372,932.80762
193,1.6,-73.9553,223.70178,807.89471,-25.33918,181.91533,855.75543,-86.63035,174.78372,932.80762
194,1.608,-73.74657,223.94096,807.93805,-25.33918,181.91533,855.75543,-86.43824,175.22997,932.77661
195,1.617,-74.06884,223.99675,807.78961,-25.57184,182.14439,855.56458,-86.68533,175.22749,932.65192
196,1.625,-74.06884,223.99675,807.78961,-25.57184,182.14439,855.56458,-86.87758,175.20262,932.48969
197,1.633,-74.34608,224.87843,807.62689,-25.68409,182.15828,855.3606,-86.96339,175.44414,932.49188
198,1.642,-74.65966,225.29024,807.62762,-25.85538,182.46318,854.85126,-86.90636,175.52686,932.34601
199,1.65,-74.7926,225.46278,806.93121,-26.4696,182.46391,853.85138,-87.34164,175.33325,932.07825
200,1.658,-74.7926,225.46278,806.93121,-27.09785,182.46933,853.75348,-87.73608,175.24393,931.74915
201,1.667,-75.11479,225.51849,806.78278,-27.3713,182.74542,853.6546,-87.82139,175.09286,931.61694
202,1.675,-76.00592,225.64926,806.74982,-27.46156,182.63139,853.50616,-88.42733,175.44685,931.60559
203,1.683,-75.59256,226.14467,806.40228,-27.59291,182.39156,853.36993,-88.79773,175.1075,931.17712
204,1.692,-76.28081,225.62434,806.33246,-27.54658,182.60464,853.43677,-89.72413,174.92528,931.02155
