Frame#,Time,R.Forearm.x,R.Forearm.y,R.Forearm.z,R.Ulna.x,R.Ulna.y,R.Ulna.z,R.Radius.x,R.Radius.y,R.Radius.z
1,0,-136.90776,-105.11217,643.47382,-102.44007,-99.95618,561.32178,-43.11205,-36.78234,573.67059
2,0.008,-136.90776,-105.11217,643.47382,-102.44711,-100.06406,561.23267,-43.11205,-36.78234,573.67059
3,0.017,-136.72256,-105.15751,643.65656,-102.06214,-99.83856,561.28851,-43.11205,-36.78234,573.67059
4,0.025,-136.72256,-105.15751,643.65656,-101.99957,-100.10963,561.34277,-43.11205,-36.78234,573.67059
5,0.033,-136.76691,-105.15038,643.49664,-102.06214,-99.83856,561.28851,-43.11205,-36.78234,573.67059
6,0.042,-136.72256,-105.15751,643.65656,-102.06214,-99.83856,561.28851,-43.11205,-36.78234,573.67059
7,0.05,-136.58171,-105.19576,643.67938,-102.06214,-99.83856,561.28851,-43.11411,-36.57749,573.69458
8,0.058,-136.58171,-105.19576,643.67938,-102.06214,-99.83856,561.28851,-42.84979,-36.92028,573.66309
9,0.067,-136.58171,-105.19576,643.67938,-102.06918,-99.94646,561.1994,-42.84979,-36.92028,573.66309
10,0.075,-136.52856,-105.2952,643.37891,-102.06214,-99.83856,561.28851,-43.03288,-36.29539,573.98871
11,0.083,-136.44119,-105.28192,643.44916,-101.99957,-100.10963,561.34277,-43.0747,-36.79495,573.90326
12,0.092,-136.90776,-105.11217,643.47382,-101.99957,-100.10963,561.34277,-43.11205,-36.78234,573.67059
13,0.1,-136.90776,-105.11217,643.47382,-102.00662,-100.21752,561.2536,-43.40207,-36.65429,573.93628
14,0.108,-136.97313,-105.18174,643.29224,-102.00662,-100.21752,561.2536,-43.40207,-36.65429,573.93628
15,0.117,-137.105,-105.12923,643.35706,-102.00662,-100.21752,561.2536,-43.40207,-36.65429,573.93628
16,0.125,-137.19237,-105.14253,643.2868,-102.00662,-100.21752,561.2536,-43.0747,-36.79495,573.90326
17,0.133,-137.42047,-105.18005,643.30664,-101.99957,-100.10963,561.34277,-43.40207,-36.65429,573.93628
18,0.142,-137.4987,-105.07561,643.10907,-102.00662,-100.21752,561.2536,-43.40207,-36.65429,573.93628
19,0.15,-137.56091,-105.09395,643.5368,-102.00662,-100.21752,561.2536,-43.40207,-36.65429,573.93628
20,0.158,-138.16154,-104.97169,643.32745,-102.38451,-100.33514,561.28687,-43.40207,-36.65429,573.93628
21,0.167,-138.16154,-104.97169,643.32745,-102.10009,-99.03702,560.20441,-43.40207,-36.65429,573.93628
22,0.175,-138.02115,-105.05777,643.09729,-102.66872,-100.70625,561.36517,-43.40207,-36.65429,573.93628
23,0.183,-138.02115,-105.05777,643.09729,-102.38451,-100.33514,561.28687,-43.40207,-36.65429,573.93628
24,0.192,-138.02115,-105.05777,643.09729,-102.519,-100.57873,561.53076,-43.78323,-36.68499,573.96198
25,0.2,-138.02115,-105.05777,643.09729,-102.7732,-100.92451,561.64227,-43.40207,-36.65429,573.93628
26,0.208,-138.02115,-105.05777,643.09729,-102.7732,-100.92451,561.64227,-43.40207,-36.65429,573.93628
27,0.217,-138.02115,-105.05777,643.09729,-102.7732,-100.92451,561.64227,-43.78323,-36.68499,573.96198
28,0.225,-138.16154,-104.97169,643.32745,-102.56574,-100.28712,561.18201,-43.78323,-36.68499,573.96198
29,0.233,-138.2892,-104.97933,643.34583,-102.38451,-100.33514,561.28687,-43.78323,-36.68499,573.96198
30,0.242,-138.34375,-105.25622,643.05768,-102.38451,-100.33514,561.28687,-43.78323,-36.68499,573.96198
31,0.25,-138.34375,-105.25622,643.05768,-102.7732,-100.92451,561.64227,-43.78323,-36.68499,573.96198
32,0.258,-138.34375,-105.25622,643.05768,-102.66872,-100.70625,561.36517,-43.78323,-36.68499,573.96198
33,0.267,-138.54913,-105.42783,643.09747,-102.7732,-100.92451,561.64227,-43.78323,-36.68499,573.96198
34,0.275,-138.54913,-105.42783,643.09747,-102.69958,-99.06356,560.13831,-43.78323,-36.68499,573.96198
35,0.283,-138.43219,-105.45882,643.01184,-102.69958,-99.06356,560.13831,-43.78323,-36.68499,573.96198
36,0.292,-138.52167,-105.41606,642.97247,-102.38451,-100.33514,561.28687,-43.78323,-36.68499,573.96198
37,0.3,-138.48036,-105.40357,642.91223,-102.38451,-100.33514,561.28687,-43.78323,-36.68499,573.96198
38,0.308,-138.27394,-105.47734,642.86591,-102.84994,-100.65823,561.26031,-43.78323,-36.68499,573.96198
39,0.317,-138.30244,-105.24373,642.99744,-102.84994,-100.65823,561.26031,-43.78323,-36.68499,573.96198
40,0.325,-138.48036,-105.40357,642.91223,-103.15959,-99.27874,560.25732,-43.89354,-36.34289,573.3576
41,0.333,-138.26872,-105.1467,642.83002,-102.5024,-99.14549,560.25757,-43.89354,-36.34289,573.3576
42,0.342,-138.35822,-105.10392,642.79065,-102.56574,-100.28712,561.18201,-43.89354,-36.34289,573.3576
43,0.35,-138.42696,-105.12817,642.97589,-102.56574,-100.28712,561.18201,-43.94952,-37.13406,573.42023
44,0.358,-138.48122,-105.0677,642.76813,-102.56574,-100.28712,561.18201,-43.89354,-36.34289,573.3576
45,0.367,-138.3969,-104.88515,642.52899,-102.8101,-100.53834,561.04242,-43.89354,-36.34289,573.3576
46,0.375,-138.3969,-104.88515,642.52899,-102.96274,-100.37566,561.04889,-43.89354,-36.34289,573.3576
47,0.383,-139.03708,-104.45482,642.41644,-102.62888,-100.58637,561.14734,-43.60356,-36.47099,573.09204
48,0.392,-139.14824,-104.35244,642.49066,-102.56574,-100.28712,561.18201,-43.60356,-36.47099,573.09204
49,0.4,-139.03708,-104.45482,642.41644,-102.71837,-100.12441,561.18842,-43.60356,-36.47099,573.09204
50,0.408,-138.62677,-104.69914,642.61108,-102.71837,-100.12441,561.18842,-43.60356,-36.47099,573.09204
51,0.417,-139.14824,-104.35244,642.49066,-102.96274,-100.37566,561.04889,-43.60356,-36.47099,573.09204
52,0.425,-139.14824,-104.35244,642.49066,-102.8101,-100.53834,561.04242,-43.65945,-37.26218,573.1546
53,0.433,-139.14824,-104.35244,642.49066,-102.96274,-100.37566,561.04889,-43.65945,-37.26218,573.1546
54,0.442,-138.99225,-104.1815,642.55212,-102.96274,-100.37566,561.04889,-43.60356,-36.47099,573.09204
55,0.45,-139.14824,-104.35244,642.49066,-102.96274,-100.37566,561.04889,-43.60356,-36.47099,573.09204
56,0.458,-139.55869,-103.59076,642.48535,-102.96274,-100.37566,561.04889,-43.65945,-37.26218,573.1546
57,0.467,-139.66678,-103.99126,642.49878,-102.96274,-100.37566,561.04889,-43.71914,-36.88974,572.91962
58,0.475,-139.60391,-104.01508,642.7757,-103.11717,-99.12211,560.00018,-44.0885,-36.78193,572.77643
59,0.483,-139.31902,-104.20075,642.57336,-102.96274,-100.37566,561.04889,-44.27601,-36.93786,572.28772
60,0.492,-139.9722,-103.79725,642.51758,-102.96274,-100.37566,561.04889,-44.03247,-35.9908,572.71399
61,0.5,-139.92149,-103.48704,642.52606,-102.96274,-100.37566,561.04889,-44.20424,-37.20037,572.60382
62,0.508,-140.27295,-103.779,642.67645,-103.46755,-100.11302,561.1286,-44.69933,-37.18399,572.30017
63,0.517,-140.27295,-103.779,642.67645,-103.73388,-100.09332,561.25275,-44.69933,-37.18399,572.30017
64,0.525,-140.35901,-103.69302,642.6048,-103.50529,-100.70343,561.20776,-45.71616,-34.03009,571.62268
65,0.533,-140.27295,-103.779,642.67645,-103.2291,-100.35605,561.17303,-44.69933,-37.18399,572.30017
66,0.542,-140.27295,-103.779,642.67645,-103.50529,-100.70343,561.20776,-44.69933,-37.18399,572.30017
67,0.55,-140.35901,-103.69302,642.6048,-104.01003,-100.44077,561.28748,-44.69933,-37.18399,572.30017
68,0.558,-140.35901,-103.69302,642.6048,-103.73388,-100.09332,561.25275,-45.71616,-34.03009,571.62268
69,0.567,-140.35901,-103.69302,642.6048,-104.01003,-100.44077,561.28748,-46.15583,-33.74236,571.33344
70,0.575,-140.34959,-103.52968,642.47211,-103.73388,-100.09332,561.25275,-45.2337,-36.6106,571.89423
71,0.583,-140.34959,-103.52968,642.47211,-104.01003,-100.44077,561.28748,-46.15583,-33.74236,571.33344
72,0.592,-140.3373,-103.41651,642.70544,-103.73388,-100.09332,561.25275,-46.15583,-33.74236,571.33344
73,0.6,-140.42986,-103.56207,642.68842,-104.07272,-100.16956,561.23315,-45.49431,-36.49779,571.92017
74,0.608,-140.34959,-103.52968,642.47211,-104.08921,-98.40181,560.15063,-45.96749,-33.59943,571.73865
75,0.617,-140.58463,-103.15882,642.70703,-103.79658,-99.82211,561.19849,-45.04596,-36.45486,572.38312
76,0.625,-140.50438,-103.12643,642.49072,-104.08921,-98.40181,560.15063,-46.00583,-33.24244,571.32947
77,0.633,-140.50438,-103.12643,642.49072,-103.79658,-99.82211,561.19849,-44.9896,-35.66416,572.3208
78,0.642,-140.53429,-102.68298,642.51355,-104.35767,-98.79256,560.21863,-45.25511,-35.34004,572.18982
79,0.65,-140.67902,-102.40564,642.08563,-104.26507,-99.1246,560.29718,-45.04596,-36.45486,572.38312
80,0.658,-140.63464,-101.91033,642.11578,-104.11465,-99.81982,561.4856,-44.9896,-35.66416,572.3208
81,0.667,-141.06448,-102.47262,642.54718,-104.08921,-98.40181,560.15063,-44.9896,-35.66416,572.3208
82,0.675,-140.47823,-102.19167,642.36115,-103.51573,-100.92677,562.47693,-44.9896,-35.66416,572.3208
83,0.683,-140.5755,-102.24726,642.60046,-104.13531,-99.89832,561.17889,-45.25418,-35.57355,572.36517
84,0.692,-140.5755,-102.24726,642.60046,-103.83638,-99.94202,561.41638,-45.81754,-33.09945,571.73468
85,0.7,-140.36218,-102.18826,642.96326,-104.13531,-99.89832,561.17889,-45.14141,-35.16708,572.54834
86,0.708,-140.36218,-102.18826,642.96326,-104.0975,-99.60075,561.50903,-45.25418,-35.57355,572.36517
87,0.717,-140.36218,-102.18826,642.96326,-103.81335,-99.22952,561.43079,-45.25418,-35.57355,572.36517
88,0.725,-140.36218,-102.18826,642.96326,-104.45503,-98.13726,560.49615,-46.09895,-33.50975,572.09363
89,0.733,-140.70995,-102.26621,642.83667,-104.0975,-99.60075,561.50903,-45.58544,-35.59291,572.42371
90,0.742,-140.4213,-102.0771,642.98828,-104.60116,-99.65026,561.06769,-46.09895,-33.50975,572.09363
91,0.75,-140.70995,-102.26621,642.83667,-105.23077,-97.92226,559.92627,-45.58544,-35.59291,572.42371
92,0.758,-140.70995,-102.26621,642.83667,-104.86157,-97.41358,559.99933,-45.93351,-33.25409,572.22681
93,0.767,-140.74989,-102.38622,643.026,-104.96202,-97.75278,560.33679,-45.4415,-35.24159,572.57233
94,0.775,-140.70995,-102.26621,642.83667,-104.54278,-99.31998,561.37799,-45.58544,-35.59291,572.42371
95,0.783,-140.52925,-102.06552,642.91663,-104.54278,-99.31998,561.37799,-45.58544,-35.59291,572.42371
96,0.792,-140.69305,-102.30846,643.07813,-104.77915,-99.54757,561.1947,-45.93351,-33.25409,572.22681
97,0.8,-140.69305,-102.30846,643.07813,-104.0975,-99.60075,561.50903,-45.58544,-35.59291,572.42371
98,0.808,-140.64542,-102.13512,643.20197,-104.29519,-99.72005,561.44012,-45.68167,-36.25172,572.40369
99,0.817,-140.68539,-102.25515,643.3913,-104.8268,-99.69154,561.4563,-45.58544,-35.59291,572.42371
100,0.825,-140.73302,-102.42848,643.2674,-104.8268,-99.69154,561.4563,-45.21603,-35.90929,572.70618
101,0.833,-140.74989,-102.38622,643.026,-104.29519,-99.72005,561.44012,-45.68167,-36.25172,572.40369
102,0.842,-140.74989,-102.38622,643.026,-104.53936,-99.72678,561.65405,-45.31216,-36.56812,572.68622
103,0.85,-140.74989,-102.38622,643.026,-104.60414,-99.83184,561.52173,-45.31216,-36.56812,572.68622
104,0.858,-141.05177,-102.43712,643.03577,-104.8268,-99.69154,561.4563,-45.81671,-34.4384,572.84869
105,0.867,-140.83835,-102.50783,643.23889,-104.8268,-99.69154,561.4563,-46.04923,-34.6495,572.76105
106,0.875,-141.13971,-102.26744,643.53326,-104.76417,-99.96286,561.51056,-45.81671,-34.4384,572.84869
107,0.883,-141.36017,-102.46084,643.4798,-104.4855,-101.05125,562.84766,-45.38834,-37.30394,573.26715
108,0.892,-141.36017,-102.46084,643.4798,-104.8268,-99.69154,561.4563,-45.11775,-37.77327,573.75989
109,0.9,-141.4987,-102.31789,643.67175,-104.76417,-99.96286,561.51056,-45.42067,-37.49741,573.42682
110,0.908,-142.11339,-102.64167,643.33539,-104.8268,-99.69154,561.4563,-45.57074,-37.47476,573.47388
111,0.917,-142.06091,-102.65418,644.12787,-104.8268,-99.69154,561.4563,-45.26783,-37.75058,573.80701
112,0.925,-142.7439,-102.46385,643.99567,-104.74769,-99.60878,561.58246,-46.24438,-34.77664,572.93127
113,0.933,-142.47762,-102.38811,644.44897,-104.40852,-100.95708,562.99445,-45.57074,-37.47476,573.47388
114,0.942,-142.98764,-101.98685,644.01331,-104.98563,-99.52466,561.92029,-45.94042,-37.15808,573.19122
115,0.95,-143.35814,-101.7869,644.42688,-104.65049,-100.84812,563.39069,-45.94042,-37.15808,573.19122
116,0.958,-143.35814,-101.7869,644.42688,-104.65049,-100.84812,563.39069,-46.57814,-34.59533,572.70251
117,0.967,-143.38795,-101.73847,644.54633,-104.68394,-101.04805,563.71198,-45.94042,-37.15808,573.19122
118,0.975,-143.38795,-101.73847,644.54633,-104.68394,-101.04805,563.71198,-45.94042,-37.15808,573.19122
119,0.983,-143.60558,-101.65666,644.28284,-104.68394,-101.04805,563.71198,-45.94042,-37.15808,573.19122
120,0.992,-143.79405,-101.63432,644.55365,-104.84338,-100.85059,563.69617,-47.22909,-34.30278,572.76306
121,1,-143.79405,-101.63432,644.55365,-105.14648,-101.07512,563.62244,-46.23706,-37.36675,573.60358
122,1.008,-143.79405,-101.63432,644.55365,-105.14648,-101.07512,563.62244,-46.80489,-36.58445,573.56537
123,1.017,-143.97488,-101.83505,644.47369,-105.5525,-101.17587,563.69885,-46.68956,-37.02267,573.52399
124,1.025,-144.3315,-101.84608,644.65588,-105.57256,-101.03996,563.77863,-46.85217,-36.956,573.84344
125,1.033,-144.32117,-101.53918,644.59937,-105.57256,-101.03996,563.77863,-46.85217,-36.956,573.84344
126,1.042,-144.09074,-101.65201,645.04376,-105.57256,-101.03996,563.77863,-46.85217,-36.956,573.84344
127,1.05,-143.95,-101.57137,645.31311,-105.62062,-101.29282,564.3374,-47.19154,-36.87512,574.8855
128,1.058,-144.16347,-101.50062,645.11011,-105.76837,-101.03074,564.62665,-47.38081,-36.6077,575.06061
129,1.067,-143.95,-101.57137,645.31311,-105.76837,-101.03074,564.62665,-47.38081,-36.6077,575.06061
130,1.075,-143.95,-101.57137,645.31311,-105.76837,-101.03074,564.62665,-47.38081,-36.6077,575.06061
131,1.083,-143.95,-101.57137,645.31311,-105.76837,-101.03074,564.62665,-47.38081,-36.6077,575.06061
132,1.092,-144.07512,-101.46635,645.28625,-105.76837,-101.03074,564.62665,-47.08915,-36.87613,575.40198
133,1.1,-144.10258,-101.7505,645.552,-105.76837,-101.03074,564.62665,-47.08915,-36.87613,575.40198
134,1.108,-144.07512,-101.46635,645.28625,-105.76837,-101.03074,564.62665,-47.08915,-36.87613,575.40198
135,1.117,-144.17062,-101.35247,645.28662,-105.76837,-101.03074,564.62665,-47.08915,-36.87613,575.40198
136,1.125,-144.38406,-101.28173,645.08362,-105.76837,-101.03074,564.62665,-47.08915,-36.87613,575.40198
137,1.133,-144.38406,-101.28173,645.08362,-106.44192,-99.38676,563.94562,-47.08915,-36.87613,575.40198
138,1.142,-144.51265,-101.10986,645.07294,-107.00957,-99.42409,564.13641,-47.08915,-36.87613,575.40198
139,1.15,-144.94791,-101.12333,645.32019,-107.37669,-99.65699,564.10559,-47.08915,-36.87613,575.40198
140,1.158,-144.77232,-100.95084,645.37854,-106.28504,-101.09977,564.77649,-47.08915,-36.87613,575.40198
141,1.167,-144.77232,-100.95084,645.37854,-106.28504,-101.09977,564.77649,-47.08915,-36.87613,575.40198
142,1.175,-144.77232,-100.95084,645.37854,-107.37669,-99.65699,564.10559,-47.08915,-36.87613,575.40198
143,1.183,-144.53381,-101.13607,645.68951,-106.28504,-101.09977,564.77649,-47.08915,-36.87613,575.40198
144,1.192,-144.31224,-100.13503,644.72675,-106.28504,-101.09977,564.77649,-47.08915,-36.87613,575.40198
145,1.2,-144.02106,-100.34122,644.91144,-106.28504,-101.09977,564.77649,-47.08915,-36.87613,575.40198
146,1.208,-144.37053,-100.96948,645.92041,-106.32204,-100.87039,564.99286,-47.03736,-36.62001,575.05048
147,1.217,-144.9034,-100.71189,645.8255,-106.72565,-101.30995,564.94141,-47.03736,-36.62001,575.05048
148,1.225,-145.07509,-100.62223,645.93164,-106.11076,-100.75863,565.17401,-47.03736,-36.62001,575.05048
149,1.233,-145.03398,-100.53841,646.013,-106.36591,-101.08578,564.99109,-47.08915,-36.87613,575.40198
150,1.242,-144.99881,-100.05595,645.96149,-106.70602,-101.08122,565.13385,-47.08915,-36.87613,575.40198
151,1.25,-144.82793,-100.18774,646.13934,-106.40292,-100.85637,565.2074,-47.22225,-36.51437,575.83508
152,1.258,-145.03186,-100.11392,646.23053,-106.47212,-100.83639,565.25323,-47.06525,-36.42976,575.50909
153,1.267,-145.1689,-99.8827,646.13849,-106.9481,-100.97211,565.52966,-47.15205,-36.32145,575.45642
154,1.275,-145.2379,-100.4646,646.10425,-106.47212,-100.83639,565.25323,-47.15205,-36.32145,575.45642
155,1.283,-145.1689,-99.8827,646.13849,-106.71423,-100.72723,565.64905,-47.51521,-36.34496,575.04376
156,1.292,-145.08211,-100.07057,646.08624,-106.9481,-100.97211,565.52966,-47.15205,-36.32145,575.45642
157,1.3,-144.99802,-100.01452,646.31635,-106.9481,-100.97211,565.52966,-47.70393,-34.16127,574.81622
158,1.308,-145.04105,-99.98682,646.16766,-106.9481,-100.97211,565.52966,-48.3363,-34.07162,574.60767
159,1.317,-145.1689,-99.8827,646.13849,-106.9481,-100.97211,565.52966,-47.51534,-36.06552,575.18927
160,1.325,-145.1689,-99.8827,646.13849,-106.9481,-100.97211,565.52966,-47.89168,-36.27352,575.57684
161,1.333,-145.1689,-99.8827,646.13849,-106.9481,-100.97211,565.52966,-47.81467,-36.40776,575.05847
162,1.342,-145.1689,-99.8827,646.13849,-106.9481,-100.97211,565.52966,-48.37043,-34.48287,574.34796
163,1.35,-145.1689,-99.8827,646.13849,-106.9481,-100.97211,565.52966,-47.87952,-36.61354,575.42578
164,1.358,-144.99802,-100.01452,646.31635,-106.71423,-100.72723,565.64905,-47.81467,-36.40776,575.05847
165,1.367,-144.99802,-100.01452,646.31635,-106.9481,-100.97211,565.52966,-47.81467,-36.40776,575.05847
166,1.375,-144.99802,-100.01452,646.31635,-106.9481,-100.97211,565.52966,-48.37043,-34.48287,574.34796
167,1.383,-144.99802,-100.01452,646.31635,-106.71423,-100.72723,565.64905,-47.8148,-36.12833,575.20392
168,1.392,-145.1689,-99.8827,646.13849,-106.88421,-100.93037,565.85144,-48.11381,-35.90583,574.89087
169,1.4,-144.99802,-100.01452,646.31635,-107.11806,-101.17519,565.73206,-47.96697,-36.1967,575.50323
170,1.408,-144.99802,-100.01452,646.31635,-107.11806,-101.17519,565.73206,-48.78519,-34.19701,574.47083
171,1.417,-145.23033,-99.87452,646.41199,-107.11806,-101.17519,565.73206,-47.8148,-36.12833,575.20392
172,1.425,-145.09091,-99.89996,646.31921,-107.11806,-101.17519,565.73206,-48.62516,-34.14198,574.21735
173,1.433,-145.09091,-99.89996,646.31921,-107.11806,-101.17519,565.73206,-48.40247,-36.01525,575.27631
174,1.442,-145.09091,-99.89996,646.31921,-107.11806,-101.17519,565.73206,-48.62516,-34.14198,574.21735
175,1.45,-145.23033,-99.87452,646.41199,-107.11806,-101.17519,565.73206,-48.22797,-36.30622,574.93329
176,1.458,-145.09091,-99.89996,646.31921,-107.11806,-101.17519,565.73206,-48.36427,-35.64929,575.38354
177,1.467,-145.23033,-99.87452,646.41199,-107.11806,-101.17519,565.73206,-48.11381,-35.90583,574.89087
178,1.475,-145.23033,-99.87452,646.41199,-107.11806,-101.17519,565.73206,-49.0407,-34.04436,574.81732
179,1.483,-145.23033,-99.87452,646.41199,-107.11806,-101.17519,565.73206,-48.40247,-36.01525,575.27631
180,1.492,-145.23033,-99.87452,646.41199,-106.88421,-100.93037,565.85144,-48.266,-35.97417,575.19012
181,1.5,-145.23033,-99.87452,646.41199,-107.11806,-101.17519,565.73206,-48.40247,-36.01525,575.27631
182,1.508,-145.23033,-99.87452,646.41199,-106.88421,-100.93037,565.85144,-48.40247,-36.01525,575.27631
183,1.517,-145.17302,-99.70683,646.48584,-107.11806,-101.17519,565.73206,-48.3269,-35.63725,575.6778
184,1.525,-145.17302,-99.70683,646.48584,-107.11806,-101.17519,565.73206,-48.40247,-36.01525,575.27631
185,1.533,-145.3638,-99.69173,646.60443,-107.11806,-101.17519,565.73206,-48.266,-35.97417,575.19012
186,1.542,-145.17302,-99.70683,646.48584,-107.11806,-101.17519,565.73206,-48.40247,-36.01525,575.27631
187,1.55,-145.3678,-99.59698,646.65997,-107.11806,-101.17519,565.73206,-48.22797,-36.30622,574.93329
188,1.558,-145.3638,-99.69173,646.60443,-107.11806,-101.17519,565.73206,-48.20517,-35.94677,575.07037
189,1.567,-145.3638,-99.69173,646.60443,-106.88421,-100.93037,565.85144,-48.11381,-35.90583,574.89087
190,1.575,-145.3678,-99.59698,646.65997,-107.39597,-101.74223,566.00555,-48.48891,-36.13341,575.66687
191,1.583,-145.3678,-99.59698,646.65997,-107.39597,-101.74223,566.00555,-48.1945,-35.99787,575.24402
192,1.592,-145.3638,-99.69173,646.60443,-107.39597,-101.74223,566.00555,-48.11371,-36.18529,574.7453
193,1.6,-145.27092,-99.80629,646.60156,-107.39597,-101.74223,566.00555,-48.22797,-36.30622,574.93329
194,1.608,-145.28296,-99.69406,646.66193,-107.39597,-101.74223,566.00555,-48.36445,-36.34731,575.01941
195,1.617,-145.14307,-99.91039,646.6308,-107.39597,-101.74223,566.00555,-48.25019,-36.22636,574.83148
