Frame#,Time,R.Forearm.x,R.Forearm.y,R.Forearm.z,R.Ulna.x,R.Ulna.y,R.Ulna.z,R.Radius.x,R.Radius.y,R.Radius.z
1,0,34.9889,-116.80964,1157.2196,81.31581,-133.16153,1228.03638,118.8558,-55.21938,1224.83789
2,0.008,34.45565,-117.00484,1155.99158,81.96434,-132.71356,1226.7489,118.04459,-53.5386,1222.58521
3,0.017,34.39041,-117.17661,1154.0249,82.20879,-131.9052,1225.24316,117.62537,-52.29469,1220.7915
4,0.025,35.64113,-117.04977,1152.05322,82.37215,-131.22438,1223.60608,118.92587,-51.71645,1218.47852
5,0.033,34.91213,-116.77515,1150.33582,82.87015,-130.62744,1222.24597,118.43813,-50.29045,1215.51379
6,0.042,34.98993,-116.92501,1149.34033,83.43312,-130.18074,1220.6897,119.88585,-50.21575,1213.33008
7,0.05,36.82363,-116.11755,1147.75586,83.83817,-128.7601,1219.26306,119.95608,-49.74586,1212.02283
8,0.058,36.76614,-115.4026,1146.21826,85.10774,-128.07808,1216.61426,120.22636,-48.22897,1208.57849
9,0.067,37.38346,-114.50879,1144.79822,85.53962,-127.09697,1214.78931,120.65739,-47.72787,1206.79199
10,0.075,37.65903,-114.25018,1142.53516,85.69767,-126.01726,1213.79578,120.65844,-46.70298,1203.71863
11,0.083,37.7651,-114.22462,1141.34473,86.10922,-125.45268,1212.05713,120.91196,-45.86963,1201.24109
12,0.092,38.86731,-114.05503,1138.49475,86.23717,-124.78483,1209.76379,120.75013,-45.8702,1199.08228
13,0.1,39.0669,-112.99426,1137.74341,87.00758,-123.91403,1207.4884,120.65811,-44.37967,1195.9303
14,0.108,37.9783,-113.37024,1135.65393,87.39132,-123.37608,1205.67017,120.37912,-42.10147,1194.05151
15,0.117,38.63025,-115.64852,1133.82886,87.91393,-124.80814,1204.39148,120.87665,-42.53478,1191.36182
16,0.125,39.47669,-114.9218,1132.20862,88.83495,-122.4398,1201.7356,120.64926,-42.15589,1189.3501
17,0.133,39.33583,-114.08494,1130.74329,89.93298,-120.7492,1199.55017,120.59838,-41.8754,1186.05505
18,0.142,39.02776,-113.6802,1129.14355,90.39845,-120.74464,1197.729,121.39169,-40.66517,1184.46875
19,0.15,39.22314,-114.21277,1126.5708,90.6437,-119.90144,1196.18591,121.97902,-40.26376,1181.68372
20,0.158,39.19619,-114.32466,1125.92297,91.33289,-119.80056,1193.84021,121.53835,-40.12466,1179.20874
21,0.167,40.10363,-113.50397,1123.8374,93.20436,-120.27309,1192.04761,123.44585,-39.60893,1176.96313
22,0.175,40.21441,-114.25326,1122.44531,93.30821,-119.68822,1190.31067,122.91659,-39.49043,1174.33667
23,0.183,40.02297,-114.15725,1120.38171,93.97687,-118.89256,1188.02039,123.32198,-39.61282,1171.89294
24,0.192,41.105,-113.8063,1118.72668,94.64267,-119.31629,1186.19653,124.32064,-38.57891,1169.15649
25,0.2,40.15248,-115.23154,1116.1322,94.2877,-119.68198,1184.69934,124.14839,-38.97357,1167.38367
26,0.208,40.90439,-113.73193,1115.28076,95.23521,-119.50254,1181.6012,126.3044,-39.65656,1163.79883
27,0.217,42.58326,-113.8392,1113.27673,96.30583,-118.91858,1180.56982,125.88845,-38.23141,1162.73193
28,0.225,41.05512,-115.23024,1112.14929,96.94644,-118.18704,1178.21057,126.57541,-39.58274,1159.36938
29,0.233,42.28515,-115.24595,1109.56189,98.16237,-119.47012,1175.82751,127.20694,-38.70279,1156.87854
30,0.242,43.16782,-114.85818,1108.06714,99.1915,-119.09676,1173.85779,127.16607,-39.59166,1154.54089
31,0.25,43.95053,-114.86626,1105.80505,99.54109,-119.23932,1171.60779,127.4043,-38.5398,1151.40344
32,0.258,44.48603,-115.0839,1104.40076,100.36545,-119.40638,1169.54724,129.46985,-40.4358,1149.86633
33,0.267,43.9134,-114.88931,1102.82825,100.82446,-120.10689,1167.20313,130.95427,-41.37163,1146.04053
34,0.275,44.62636,-116.22907,1100.7406,101.16103,-120.11215,1165.31323,130.44612,-42.3763,1143.82776
35,0.283,44.98836,-116.5377,1099.59985,102.59366,-120.94057,1162.69397,131.96736,-40.20397,1141.86182
36,0.292,45.96226,-116.70501,1096.37708,103.20147,-120.77616,1160.27344,131.91939,-40.56104,1138.22205
37,0.3,45.83252,-117.32175,1094.83521,104.32673,-121.13416,1158.51953,132.1011,-40.59961,1136.43115
38,0.308,46.73058,-118.09394,1092.96301,104.68474,-121.44111,1156.2179,132.46735,-40.28975,1132.51843
39,0.317,46.35702,-119.44883,1090.13318,105.54032,-122.68025,1153.25256,133.3062,-42.72621,1131.0282
40,0.325,46.22723,-119.08867,1089.1062,105.59458,-122.86934,1151.34106,134.1843,-42.99411,1127.65869
41,0.333,47.55864,-120.81327,1086.49512,107.28738,-122.09422,1147.86792,134.75696,-44.93156,1125.51221
42,0.342,48.43751,-120.47266,1084.26147,107.35627,-123.39356,1146.16187,135.15456,-46.14508,1121.95544
43,0.35,48.29356,-120.97294,1082.20654,108.72009,-123.53101,1143.04968,135.70839,-44.58963,1119.62817
44,0.358,48.43002,-122.51733,1079.52344,109.39452,-125.0361,1141.26135,135.74597,-46.95881,1116.20459
45,0.367,48.99622,-122.23071,1077.76587,110.28977,-125.0814,1137.79834,136.07887,-46.79731,1114.34253
46,0.375,48.42968,-121.9163,1076.76599,110.73052,-126.05308,1135.6665,136.37262,-47.50206,1110.46301
47,0.383,49.58837,-123.55879,1072.77258,111.2646,-126.79391,1132.93079,138.03827,-49.34402,1107.71631
48,0.392,49.03292,-124.00581,1071.52124,111.7971,-127.93487,1130.71094,139.03937,-49.77187,1105.7229
49,0.4,49.52686,-124.56384,1068.74341,112.60091,-129.50761,1127.8739,139.83447,-51.14323,1101.08972
50,0.408,49.28429,-125.87126,1066.67334,113.53552,-129.20932,1125.17932,140.43588,-51.36188,1099.20239
51,0.417,49.63651,-126.04557,1064.82935,114.24283,-129.88014,1122.11755,140.9841,-52.42104,1095.64014
52,0.425,48.42376,-127.77607,1061.85217,114.84525,-130.09381,1119.51465,140.99966,-53.70514,1093.5199
53,0.433,50.30614,-127.85367,1059.2428,115.49005,-132.1757,1116.599,141.54768,-53.86496,1089.7312
54,0.442,50.37632,-129.27385,1057.56885,115.42422,-132.20586,1114.49048,142.69788,-54.66939,1086.62683
55,0.45,50.98567,-128.09355,1055.46448,116.69923,-132.82492,1111.12231,143.90608,-56.5832,1083.39294
56,0.458,52.19111,-128.79634,1052.25476,117.34534,-134.35071,1108.79297,144.25096,-57.67768,1079.69788
57,0.467,52.79548,-130.87138,1051.53943,118.34938,-134.70615,1106.62183,144.43626,-57.6664,1078.20215
58,0.475,51.67383,-131.97864,1049.18933,118.9242,-136.05138,1104.11401,144.51868,-58.73887,1074.32959
59,0.483,51.92889,-132.36296,1047.34253,118.33958,-136.74336,1101.5127,145.76761,-60.28289,1071.49927
60,0.492,53.2895,-132.95848,1045.38086,119.23103,-137.45004,1098.86414,145.35789,-60.09692,1068.89343
61,0.5,52.60876,-132.87656,1043.94495,119.2661,-138.26779,1096.66223,146.93098,-62.63764,1065.12817
62,0.508,52.59491,-136.21996,1040.06946,119.77676,-140.289,1093.703,148.75586,-64.44486,1062.95862
63,0.517,53.00005,-136.13457,1039.85583,120.96469,-141.18987,1091.40576,148.28661,-64.59425,1059.73291
64,0.525,53.6289,-137.71323,1037.25745,120.82494,-142.99213,1088.97131,148.52538,-62.39251,1058.50317
65,0.533,52.64764,-138.30016,1035.17908,121.84655,-143.28369,1086.49255,149.08586,-63.64975,1054.93359
66,0.542,52.82724,-139.26352,1033.5177,122.17054,-144.85207,1083.65039,148.68077,-66.54652,1051.8949
67,0.55,53.38626,-140.67497,1031.78345,122.91145,-145.41618,1081.6106,149.50729,-68.62162,1047.57996
68,0.558,52.97149,-143.0891,1029.07874,123.33645,-146.96619,1078.83105,150.31339,-70.61115,1045.19873
69,0.567,53.04528,-141.54768,1027.60693,124.10612,-147.48373,1076.68799,150.72086,-72.04109,1042.44092
70,0.575,52.30305,-144.88573,1023.79321,124.10343,-149.18929,1074.05151,152.91489,-72.70389,1040.88611
71,0.583,53.14165,-144.7729,1023.21783,124.54736,-150.35812,1072.07227,153.25516,-74.68245,1035.55347
72,0.592,54.22421,-144.65971,1021.49365,125.25063,-150.68175,1069.55969,153.42143,-74.37993,1034.78833
73,0.6,55.80185,-144.75804,1018.90253,125.35883,-152.01913,1067.14539,154.17827,-78.31897,1030.70349
74,0.608,56.07453,-144.62367,1016.7738,126.77802,-152.39691,1064.88135,155.33449,-78.02067,1028.40723
75,0.617,55.54039,-146.57362,1014.60999,126.67394,-153.38741,1062.6698,157.14571,-79.24355,1025.45105
76,0.625,56.48412,-146.07874,1013.71411,127.05351,-154.1246,1060.78406,157.37805,-80.07121,1025.005
77,0.633,56.42104,-148.49689,1012.01282,127.8943,-154.17575,1058.43933,157.92838,-82.76096,1019.77454
78,0.642,56.49685,-149.08878,1009.54639,128.22525,-155.77875,1055.97852,158.18782,-84.17609,1019.59558
79,0.65,55.76591,-151.25981,1007.46991,128.43379,-157.68439,1054.30872,158.46605,-84.56281,1016.31848
80,0.658,55.94313,-150.61554,1006.92767,129.3484,-159.08887,1052.03662,159.67307,-87.39452,1014.40417
81,0.667,57.69936,-151.1239,1004.38983,129.11177,-160.65791,1050.12439,160.04137,-88.90902,1012.19635
82,0.675,58.08525,-153.3452,1002.94995,129.91379,-161.64264,1048.13171,161.54231,-92.08111,1009.93842
83,0.683,57.65865,-152.81073,1001.60925,130.57793,-163.2325,1045.76709,161.89156,-91.93718,1008.98334
84,0.692,58.44077,-155.41432,1000.79596,131.36995,-164.94664,1044.29016,162.42207,-93.14194,1004.60321
85,0.7,59.23879,-155.88722,1001.9693,131.80977,-166.34764,1042.97241,163.65025,-95.52412,1004.32849
86,0.708,61.33433,-157.69804,999.32617,132.45396,-168.03593,1039.85205,164.79216,-97.96096,1001.49115
87,0.717,60.05702,-160.88208,997.5318,132.82159,-168.56021,1038.9342,165.99951,-100.73295,999.10944
88,0.725,59.65238,-165.21683,995.69141,133.09425,-170.97064,1037.36047,166.1994,-100.47859,998.79755
89,0.733,59.20716,-168.1432,993.04547,134.10225,-172.20424,1035.28943,166.84663,-103.54602,995.78741
90,0.742,59.04401,-172.88657,991.05573,134.51704,-174.38594,1033.73657,167.70158,-106.16708,993.60968
91,0.75,59.14197,-180.79999,989.60352,134.76967,-176.79695,1031.89478,168.96234,-106.70077,991.36414
92,0.758,59.1419,-181.43382,989.26337,135.40775,-177.85461,1030.42957,170.52997,-108.61012,989.60541
93,0.767,59.23761,-187.85834,984.49976,135.74036,-179.85155,1028.45959,170.7457,-110.64283,988.64709
94,0.775,59.62887,-188.32289,982.93085,136.1037,-180.9554,1027.21057,171.48553,-112.83821,987.47583
95,0.783,60.63486,-194.64813,980.59955,136.74786,-183.4556,1024.90564,171.86777,-116.12725,983.81995
96,0.792,61.85311,-182.09061,981.97046,136.90811,-185.09819,1023.23816,172.20193,-117.76904,982.98633
97,0.8,63.8385,-169.25525,983.45825,136.77441,-187.29277,1021.74042,173.86743,-121.39182,981.36322
98,0.808,63.96468,-170.38318,982.65118,136.96513,-189.00735,1020.12311,174.3596,-124.05646,978.17511
99,0.817,63.73298,-171.9744,980.21936,137.18228,-190.56143,1018.56354,174.48831,-123.18026,977.91925
100,0.825,63.82843,-173.44893,979.3598,137.3329,-193.4005,1017.07092,175.25452,-125.80576,975.1286
101,0.833,63.64423,-177.25159,978.53894,138.12105,-194.66319,1015.62579,175.23552,-130.91571,972.22577
102,0.842,63.77999,-179.35387,975.89642,138.02362,-196.53204,1014.17133,176.37363,-131.72127,971.09973
103,0.85,63.20044,-180.08226,974.52936,138.25305,-198.11736,1013.43744,176.59047,-137.02579,968.82471
104,0.858,63.60238,-179.34738,974.45367,137.77875,-200.28606,1011.31348,178.67033,-135.78514,967.80359
105,0.867,63.91389,-178.87485,972.84393,138.41298,-202.42558,1010.88098,178.31589,-139.22978,966.22351
106,0.875,64.53316,-179.8752,971.98065,137.72742,-205.07272,1008.74261,177.64262,-145.55402,965.27057
107,0.883,64.20897,-184.20306,970.56183,138.20134,-206.52924,1007.65674,179.11339,-144.79887,964.11694
108,0.892,64.11362,-184.83635,969.40454,137.74849,-210.12767,1006.5083,180.24626,-147.08611,962.77124
109,0.9,64.11362,-184.83635,969.40454,138.40218,-211.93913,1005.89087,180.84212,-150.45847,962.3302
110,0.908,63.78038,-188.42896,968.75757,137.70544,-214.18141,1004.60791,181.55603,-153.87241,960.81689
111,0.917,64.73808,-190.36232,967.60699,138.13687,-216.84344,1004.1394,181.82497,-156.30736,960.04199
112,0.925,64.80396,-192.11011,966.82764,137.52687,-218.94261,1002.55286,181.92534,-159.17097,957.85004
113,0.933,63.51623,-197.04251,964.71368,137.38742,-220.93912,1001.53241,182.12933,-160.37349,956.99078
114,0.942,64.79198,-194.04265,965.58624,137.11121,-224.02171,1000.66827,182.05164,-165.68449,955.57666
115,0.95,64.38596,-197.08162,964.23767,137.02223,-226.36601,1000.10974,181.58507,-168.12007,955.29315
116,0.958,64.36739,-199.05338,963.41504,136.99809,-228.54347,999.48859,183.0905,-170.02615,954.9787
117,0.967,64.69028,-201.29735,963.24042,136.72345,-231.25397,999.30743,185.10994,-172.59151,954.84387
118,0.975,64.73669,-201.63153,963.27338,136.81259,-233.40247,998.49951,185.35056,-175.18509,954.46985
119,0.983,64.7437,-202.74583,962.41968,137.12143,-235.46849,998.17438,184.467,-178.98497,953.86957
120,0.992,65.01674,-205.13937,962.38849,136.65289,-238.43333,997.94489,185.63863,-182.25766,953.89709
121,1,64.59588,-207.27647,961.95349,136.47462,-240.46576,997.22766,186.65915,-183.73849,952.46149
122,1.008,64.86338,-207.97197,962.52094,136.26979,-241.34395,997.51825,186.57513,-186.9541,952.58087
123,1.017,64.51608,-209.7943,962.68262,136.18066,-244.92207,997.33984,187.52838,-189.65996,952.33746
124,1.025,64.91478,-211.23991,962.78387,135.71642,-247.40927,997.78204,187.25551,-195.51901,951.20258
125,1.033,64.74689,-213.03352,962.58917,135.45128,-248.67834,997.72565,188.1806,-196.06276,952.1615
126,1.042,65.65977,-214.18837,962.70477,135.36737,-251.02065,998.31268,188.35075,-198.58086,953.28333
127,1.05,65.78653,-215.60532,963.146,134.65788,-254.3848,998.53418,189.00157,-202.07245,953.85297
128,1.058,66.24747,-217.49074,963.40625,134.56363,-256.50632,998.78003,188.79512,-203.8838,954.60474
129,1.067,65.96289,-218.69513,963.85211,134.66522,-258.20636,999.4519,188.50777,-208.66742,954.82367
130,1.075,66.51726,-219.88947,964.42896,133.44527,-260.06003,1000.27313,188.74095,-209.6017,954.83862
131,1.083,66.98292,-220.28331,965.29144,133.44875,-262.48129,1001.1925,189.44139,-211.15469,957.05676
132,1.092,66.72881,-222.82738,966.61865,132.99045,-264.64536,1002.52521,189.64914,-214.57855,958.57312
133,1.1,67.24098,-223.5399,967.02307,131.95702,-266.57172,1003.11481,190.26813,-218.60719,959.13971
134,1.108,67.66865,-225.23927,968.06049,132.2164,-267.82803,1004.89795,190.27036,-220.59418,960.85907
135,1.117,67.26081,-226.59579,968.61353,132.09985,-269.54471,1006.09625,190.47287,-223.57961,962.73236
136,1.125,67.26903,-228.23158,969.7713,131.27148,-272.94562,1007.3421,191.32108,-224.61887,964.32135
137,1.133,67.87568,-228.23787,973.02533,130.98604,-273.89386,1008.64276,191.30913,-226.108,965.90466
138,1.142,67.14441,-228.84105,974.76648,129.9444,-275.33798,1010.9845,192.17764,-230.32224,967.38007
139,1.15,66.92915,-232.76892,974.73987,129.79605,-277.52505,1012.39203,191.96858,-232.02365,970.12042
140,1.158,66.57873,-233.39513,975.20135,129.4368,-280.07779,1014.04303,192.43971,-234.95375,971.85187
141,1.167,67.36069,-234.61508,977.7431,129.42058,-280.82217,1015.67273,192.66438,-235.21588,976.58899
142,1.175,67.62537,-235.12503,978.90308,129.3287,-283.34933,1018.63611,192.89668,-237.14342,977.6236
143,1.183,67.57918,-236.21106,980.43787,128.47031,-284.70422,1020.46881,193.35808,-238.48705,980.50989
144,1.192,67.46709,-237.13843,983.73083,128.1792,-286.46283,1022.8067,191.67696,-244.94847,982.22961
145,1.2,67.19881,-237.81276,984.65222,128.00571,-287.8287,1024.13928,192.1335,-245.2939,984.34131
146,1.208,69.12164,-239.04581,987.15167,127.25516,-290.103,1026.20764,191.85735,-248.6339,988.57507
147,1.217,68.45535,-240.52359,988.37402,126.93217,-291.75754,1029.3407,193.46788,-249.39299,990.28717
148,1.225,68.65748,-241.81897,991.06464,126.12419,-292.35464,1031.54224,194.94904,-253.18518,993.20038
149,1.233,69.65823,-241.82744,993.02356,125.41028,-293.84106,1033.66296,193.15417,-254.58955,996.82037
150,1.242,68.99021,-242.74847,995.40619,124.78425,-295.59637,1036.47595,195.34406,-254.79279,1000.14905
151,1.25,70.67896,-242.81973,997.22791,124.5881,-296.83755,1038.89795,193.09505,-257.2897,1003.68481
152,1.258,70.2432,-243.73605,999.57233,123.83749,-297.61932,1040.8551,194.90356,-258.11374,1006.22821
153,1.267,70.77225,-244.9037,1002.64661,122.85592,-298.85187,1044.52454,194.01811,-261.19412,1009.51404
154,1.275,69.80154,-244.60687,1004.5423,122.74171,-300.66074,1047.55396,194.78421,-261.85101,1012.61847
155,1.283,71.00181,-246.05635,1007.1698,122.17236,-300.96381,1049.21912,194.96918,-262.42413,1016.82086
156,1.292,69.94557,-246.81845,1009.05865,122.1103,-301.73709,1053.38037,194.08403,-263.32074,1019.89508
157,1.3,70.67059,-246.60599,1012.54022,121.61411,-302.25449,1055.0542,194.72066,-263.73865,1023.16309
158,1.308,70.19093,-248.88065,1014.83899,120.59809,-303.59503,1058.78015,193.67984,-267.60345,1027.47156
159,1.317,70.68289,-249.37854,1017.57483,119.95469,-304.66296,1061.39233,194.00868,-268.57587,1030.22144
160,1.325,70.39048,-248.78215,1019.93329,119.39978,-305.80307,1065.21533,194.2603,-269.38333,1033.8988
161,1.333,70.38295,-250.03561,1023.26233,118.38883,-305.99261,1067.30933,193.77881,-270.90179,1039.14063
162,1.342,70.89148,-249.62206,1025.30005,118.23245,-306.46436,1070.69641,192.35989,-272.09769,1041.53296
163,1.35,70.31401,-250.03099,1029.25867,117.35451,-307.13348,1073.7583,193.19044,-272.26053,1046.36633
164,1.358,71.13433,-250.01607,1031.50537,116.60703,-307.6962,1076.84229,192.88826,-272.99832,1050.59973
165,1.367,70.62959,-249.54889,1034.99915,116.29948,-307.84369,1080.61951,192.0995,-272.50339,1054.37024
166,1.375,69.97852,-250.7222,1037.24353,115.59365,-307.8829,1083.2594,191.2551,-274.97125,1058.24182
167,1.383,70.86842,-249.02754,1040.87549,115.06823,-307.90607,1087.61169,190.83014,-274.9473,1063.06128
168,1.392,70.00443,-251.09247,1043.10193,114.50832,-308.25198,1090.04663,190.81306,-273.54318,1067.21448
169,1.4,71.04366,-249.23315,1046.8927,113.5924,-309.15939,1093.66626,190.63281,-276.18863,1070.63843
170,1.408,69.8471,-249.28581,1049.17627,112.3041,-310.03674,1095.76074,189.7603,-275.21021,1074.89417
171,1.417,70.633,-249.599,1052.70349,111.69234,-309.64481,1099.44788,189.76125,-275.93887,1080.99414
172,1.425,69.88316,-249.35574,1054.82617,111.29763,-310.20822,1102.48669,189.81111,-276.28403,1084.23718
173,1.433,69.43636,-249.42592,1058.19336,110.48513,-309.08112,1106.28418,189.33484,-278.16342,1086.6947
174,1.442,69.3222,-248.92578,1061.17358,110.10452,-309.11536,1109.05322,189.07224,-275.66541,1092.08936
175,1.45,67.21315,-248.88821,1064.5481,108.95871,-309.04077,1112.83069,188.80959,-271.69226,1097.57605
176,1.458,67.77986,-248.47736,1066.33899,108.35096,-308.98428,1115.86072,188.94864,-272.36832,1100.03149
177,1.467,66.67382,-248.17096,1070.29431,106.96821,-309.26495,1118.87195,185.04138,-274.44379,1104.42981
178,1.475,66.83881,-248.42072,1072.47583,105.84364,-309.10373,1122.87964,185.88449,-274.46591,1108.05957
179,1.483,66.73302,-248.51765,1075.37976,105.24842,-308.54211,1125.44666,185.13008,-273.77051,1112.60876
180,1.492,66.63673,-248.20183,1078.73914,104.96331,-308.13577,1129.25757,184.17603,-274.98032,1116.17615
181,1.5,65.94032,-246.51797,1080.99915,103.96274,-307.7868,1132.22217,183.65575,-273.22443,1119.98071
182,1.508,65.20156,-245.68584,1084.76794,102.879,-307.10269,1135.5553,183.35497,-272.55823,1124.01819
183,1.517,65.74956,-245.02832,1087.48718,101.93061,-307.93155,1139.30737,182.76962,-273.59567,1127.26196
184,1.525,64.63604,-243.95912,1090.8844,100.85651,-306.39624,1141.95374,183.18202,-270.61218,1132.0741
185,1.533,64.84314,-243.89127,1093.46069,100.51173,-306.27524,1145.77954,181.2634,-271.95697,1136.13647
186,1.542,63.99424,-243.25876,1095.86768,99.37675,-305.51523,1148.5564,179.87965,-271.95746,1139.62207
187,1.55,62.8412,-242.6922,1098.84082,98.82036,-305.00299,1152.34717,179.56186,-271.4899,1143.53979
188,1.558,63.38433,-242.23801,1102.48755,98.61915,-304.05713,1155.23291,178.80521,-270.20969,1148.16248
189,1.567,62.21529,-241.71927,1104.64124,97.05762,-302.09103,1158.06494,178.72536,-269.84274,1151.8197
190,1.575,62.3794,-239.98785,1108.57214,96.54977,-302.33182,1161.92993,178.13713,-269.01547,1155.26184
191,1.583,61.93047,-240.45763,1110.75024,95.36737,-300.72037,1164.28931,177.13684,-267.08411,1160.00085
192,1.592,61.84774,-239.95212,1114.27905,94.7775,-300.16901,1167.7666,174.74043,-267.55774,1164.11755
193,1.6,62.04493,-238.20155,1116.94824,94.08428,-299.68787,1170.23718,175.09084,-265.82761,1167.26477
194,1.608,62.19553,-236.0937,1119.70728,92.98691,-297.96112,1173.74158,174.847,-264.3006,1170.93115
195,1.617,61.4705,-236.11177,1122.70325,92.22006,-297.68423,1176.77161,174.16043,-261.8031,1175.4552
