Frame#,Time,L.Forearm.x,L.Forearm.y,L.Forearm.z,L.Ulna.x,L.Ulna.y,L.Ulna.z,L.Radius.x,L.Radius.y,L.Radius.z
1,0,1664.32092,-187.52596,956.93976,1697.5387,-225.07129,874.40326,1623.25928,-188.94368,809.49792
2,0.008,1658.3866,-185.62177,957.45209,1690.88989,-221.65092,873.70862,1617.71973,-190.63614,810.73138
3,0.017,1653.38867,-185.23846,957.64832,1685.83484,-221.4866,873.60834,1614.13098,-188.92645,809.22009
4,0.025,1648.85059,-182.99284,958.05353,1680.4834,-220.45499,874.58917,1607.92493,-187.41167,811.16327
5,0.033,1643.90015,-185.21939,957.60742,1675.72607,-220.86726,875.23096,1601.64148,-185.7775,811.34808
6,0.042,1638.1582,-183.46603,957.26202,1670.54285,-219.9868,874.71417,1596.62976,-185.70305,811.73773
7,0.05,1631.57971,-179.61098,957.50677,1663.47375,-217.33386,875.09949,1590.92188,-183.07713,812.026
8,0.058,1626.74084,-181.83054,957.5072,1658.66565,-216.03708,875.19421,1585.77283,-180.98941,810.99451
9,0.067,1620.427,-178.41382,957.63763,1652.4978,-215.72844,875.38483,1579.86108,-180.10979,810.68921
10,0.075,1616.0177,-177.71516,958.23737,1647.12366,-215.94571,875.44391,1574.44031,-179.30721,811.09454
11,0.083,1608.86987,-175.80966,958.34747,1639.03406,-213.33525,875.77545,1571.08777,-178.18454,810.73883
12,0.092,1603.32959,-176.35712,959.31226,1633.49023,-213.7149,875.8244,1564.27258,-176.34578,810.45044
13,0.1,1597.70398,-174.91878,958.5802,1627.52417,-212.82936,876.29053,1558.36377,-178.96721,809.96149
14,0.108,1591.89185,-173.67984,958.40845,1621.4928,-212.55206,875.88409,1551.62939,-176.55498,809.91125
15,0.117,1585.38867,-174.08781,957.96497,1613.89868,-210.30281,875.86084,1543.73413,-176.6945,811.08325
16,0.125,1580.61951,-175.37289,958.78943,1609.41675,-213.08311,876.23126,1538.51489,-178.51772,810.95959
17,0.133,1572.74792,-174.03548,958.0462,1603.40784,-213.57419,875.71039,1531.34619,-177.85074,811.84039
18,0.142,1566.68274,-174.85442,957.90826,1596.89148,-213.85518,875.9895,1524.02661,-178.69957,810.4696
19,0.15,1559.7937,-174.40031,957.78326,1589.71753,-214.12779,875.7757,1516.47571,-178.08485,810.84015
20,0.158,1554.11426,-175.12556,958.28162,1583.43152,-214.08914,875.83026,1509.90784,-178.86491,810.46454
21,0.167,1547.36414,-175.40962,958.18628,1574.71899,-213.08714,874.90625,1502.62341,-178.12357,810.67627
22,0.175,1540.36157,-174.88298,957.71893,1570.08447,-216.03574,875.57983,1497.9043,-177.90744,809.65863
23,0.183,1534.20752,-174.60683,957.45355,1562.35925,-215.6192,875.24994,1489.70959,-178.0963,810.57727
24,0.192,1526.92725,-173.36771,957.00665,1554.92993,-215.25897,875.40961,1481.77759,-175.66571,810.00958
25,0.2,1521.16394,-174.89748,956.52606,1548.62817,-217.04897,874.84448,1475.82312,-177.28758,809.41016
26,0.208,1514.28296,-172.78252,955.62317,1540.40125,-215.52336,874.24628,1469.51135,-179.47946,808.88861
27,0.217,1506.52515,-174.41718,955.5119,1533.39929,-215.78223,875.31781,1462.29626,-178.26869,809.47443
28,0.225,1500.75146,-173.31709,955.50671,1526.58655,-217.1199,873.13538,1455.07739,-178.61235,809.09973
29,0.233,1492.11145,-172.92281,955.31195,1519.71228,-216.68109,873.44061,1448.91492,-178.68214,809.1806
30,0.242,1485.95264,-173.1834,955.45276,1512.52344,-217.01292,874.26886,1439.98535,-179.06737,809.45227
31,0.25,1477.97986,-173.25694,955.57037,1504.20154,-216.72675,871.83862,1432.71936,-179.40181,810.51501
32,0.258,1471.80615,-175.64131,954.75745,1497.46045,-216.86079,872.05493,1425.34595,-179.10048,809.72974
33,0.267,1465.29761,-174.66479,954.63147,1491.84656,-217.45158,872.80078,1418.06775,-180.3269,809.35864
34,0.275,1458.14978,-175.67198,954.51117,1484.27686,-217.57462,873.01868,1410.42957,-180.25005,810.03375
35,0.283,1451.646,-175.01363,953.89478,1474.7373,-217.19177,870.68665,1403.6333,-180.77902,809.51379
36,0.292,1443.00635,-176.00992,953.59741,1468.4502,-218.01414,870.83148,1395.94995,-179.90346,809.45105
37,0.3,1435.76697,-176.13731,953.01031,1461.3241,-218.06308,871.36285,1388.40039,-181.23752,808.85278
38,0.308,1428.86206,-175.78122,953.07996,1454.30505,-218.6338,871.68634,1381.48596,-180.8394,808.34235
39,0.317,1420.57068,-176.2067,953.25958,1445.93152,-218.83708,871.297,1374.05981,-183.25839,809.04517
40,0.325,1415.41016,-176.17125,953.17224,1439.12952,-217.82362,870.89557,1366.58301,-182.79395,809.1911
41,0.333,1406.92261,-177.38475,954.30023,1432.18872,-218.24309,871.45624,1358.84668,-183.37532,809.36609
42,0.342,1400.49402,-177.76494,955.1416,1424.97998,-218.38969,872.13361,1351.91321,-183.9998,809.81018
43,0.35,1392.94958,-177.54095,955.12482,1418.06226,-218.83162,872.60236,1344.58325,-183.58401,810.12677
44,0.358,1385.74402,-176.93654,956.00922,1410.12878,-219.24878,872.81384,1338.05042,-184.56076,811.1571
45,0.367,1378.46887,-176.90659,955.2785,1404.44592,-218.94669,874.2912,1330.28223,-183.09268,811.73279
46,0.375,1371.52771,-178.8204,956.55042,1396.02478,-217.96846,873.82635,1323.38184,-184.93558,811.81763
47,0.383,1363.29553,-176.759,958.15839,1389.505,-217.9005,875.43604,1316.12158,-184.70728,813.24475
48,0.392,1356.27844,-178.10013,958.50232,1382.07324,-218.76021,875.69629,1309.0697,-184.81055,812.62488
49,0.4,1348.8645,-177.63298,959.06708,1374.91809,-219.39832,876.35303,1301.85376,-184.01599,813.12561
50,0.408,1341.32788,-177.19011,959.17419,1366.44702,-218.55571,876.49756,1294.6239,-183.32088,813.73541
51,0.417,1334.36743,-178.25975,959.21014,1359.73694,-220.73343,877.69293,1287.03186,-184.97339,813.39252
52,0.425,1326.21338,-176.49232,958.86188,1350.90991,-220.30954,877.81927,1280.55042,-185.02719,813.33246
53,0.433,1318.8916,-178.02461,959.40399,1345.4115,-221.83792,878.13934,1273.0321,-186.20874,814.96313
54,0.442,1311.43726,-178.37991,959.73303,1336.8136,-220.04416,878.60327,1265.48999,-184.91528,814.89246
55,0.45,1304.70691,-177.25912,960.04834,1329.03418,-219.83417,878.91254,1257.52271,-183.79295,814.59967
56,0.458,1297.0293,-177.7915,961.66882,1322.36853,-221.56436,879.42523,1251.30701,-184.75557,814.896
57,0.467,1290.18591,-176.31583,961.76288,1315.24438,-221.1859,880.00488,1244.26221,-183.33037,815.28839
58,0.475,1283.97949,-177.42967,962.16071,1307.86133,-220.99231,880.2619,1236.65125,-183.66327,816.55109
59,0.483,1276.7262,-176.13547,962.33887,1301.01331,-218.7155,880.54089,1230.2395,-183.10596,816.85632
60,0.492,1270.72644,-177.45381,963.02637,1293.95154,-219.29918,881.40649,1223.01538,-181.96832,818.16528
61,0.5,1263.83594,-174.93349,964.17444,1287.41467,-218.75745,882.43073,1217.43994,-180.94699,817.99634
62,0.508,1256.52454,-174.58971,965.09448,1280.77637,-220.30602,883.03632,1210.25037,-180.56953,818.75671
63,0.517,1250.41248,-174.65158,965.612,1274.22253,-220.25925,883.74731,1203.09399,-179.74637,819.16522
64,0.525,1243.26465,-174.56413,965.65112,1266.99878,-218.65097,884.31299,1197.22729,-180.44501,820.16364
65,0.533,1237.00879,-173.6403,966.01166,1259.89514,-217.93185,883.71979,1189.84912,-179.04544,820.21649
66,0.542,1230.10889,-174.34814,966.53674,1254.0564,-218.95874,886.18768,1183.81433,-179.49623,820.53937
67,0.55,1222.93274,-172.86002,967.46143,1245.84607,-217.7032,885.69806,1177.71423,-178.72952,821.48389
68,0.558,1216.49707,-173.45483,967.67389,1238.90283,-216.07214,886.10907,1170.03772,-178.38232,822.16437
69,0.567,1210.22839,-172.24205,968.52545,1232.14624,-216.69287,886.9292,1164.63831,-178.60181,822.64325
70,0.575,1202.45447,-172.77455,968.90533,1226.27454,-216.30421,887.29059,1156.58508,-177.74588,823.79376
71,0.583,1196.68274,-172.62993,969.53278,1219.30164,-216.26202,888.99536,1150.5116,-178.97115,824.01453
72,0.592,1190.29138,-171.47998,970.47485,1213.65454,-215.50983,889.39392,1143.82971,-177.61699,824.22748
73,0.6,1184.76196,-171.22368,970.89496,1206.97021,-215.47343,889.35333,1135.75586,-176.5257,826.32617
74,0.608,1177.2782,-170.41779,971.96259,1200.07715,-214.7858,889.08362,1130.33179,-176.08234,826.72217
75,0.617,1172.86694,-171.7903,972.38507,1194.19653,-214.87662,889.86279,1123.88721,-175.6767,827.10242
76,0.625,1166.36987,-169.36238,972.67261,1188.35901,-214.63477,891.14777,1117.85461,-174.21425,827.9267
77,0.633,1160.32092,-168.74065,973.58472,1182.04321,-214.463,892.13049,1112.13989,-174.78407,827.99908
78,0.642,1154.5481,-169.02242,973.92743,1176.63831,-212.99159,892.85223,1104.57349,-173.26273,829.55084
79,0.65,1149.13062,-167.82623,974.45483,1170.30212,-212.99326,892.50513,1099.83472,-172.99728,830.50684
80,0.658,1143.91382,-166.20291,975.33295,1164.26196,-212.77864,893.49866,1093.75818,-173.61179,831.38928
81,0.667,1137.41748,-165.8712,975.9845,1158.62915,-212.12019,894.14661,1087.00073,-172.16771,831.54028
82,0.675,1132.67834,-165.95944,976.71198,1152.73035,-211.63077,895.33453,1081.85339,-173.32181,832.56592
83,0.683,1125.88586,-164.748,977.12848,1147.27393,-212.15883,895.97314,1076.89612,-170.91284,832.69385
84,0.692,1120.50208,-165.57268,978.10797,1141.50439,-210.84735,896.71545,1069.69604,-173.56567,833.55237
85,0.7,1114.97144,-165.0862,978.75378,1136.23572,-212.04292,897.68359,1064.51099,-171.62608,833.11316
86,0.708,1108.68286,-165.30878,978.7218,1129.89624,-211.70096,897.16663,1058.20679,-173.49739,834.50128
87,0.717,1102.66138,-165.23686,978.35742,1124.54663,-211.3598,896.99573,1052.40869,-172.93433,835.42981
88,0.725,1096.41125,-163.99217,978.6991,1118.64648,-211.21312,896.72577,1047.16785,-174.18517,834.54669
89,0.733,1090.82385,-164.85123,978.9715,1112.53296,-212.50888,897.33252,1040.75037,-173.04335,835.45789
90,0.742,1084.62305,-163.55452,979.13049,1107.65137,-211.28496,897.23773,1035.50085,-174.40877,834.71619
91,0.75,1079.68982,-164.78217,978.8949,1101.39783,-211.5788,897.4325,1030.22913,-174.17726,834.82751
92,0.758,1073.24133,-163.45973,977.8642,1095.52637,-211.31717,897.09082,1023.76019,-176.07127,834.96692
93,0.767,1068.01111,-164.13435,977.94098,1090.30127,-211.74149,897.14227,1018.02515,-175.40921,834.73639
94,0.775,1062.43726,-163.59039,977.77081,1084.88184,-211.20825,896.79315,1012.80548,-176.87874,833.75311
95,0.783,1056.99841,-161.80925,977.6123,1078.9032,-211.86028,897.18164,1006.41119,-175.61972,833.62573
96,0.792,1051.43542,-162.6237,976.59467,1073.03455,-210.43922,896.69452,1001.11084,-177.37527,833.76294
97,0.8,1046.52368,-161.94066,976.7594,1068.4408,-210.91272,896.29102,995.08557,-176.49796,833.16187
98,0.808,1040.04114,-162.57567,975.87921,1063.20569,-211.03874,895.87317,989.51733,-177.16489,832.93134
99,0.817,1034.92297,-161.37598,975.85327,1057.65564,-210.39153,895.16779,983.16577,-177.19684,831.82422
100,0.825,1029.08765,-162.61273,974.81268,1052.40137,-210.24783,894.1535,978.89758,-177.00781,831.60571
101,0.833,1023.66779,-161.03307,974.43457,1047.33191,-209.38312,893.74042,973.90015,-176.04012,830.62238
102,0.842,1018.41986,-161.76604,973.88452,1040.83252,-208.73508,893.06384,967.49811,-176.03818,830.08618
103,0.85,1012.41364,-160.42949,973.41473,1037.18079,-208.85512,893.4718,962.52167,-176.04042,829.62115
104,0.858,1007.27576,-159.17735,972.34882,1030.55347,-205.71056,891.29639,956.95325,-176.15591,829.38257
105,0.867,1001.67072,-159.32671,971.63928,1025.76392,-204.61279,890.58887,951.89697,-174.9183,828.6275
106,0.875,996.41748,-158.43129,971.30493,1020.81293,-205.07947,890.48102,945.82275,-173.85066,827.8349
107,0.883,990.22302,-157.78838,969.85022,1015.80212,-204.02029,889.20105,940.97992,-173.6201,826.61548
108,0.892,984.55231,-155.61592,969.20313,1010.64783,-202.56691,889.23242,936.16125,-172.64571,826.39313
109,0.9,978.91992,-155.6232,968.89307,1004.86835,-200.98412,888.64514,929.64465,-170.91949,825.10516
110,0.908,972.91687,-153.95316,968.49713,1000.48718,-199.82501,888.09534,925.24103,-170.89763,824.57623
111,0.917,967.65082,-152.41464,967.91602,995.03894,-198.50117,887.97815,920.48242,-168.11703,824.92804
112,0.925,961.50708,-151.5403,967.80853,989.79596,-194.65524,887.37402,914.4718,-166.6151,822.71692
113,0.933,955.66583,-149.05118,968.14362,984.73004,-192.84033,887.24127,911.17438,-165.1814,823.06647
114,0.942,950.72614,-147.03305,968.43341,979.58374,-192.13426,887.93884,906.13757,-162.19681,822.14716
115,0.95,944.80054,-144.30197,968.32245,974.50085,-188.34674,887.03864,900.987,-160.8812,822.47644
116,0.958,939.36285,-142.9021,968.08459,969.1665,-187.19272,887.85767,896.58264,-159.13002,822.66876
117,0.967,933.96271,-140.60262,968.32892,963.87952,-185.11708,887.21051,890.92566,-156.24246,822.43036
118,0.975,928.37207,-139.09947,968.91528,959.07996,-182.83827,887.95673,886.52985,-154.53,822.08972
119,0.983,922.61157,-137.16547,968.58484,954.25916,-180.30043,888.87982,881.28845,-153.98949,822.43939
120,0.992,918.20837,-136.80838,968.75507,949.56415,-178.04324,888.54443,876.31824,-149.95235,822.7005
121,1,913.09619,-134.13615,969.12622,943.8905,-176.41544,888.36658,870.98431,-148.87413,822.40808
122,1.008,907.34387,-132.23526,969.26947,938.88629,-174.44678,888.23547,866.68298,-147.02083,822.42175
123,1.017,902.28497,-132.11235,970.35089,934.79242,-172.10625,888.26624,861.22717,-146.9518,822.48724
124,1.025,897.49487,-130.45085,970.6864,929.74976,-170.18901,888.51447,855.84686,-144.61012,822.9389
125,1.033,892.00726,-129.64592,969.88507,924.69977,-168.26071,887.97412,851.065,-143.49313,822.91626
126,1.042,887.57104,-128.81712,970.32355,920.18323,-167.81955,887.37012,845.22595,-141.93326,822.23309
127,1.05,882.1936,-126.57118,969.73651,915.00464,-166.31723,886.9848,839.55872,-139.71681,823.07062
128,1.058,877.96143,-127.19085,970.08337,910.42938,-162.77715,886.26868,834.92609,-138.83511,823.23364
129,1.067,872.38293,-126.02594,969.62946,906.03479,-161.08107,886.11005,829.56506,-138.71858,822.83063
130,1.075,869.41675,-125.66251,969.65015,901.65814,-160.67082,886.35486,823.36255,-136.23001,824.18738
131,1.083,863.09998,-123.6497,969.91571,896.62836,-159.82301,886.17322,819.18256,-133.98325,823.84705
132,1.092,858.80756,-121.75912,969.48065,891.9978,-158.95293,886.0224,814.34375,-132.84698,823.55945
133,1.1,853.98334,-121.24792,970.30042,887.58789,-156.96158,885.50513,809.01697,-131.85512,824.46204
134,1.108,848.82764,-120.06421,969.97681,883.28156,-155.44119,886.68463,806.30353,-131.07077,824.5304
135,1.117,845.34363,-119.27758,970.79248,877.66498,-153.97964,886.68652,801.33386,-128.45332,824.7843
136,1.125,840.93597,-117.92963,971.3808,873.99146,-153.68527,887.21967,795.90649,-127.0264,824.77161
137,1.133,837.01978,-118.01083,971.3288,867.28564,-152.56236,887.02081,791.66217,-127.30117,825.18579
138,1.142,831.36664,-117.44061,971.81671,864.11273,-151.79538,886.64996,786.55701,-125.33454,826.39612
139,1.15,827.21057,-115.88562,971.66321,857.91925,-151.23682,887.89716,781.32825,-125.19033,826.7951
140,1.158,821.90509,-115.22696,972.35229,854.31726,-150.71626,888.1593,776.40283,-124.57963,827.53735
141,1.167,818.17828,-114.37774,972.68707,849.42578,-150.26939,888.5957,771.00336,-123.79689,827.09625
142,1.175,811.98163,-114.99006,972.49426,844.68756,-149.78183,889.12634,766.14319,-123.98102,827.39807
143,1.183,806.70819,-112.3731,972.28461,840.10864,-150.08794,888.29102,761.45593,-123.9146,827.85083
144,1.192,803.15582,-113.57934,972.44031,833.74884,-149.33899,888.7652,756.54608,-124.39877,827.20795
145,1.2,796.2981,-112.86938,972.17444,828.54791,-149.92561,888.63214,750.8692,-123.07627,827.8725
146,1.208,791.94702,-113.83691,973.78943,823.9549,-149.4659,888.77844,745.92267,-124.61572,827.69861
147,1.217,785.68121,-113.28448,973.28699,818.45416,-147.90901,889.06256,739.41516,-123.37469,826.94128
148,1.225,781.56256,-114.00971,973.03461,812.1535,-149.08507,888.77484,736.25299,-123.968,826.95245
149,1.233,773.82593,-113.98275,973.04919,806.96832,-149.87207,889.3811,730.1828,-123.01271,826.51001
150,1.242,768.63153,-113.80501,972.75031,800.72253,-149.88716,889.28986,724.5863,-123.04674,826.00378
151,1.25,762.77332,-113.87277,972.48218,795.2262,-150.1441,889.52136,719.42157,-123.45264,825.78381
152,1.258,756.02551,-113.56325,972.47473,789.97614,-151.11972,889.82867,712.69672,-123.21387,825.05035
153,1.267,750.95831,-113.06258,972.23053,783.39221,-150.13577,889.67676,708.7821,-124.6677,825.15198
154,1.275,743.95038,-113.55856,971.9762,777.62195,-151.02711,889.35461,702.16125,-123.54347,826.00159
155,1.283,738.42957,-113.46857,972.38812,772.54242,-151.73299,889.95477,697.70941,-125.03732,824.39069
156,1.292,733.52856,-114.10841,971.93188,765.12518,-151.88391,890.0589,690.9917,-124.63708,824.6507
157,1.3,727.39252,-114.26071,972.81323,760.35822,-152.72334,890.31256,685.37476,-125.64099,824.58228
158,1.308,722.14044,-115.49522,972.56934,754.47845,-153.31935,889.87726,679.79083,-125.94815,824.26044
159,1.317,715.96246,-115.44097,972.16772,748.09265,-153.91188,889.06604,674.55292,-127.42531,824.91858
160,1.325,710.54694,-116.70235,972.36456,742.56665,-154.97646,889.24219,667.90985,-129.51653,824.77844
161,1.333,705.39392,-118.05125,972.0174,737.06812,-156.12294,889.11755,664.3797,-130.26401,824.55957
162,1.342,700.00208,-117.90397,971.5293,731.48975,-156.40436,888.69598,657.22308,-131.38449,825.00507
163,1.35,693.79889,-119.75362,971.15704,726.03522,-158.18694,888.99707,651.0517,-132.62645,824.19067
164,1.358,687.36688,-120.90636,971.03693,720.52301,-159.11418,888.24689,644.50311,-133.80109,823.98102
165,1.367,682.48865,-122.09862,970.93884,714.52612,-160.1138,888.03833,638.12921,-134.34447,823.93744
166,1.375,676.14313,-122.52729,969.78094,707.74835,-160.70206,887.73407,631.49933,-135.94226,824.05682
167,1.383,670.27496,-124.53004,969.39258,701.97754,-161.72925,887.27881,625.11798,-137.49115,823.68402
168,1.392,664.12225,-124.68961,969.62567,695.45941,-164.41461,886.55945,619.49554,-138.23097,823.40015
169,1.4,659.37488,-126.18343,969.54736,689.00671,-165.43134,886.11707,613.3692,-139.19852,823.41986
170,1.408,652.08374,-126.4481,968.42786,683.96893,-166.55185,886.25873,605.99731,-139.97443,822.94434
171,1.417,646.6192,-128.71442,968.72803,676.84497,-166.11116,885.84613,600.5694,-141.07849,823.11536
172,1.425,640.03357,-128.48692,968.43024,670.37927,-168.17654,886.00073,593.55005,-142.7352,823.07013
173,1.433,634.29675,-130.27852,968.30695,664.42889,-168.04965,885.38245,587.07574,-141.8398,822.78229
174,1.442,627.71448,-130.52318,967.47943,658.07471,-169.11942,885.03058,580.82666,-145.81882,822.15869
175,1.45,620.49109,-131.40616,967.07648,652.17291,-170.28595,883.5282,574.81055,-145.64616,822.19904
176,1.458,615.68115,-134.32555,966.54578,645.38757,-171.19753,883.06152,567.97186,-147.08405,821.43298
177,1.467,608.11597,-134.83386,966.57233,640.16357,-173.21632,883.08002,561.74451,-148.43808,822.01678
178,1.475,603.81512,-136.66455,966.16785,633.03644,-174.01097,882.53076,554.20831,-148.67354,820.67487
179,1.483,596.00037,-137.33507,965.35864,627.89246,-175.46027,881.81726,548.71704,-150.39218,820.78778
180,1.492,589.91583,-138.8387,964.85492,620.05646,-176.28113,881.26355,542.41132,-152.11012,819.92175
181,1.5,583.66248,-140.07809,964.49823,613.40228,-177.03447,880.17572,535.49225,-151.9695,818.84961
182,1.508,576.15851,-141.10155,964.07214,606.65741,-179.94154,880.43695,528.44537,-153.71306,818.6424
183,1.517,570.422,-142.17545,963.38672,599.21552,-180.59528,880.24701,524.66382,-153.99695,818.4101
184,1.525,563.47876,-143.44173,963.00677,594.2749,-181.58441,880.69751,517.07111,-155.87029,818.24835
185,1.533,556.66211,-144.73322,962.95984,587.15503,-183.63098,880.44788,510.52448,-157.23425,818.25293
186,1.542,550.31012,-146.83571,963.84589,580.37683,-185.5437,881.50641,504.24316,-160.18364,818.39716
187,1.55,543.88684,-147.82065,964.31677,574.11639,-187.79912,881.80359,498.70401,-161.13132,819.30157
188,1.558,537.50732,-149.34688,965.1543,567.29108,-187.76891,882.53369,491.80249,-161.81503,820.68616
189,1.567,531.2998,-150.85408,965.71899,562.89746,-189.00146,882.74109,485.12329,-164.38495,820.80695
190,1.575,523.60431,-151.3844,966.68677,556.40448,-189.97711,883.51697,478.28079,-167.00635,821.08112
191,1.583,518.3869,-154.33456,967.65057,550.07489,-192.31067,885.29486,471.49326,-167.90588,821.93494
192,1.592,511.42722,-154.95555,968.9892,544.07343,-193.55681,886.29144,466.77475,-168.88715,823.05487
193,1.6,506.20145,-157.83864,969.26837,536.78961,-195.45691,887.54297,458.78061,-169.94235,824.83887
