Frame#,Time,R.Forearm.x,R.Forearm.y,R.Forearm.z,R.Ulna.x,R.Ulna.y,R.Ulna.z,R.Radius.x,R.Radius.y,R.Radius.z
1,0,28.24598,-108.12886,896.84381,109.60395,-48.00976,910.61548,51.49369,-14.66804,992.01367
2,0.008,25.10229,-105.91602,895.53961,106.48827,-46.59456,910.59424,47.46838,-16.99606,992.15344
3,0.017,23.46514,-106.28139,894.23358,104.16288,-45.50388,909.96924,44.01183,-16.23431,991.89117
4,0.025,22.17455,-106.96394,893.81525,100.41342,-43.92651,909.30707,40.83144,-18.41544,992.27661
5,0.033,21.33139,-108.1339,892.49384,98.6311,-43.93502,908.97034,37.73978,-18.77254,991.82245
6,0.042,18.09923,-105.13116,891.67773,96.09794,-43.41016,908.89233,33.99746,-18.69838,991.74548
7,0.05,16.81797,-105.91734,891.17584,93.47138,-41.54489,908.49841,31.47293,-20.4861,991.73956
8,0.058,16.30517,-106.6069,890.76288,91.33549,-41.25214,908.21313,27.92727,-19.82949,991.36456
9,0.067,15.75432,-106.34216,890.47302,89.43402,-40.45031,908.37476,24.75644,-20.72053,991.98462
10,0.075,13.70071,-105.33167,889.68988,86.58662,-38.94978,908.23822,23.31413,-22.27936,991.54376
11,0.083,12.04913,-106.51498,889.55695,85.33162,-37.70961,908.17548,20.05661,-22.64363,992.22668
12,0.092,10.68826,-105.31289,888.88605,82.74668,-36.50312,908.62225,17.65493,-23.58416,991.78827
13,0.1,10.48462,-105.8569,889.1156,80.29636,-35.05462,908.60693,15.44496,-23.37246,991.82581
14,0.108,10.45503,-105.55235,889.36829,78.16422,-34.94049,909.41669,15.4205,-24.99979,991.92029
15,0.117,9.30634,-106.03153,889.38104,76.27927,-33.79331,909.51117,10.7071,-26.07608,992.34937
16,0.125,6.56384,-105.55153,889.20618,74.11594,-32.62215,909.69116,9.79346,-25.86706,992.26105
17,0.133,6.56384,-105.55153,889.20618,72.61986,-32.00628,910.08655,7.9531,-25.89281,992.21454
18,0.142,6.56384,-105.55153,889.20618,71.289,-30.93713,910.82507,5.83725,-28.77273,993.09772
19,0.15,5.20877,-104.42414,889.89313,69.15565,-30.50284,911.36511,4.66018,-29.07619,993.02856
20,0.158,4.99896,-104.02148,890.1532,67.0487,-28.18755,911.76477,1.27165,-28.6048,994.08167
21,0.167,4.99896,-104.02148,890.1532,65.92892,-28.23052,912.82355,0.42947,-29.19244,993.81848
22,0.175,4.71729,-104.22038,890.63263,64.02704,-27.21285,913.6554,-1.35486,-29.07691,994.82263
23,0.183,3.8996,-104.11076,890.94855,62.75455,-26.71474,914.14716,-2.8903,-30.34066,994.77997
24,0.192,3.81457,-103.62029,891.18079,61.50496,-25.86711,915.68597,-3.74678,-31.03688,995.8313
25,0.2,3.12204,-104.41184,892.40765,60.32998,-25.41695,916.25372,-6.46685,-29.0435,995.85083
26,0.208,2.59981,-104.40466,893.31171,57.26366,-23.56004,916.48682,-8.75566,-31.83459,996.83063
27,0.217,2.08363,-103.83176,893.37177,56.97349,-23.50002,917.75922,-9.95214,-33.38582,997.32965
28,0.225,0.84611,-102.95483,892.7085,55.18596,-22.44837,918.38715,-10.48074,-33.47661,998.76215
29,0.233,0.25617,-102.33053,892.57507,53.96552,-21.32875,918.91943,-11.09595,-33.57865,999.21368
30,0.242,0.42082,-102.1441,893.07684,52.87048,-19.85457,918.99652,-12.4262,-34.49652,999.2417
31,0.25,0.04042,-101.57048,893.44055,51.81672,-19.17671,920.06897,-13.41811,-34.97412,999.3432
32,0.258,-0.03599,-101.05024,894.38037,50.86515,-17.81857,921.05676,-15.66633,-34.60836,999.90668
33,0.267,-0.19463,-100.30184,894.61462,48.77024,-16.98737,922.11505,-15.99083,-35.62265,1000.57556
34,0.275,-0.19463,-100.30184,894.61462,48.53341,-16.19159,922.23883,-15.94442,-36.274,1001.09247
35,0.283,-0.09713,-99.97675,894.74011,48.52729,-16.01452,922.5224,-17.53095,-35.6169,1001.17694
36,0.292,0.14416,-99.42554,894.75293,47.68894,-15.15309,923.12976,-18.59468,-35.27273,1001.52673
37,0.3,-0.17134,-98.27183,894.98877,46.85678,-14.62203,923.62494,-19.35242,-35.07154,1001.45099
38,0.308,-0.58169,-98.34765,894.99677,46.35538,-14.14915,923.78467,-20.60226,-34.28836,1002.02722
39,0.317,-1.6373,-97.42774,894.72009,45.30059,-13.16261,924.1402,-20.61849,-34.72786,1002.44092
40,0.325,-1.79147,-97.22758,894.31378,45.15905,-12.94567,924.17456,-20.68941,-34.80514,1002.13928
41,0.333,-1.79147,-97.22758,894.31378,44.7201,-13.0295,924.37872,-21.10369,-34.27307,1002.07642
42,0.342,-1.79147,-97.22758,894.31378,45.20973,-12.59621,924.28668,-21.10369,-34.27307,1002.07642
43,0.35,-1.79147,-97.22758,894.31378,44.90912,-12.25946,923.50922,-21.10369,-34.27307,1002.07642
44,0.358,-2.0824,-97.48372,894.14441,45.01615,-12.00416,923.70819,-20.42549,-33.59004,1001.67236
45,0.367,-2.0824,-97.48372,894.14441,45.39124,-12.05304,923.20313,-20.42549,-33.59004,1001.67236
46,0.375,-1.44997,-96.94518,893.54614,45.49023,-11.8207,922.94604,-19.67039,-34.03185,1001.5603
47,0.383,-1.63384,-96.50122,893.25146,45.99599,-11.59445,922.84833,-18.17073,-34.85984,1001.54102
48,0.392,-2.29055,-95.57735,892.94354,46.80254,-11.83519,922.20752,-18.17073,-34.85984,1001.54102
49,0.4,-2.27047,-95.32036,892.50525,46.80521,-12.00305,922.05933,-17.33737,-35.42892,1002.62531
50,0.408,-2.27047,-95.32036,892.50525,46.98523,-12.42407,921.56036,-16.83128,-35.70107,1002.02356
51,0.417,-2.37494,-95.51473,891.53345,47.48059,-12.8988,921.05762,-16.00541,-36.08892,1001.97791
52,0.425,-1.82166,-96.34216,891.32098,47.7174,-13.12788,920.7558,-15.4841,-36.35119,1001.7821
53,0.433,-0.91559,-96.17794,890.56274,48.02696,-13.43031,920.04236,-15.4841,-36.35119,1001.7821
54,0.442,-1.1097,-95.86465,890.4892,48.29087,-13.76757,920.12653,-14.38357,-35.97256,1001.14172
55,0.45,-1.19853,-96.14605,890.37915,48.40808,-14.66496,919.75482,-13.26394,-35.42366,1000.85303
56,0.458,-1.10093,-96.91334,890.02826,49.33428,-14.88094,918.94849,-12.95632,-35.46288,1000.44604
57,0.467,-1.10093,-96.91334,890.02826,50.63559,-15.88265,918.77032,-12.40174,-35.69392,1000.41528
58,0.475,-1.0987,-97.12464,889.8114,51.20212,-16.50173,918.84241,-11.66937,-32.41214,998.65057
59,0.483,-1.20065,-97.13781,889.17212,52.21178,-17.02672,918.46222,-10.95025,-32.56664,998.62531
60,0.492,-0.04791,-98.88603,889.41187,53.57269,-17.71339,918.18903,-10.57083,-32.97636,998.3891
61,0.5,-0.04791,-98.88603,889.41187,54.70046,-17.50362,918.36078,-9.50765,-32.68305,998.24109
62,0.508,0.27309,-98.76488,889.31598,55.84285,-18.78784,918.34894,-9.10603,-32.27616,998.53546
63,0.517,0.92233,-99.15002,888.95258,57.60082,-19.23268,917.95935,-6.72344,-32.29641,999.01337
64,0.525,0.92233,-99.15002,888.95258,58.94779,-20.19841,918.50226,-4.66769,-32.05312,998.72589
65,0.533,0.92233,-99.15002,888.95258,60.49331,-21.01851,918.54443,-3.65245,-31.7609,999.02863
66,0.542,3.2307,-100.6244,889.33362,62.62058,-23.17066,918.79382,-2.41933,-32.21339,999.23859
67,0.55,3.2307,-100.6244,889.33362,64.36864,-24.76297,919.40912,-1.1323,-31.99634,999.47241
68,0.558,3.30802,-100.7426,889.0589,66.95716,-26.11208,919.88391,1.79156,-33.24793,999.9693
69,0.567,4.70198,-102.25019,889.47742,68.89726,-26.8736,919.80975,2.82985,-33.94057,1000.67859
70,0.575,5.31062,-102.228,889.45258,70.96709,-29.1301,920.33582,4.82113,-32.40721,1001.37433
71,0.583,5.91934,-102.20626,889.42792,73.67696,-30.97541,920.49976,6.32999,-30.94723,1000.85034
72,0.592,5.91934,-102.20626,889.42792,75.60071,-32.50206,921.14752,9.9882,-32.2332,1002.0556
73,0.6,7.63395,-102.75519,890.22754,78.26669,-34.87585,921.2937,9.58277,-31.4565,1001.99829
74,0.608,9.93884,-104.2308,890.60858,80.32968,-36.44171,922.00525,12.68333,-31.13783,1002.4007
75,0.617,10.80833,-104.68504,892.85999,83.86849,-38.79757,922.58527,15.46727,-30.68724,1003.07471
76,0.625,11.05217,-104.44742,893.03912,85.74241,-41.47481,923.20129,18.22048,-29.81056,1002.9259
77,0.633,11.35361,-104.77446,893.60321,88.73935,-42.69119,924.36633,21.06715,-29.05503,1003.45313
78,0.642,13.83767,-104.43474,894.91394,91.93175,-44.73,925.05603,25.21986,-28.62663,1003.63159
79,0.65,16.55556,-106.05952,895.98315,94.47649,-46.68907,925.2998,28.14602,-27.98228,1003.91351
80,0.658,16.27122,-105.05863,895.75879,97.16339,-49.30727,925.89111,31.2256,-26.97557,1004.31549
81,0.667,20.13123,-105.85857,897.45129,100.7514,-50.44607,926.45984,36.06618,-25.76977,1004.65149
82,0.675,22.26457,-108.04195,898.78595,103.18764,-51.96705,926.68237,38.32944,-25.99028,1005.60846
83,0.683,23.72157,-108.25149,899.15131,106.74109,-53.73576,927.40875,43.22841,-25.90375,1005.78882
84,0.692,26.01202,-107.36924,901.31586,109.63368,-55.22992,927.94379,46.62672,-23.23685,1006.17413
85,0.7,29.5511,-110.33372,902.8324,112.25677,-57.4759,928.81549,51.66537,-23.0635,1007.20081
86,0.708,28.92616,-108.62337,903.75769,115.63283,-59.43554,929.82831,54.72755,-22.19754,1007.79266
87,0.717,31.86724,-108.48333,904.4527,118.87265,-60.15375,930.76459,59.7811,-22.27293,1007.9646
88,0.725,32.59596,-109.24723,906.92621,121.83104,-62.37122,931.72369,63.49649,-21.19728,1008.56427
89,0.733,34.9404,-107.58172,908.72064,125.80173,-62.73049,932.1145,68.4617,-21.51179,1009.88
90,0.742,38.09242,-109.43613,909.86639,128.98332,-64.29329,932.60541,73.35612,-19.89157,1009.979
91,0.75,40.42566,-110.12353,910.67291,132.76291,-67.20781,933.87592,77.07471,-20.62111,1010.87
92,0.758,42.39199,-108.57713,912.83496,135.42786,-67.93987,934.91644,81.59735,-18.5732,1012.06616
93,0.767,46.97396,-109.38135,914.69757,139.14354,-69.23317,935.55298,85.61128,-19.39034,1012.82062
94,0.775,48.30816,-109.00094,915.10742,142.33054,-70.17059,936.867,90.49486,-19.97745,1013.86444
95,0.783,51.51923,-109.50961,918.20386,146.46494,-70.75597,937.43707,96.55032,-18.15142,1013.95062
96,0.792,53.89496,-110.4373,919.23608,149.29562,-71.40933,937.84155,100.48008,-18.17113,1015.24585
97,0.8,56.68599,-109.02588,920.88068,152.59335,-73.24234,939.14886,105.86172,-17.66758,1016.00482
98,0.808,60.89062,-109.10344,923.21619,155.79536,-74.19617,939.78717,110.72893,-16.43412,1016.25726
99,0.817,62.20488,-109.40746,924.78754,159.82001,-74.62528,940.95154,115.80688,-15.57753,1016.88019
100,0.825,65.29366,-108.95232,927.1438,163.94759,-75.13619,942.32867,121.5704,-15.17059,1017.28131
101,0.833,68.72642,-109.3153,929.04211,167.20169,-76.2613,942.82861,125.91628,-14.20896,1018.36523
102,0.842,72.02371,-108.94921,931.18353,171.13107,-76.64344,943.15741,130.27512,-14.85416,1019.75946
103,0.85,73.67534,-108.58193,933.33771,173.74147,-78.03421,943.81366,135.26009,-14.35022,1019.41888
104,0.858,77.2949,-108.74368,933.98999,177.81009,-78.2689,944.42676,140.17363,-13.05185,1020.82117
105,0.867,79.99525,-108.80532,937.73334,181.84543,-78.32787,946.52582,144.67091,-13.31372,1021.00305
106,0.875,83.08324,-107.87302,940.00214,183.56947,-79.44859,946.99792,148.07451,-11.7983,1022.36554
107,0.883,86.13481,-107.90803,942.04449,187.21463,-80.05119,948.30817,153.66287,-12.7449,1024.05737
108,0.892,88.84474,-109.16853,943.46045,189.96216,-80.25648,950.25049,157.12314,-10.93703,1024.34265
109,0.9,91.15924,-107.73524,945.61908,193.5618,-80.50262,950.88116,162.04224,-11.49523,1025.14368
110,0.908,94.62849,-107.5431,947.69525,196.96805,-81.56024,951.60291,165.62549,-10.00111,1026.22668
111,0.917,96.91888,-108.24248,949.72321,198.55264,-81.42941,952.77527,170.61565,-10.52881,1026.37292
112,0.925,100.81525,-107.77751,951.79236,202.46455,-82.36993,954.87317,174.02812,-8.58583,1027.26294
113,0.933,102.43881,-107.97173,954.13513,205.12904,-83.5529,956.15686,178.90704,-8.65911,1027.90771
114,0.942,105.37085,-106.23867,955.88037,207.89552,-83.13775,957.56427,182.70036,-6.75922,1028.36694
115,0.95,107.70513,-106.55943,957.53375,210.96846,-84.90389,958.48779,187.21257,-7.21122,1029.19836
116,0.958,110.83031,-106.67724,960.73517,214.46017,-85.54461,959.86957,191.02032,-6.14251,1029.53552
117,0.967,112.33713,-105.4726,962.39233,216.51248,-85.33937,961.35077,194.72899,-6.58009,1029.86316
118,0.975,116.05293,-104.71408,964.86267,218.40958,-85.96992,964.09503,197.61008,-4.77415,1031.53455
119,0.983,117.52001,-104.43684,967.32959,220.96747,-86.07274,965.03467,200.40741,-4.5239,1031.94275
120,0.992,119.61673,-103.0937,969.54993,223.48734,-85.33892,966.44843,204.9297,-5.29402,1033.05823
121,1,121.47002,-102.83762,971.4967,226.35159,-86.27208,968.2879,207.78795,-3.55127,1033.88062
122,1.008,124.87479,-102.68507,974.43842,228.93927,-86.67822,970.33325,211.4924,-4.64675,1034.80579
123,1.017,126.25286,-102.52569,976.45679,230.27037,-86.25514,972.84668,214.01068,-3.09577,1035.75647
124,1.025,127.91709,-100.94252,977.75763,232.74181,-86.12616,973.68213,216.98767,-3.46462,1037.70215
125,1.033,130.00438,-101.16173,980.14337,234.74728,-85.65843,975.44507,219.82748,-2.25573,1038.89868
126,1.042,131.5209,-100.76565,982.6778,236.96579,-85.65297,977.46143,222.97736,-0.97058,1039.72058
127,1.05,134.12625,-100.28946,984.5874,238.5706,-85.9222,978.9433,225.93857,0.21894,1040.83435
128,1.058,135.67404,-99.224,986.67438,241.31667,-85.38119,981.22241,229.20534,1.19018,1041.62378
129,1.067,137.26183,-98.3916,988.76282,243.5797,-85.34393,982.59491,232.32655,0.45795,1042.26929
130,1.075,139.08165,-96.71611,991.64716,244.88791,-85.32303,985.04108,234.41795,2.50177,1043.52747
131,1.083,140.47716,-95.84108,993.07062,246.45743,-85.11816,987.39008,236.5078,2.61082,1044.35803
132,1.092,143.54213,-95.20739,995.84802,248.61684,-85.56686,989.02789,240.60442,3.95085,1045.25159
133,1.1,144.83455,-94.61772,998.15106,250.29289,-85.49903,991.14508,242.70769,4.29106,1046.17346
134,1.108,146.20152,-93.0069,1000.34088,252.02885,-84.60138,993.58545,244.91501,4.52637,1047.92175
135,1.117,147.64763,-93.07049,1002.67963,254.06296,-83.76688,995.73877,247.81799,6.66455,1049.49475
136,1.125,149.01222,-91.37159,1004.66998,255.52797,-84.98139,997.67706,249.74088,6.50673,1050.32471
137,1.133,150.40189,-88.9453,1006.89264,257.43289,-84.4812,1001.04901,252.82704,7.84847,1051.23572
138,1.142,152.79678,-88.76002,1008.87695,259.1478,-83.45588,1002.6615,254.8214,9.71766,1052.50195
139,1.15,153.85623,-88.42973,1011.82434,260.35086,-83.11286,1004.12262,257.14182,9.93427,1053.69751
140,1.158,155.64792,-87.354,1014.71185,262.87357,-82.47878,1006.37396,260.63019,11.58146,1054.67957
141,1.167,157.53467,-85.1909,1016.69403,264.59351,-82.69119,1009.31757,263.02618,11.28551,1056.27441
142,1.175,159.10478,-83.58287,1019.38855,265.35587,-82.47761,1011.23145,265.67026,13.53218,1056.97644
143,1.183,159.93279,-82.55898,1021.06848,267.98981,-82.00032,1013.32654,267.44272,14.15875,1057.94983
144,1.192,161.92992,-80.84532,1024.25989,269.16583,-81.84766,1015.9068,270.69928,15.68258,1059.23987
145,1.2,163.18211,-80.6817,1026.87964,270.41827,-81.20946,1017.40356,272.72095,16.85907,1060.44507
146,1.208,164.97894,-77.61952,1028.35425,271.45889,-79.43627,1018.95245,275.1684,16.65399,1061.20581
147,1.217,166.72115,-77.63992,1031.59021,273.41733,-79.24523,1022.60645,277.46796,19.0963,1063.18958
148,1.225,168.10022,-76.90508,1034.19128,275.03568,-78.99196,1023.98218,279.93222,19.01022,1064.32581
149,1.233,169.84013,-75.37971,1036.54492,276.59628,-79.42725,1026.41919,282.45901,18.97346,1065.84753
150,1.242,170.77437,-74.46424,1038.23804,277.85999,-78.58663,1028.68506,284.33444,20.38764,1067.30286
151,1.25,171.91615,-72.77121,1041.08521,279.10489,-78.08765,1031.08618,286.54123,21.33824,1068.46484
152,1.258,173.0963,-70.55401,1042.71802,279.86713,-76.69475,1033.13049,288.07126,22.37053,1069.57349
153,1.267,173.90944,-69.03426,1045.00916,280.69791,-76.40739,1035.16064,291.40543,23.09007,1070.99744
154,1.275,175.076,-68.31272,1047.11646,282.58698,-75.75925,1037.22803,292.94843,22.54448,1072.21289
155,1.283,176.67575,-66.84151,1049.47192,283.99118,-74.67009,1039.27637,295.11072,24.24206,1072.54602
156,1.292,177.91167,-65.36417,1052.56628,285.58109,-76.11587,1041.9447,297.09927,25.55329,1074.80798
157,1.3,178.57051,-63.78664,1054.2312,286.17111,-76.34593,1045.12158,298.67419,25.90218,1075.45667
158,1.308,179.77417,-62.40087,1056.63831,286.6149,-74.40871,1045.93787,299.86432,26.51051,1077.09814
159,1.317,180.69942,-61.53976,1058.0918,287.82214,-73.59702,1047.87964,303.30023,25.98279,1077.63184
160,1.325,181.7498,-60.20619,1061.24951,288.79227,-72.51924,1050.39832,304.39081,28.41988,1079.1001
161,1.333,182.0535,-59.44732,1062.20056,289.45844,-72.55647,1052.50208,305.11252,27.70718,1081.13623
162,1.342,183.31807,-58.08228,1064.5575,290.32993,-70.93452,1053.82825,307.13129,29.80774,1081.86963
163,1.35,184.00047,-57.09229,1066.08386,290.47745,-71.43546,1057.65454,308.35019,29.8889,1083.69421
164,1.358,184.82399,-55.3172,1068.9856,291.16306,-70.27278,1058.90234,309.20041,29.90999,1084.71619
165,1.367,185.41498,-54.13004,1069.37122,291.31122,-69.77348,1059.45544,311.28821,30.9114,1085.64941
166,1.375,185.74611,-52.8544,1071.89734,292.54837,-68.60584,1062.61047,313.04758,31.63359,1086.09729
167,1.383,186.83586,-51.5117,1074.1283,292.82614,-68.91693,1065.13782,313.63248,32.44214,1087.16736
168,1.392,187.63101,-49.78378,1075.65466,294.03906,-68.60218,1066.34326,314.57571,33.03988,1089.35034
169,1.4,187.89519,-48.55095,1077.47754,294.07465,-67.41634,1067.33215,316.66571,33.97773,1090.35571
170,1.408,188.09149,-47.27025,1079.0592,294.93878,-64.72848,1070.60181,317.82715,35.32855,1091.79761
171,1.417,188.80534,-45.76321,1080.04541,295.92627,-65.79025,1071.94666,318.24628,35.34314,1092.38318
172,1.425,189.17209,-43.82212,1082.60498,295.93881,-64.00766,1073.78174,318.50137,36.67904,1093.37292
173,1.433,189.49184,-43.49193,1083.30811,295.82822,-63.25652,1075.2616,319.76291,38.44929,1095.23413
174,1.442,189.7262,-41.8234,1085.28186,295.62329,-63.03254,1077.48047,320.00061,38.08843,1095.43762
175,1.45,189.94722,-41.62225,1086.40308,295.86911,-62.64181,1078.71838,320.62146,39.42792,1096.16797
176,1.458,190.38277,-39.3708,1087.75452,295.96533,-61.55938,1080.80078,321.94406,40.08853,1098.44849
177,1.467,190.62686,-37.2381,1088.60742,296.1282,-60.37365,1082.14258,321.94629,41.43115,1099.55518
178,1.475,190.69716,-36.30178,1090.14978,296.76184,-59.67756,1083.80298,322.88327,41.64701,1099.92908
179,1.483,190.42453,-35.01794,1091.72498,296.86346,-59.12474,1085.72888,323.16437,42.37928,1100.73596
180,1.492,190.44347,-34.62562,1092.5116,296.59564,-58.3591,1087.27551,323.94153,44.03329,1101.83118
181,1.5,190.77954,-33.62222,1093.62109,297.2883,-57.17684,1088.55725,324.68314,45.18303,1102.04871
182,1.508,191.36389,-31.60824,1094.41943,297.70105,-56.53698,1090.24438,325.00122,46.36491,1103.02991
183,1.517,191.58502,-30.1592,1096.36108,297.55292,-55.93756,1091.83264,325.87878,45.79404,1103.15271
184,1.525,191.75604,-28.87675,1097.29248,298.13092,-54.79898,1093.28772,326.32547,47.6543,1103.93152
185,1.533,191.75098,-27.92168,1098.02771,298.01825,-53.98046,1094.17346,327.54831,48.51494,1104.28125
186,1.542,192.33267,-27.59327,1098.52661,298.68204,-53.8197,1094.94263,327.47629,48.24109,1104.92834
187,1.55,192.71841,-25.10683,1099.42981,298.42099,-52.63055,1096.88904,328.78351,49.57606,1105.45386
188,1.558,192.80469,-23.78452,1101.12231,298.5372,-51.96214,1098.15503,328.95361,48.68976,1105.95557
189,1.567,192.80496,-22.77155,1102.19775,298.23468,-50.76271,1099.56067,329.36185,49.55693,1106.38123
190,1.575,193.73167,-21.60633,1102.79102,298.83289,-49.88523,1100.46655,330.33612,49.87818,1108.12048
191,1.583,193.58925,-21.02927,1103.50659,299.46027,-49.89839,1100.91455,331.62354,49.37461,1108.09216
192,1.592,193.59879,-20.46449,1103.97986,299.78592,-49.43726,1102.71436,332.46179,49.79934,1108.16699
193,1.6,193.7428,-18.52076,1104.30811,299.14185,-49.26288,1103.6908,333.02069,51.07945,1108.69531
194,1.608,194.06291,-16.92315,1106.005,299.14053,-48.37011,1105.06628,334.26764,51.18107,1109.41467
195,1.617,193.63004,-16.33774,1106.88342,298.6853,-47.57835,1105.37708,335.0672,50.93116,1110.37512
196,1.625,193.77299,-15.9438,1107.44336,299.06567,-46.66429,1106.01038,334.71466,52.08458,1110.48022
197,1.633,194.2578,-14.96116,1107.89307,299.29477,-46.51433,1106.55078,335.01904,52.19089,1111.23376
198,1.642,194.10789,-14.28628,1108.68213,299.50473,-46.24475,1107.04346,335.07312,52.69904,1111.72156
199,1.65,194.29607,-13.61287,1108.93018,299.10535,-45.57785,1108.18213,336.40366,51.33129,1111.37451
200,1.658,194.69453,-13.28463,1109.63721,298.75571,-45.01506,1109.28381,335.4248,52.64982,1111.90186
201,1.667,194.81532,-12.28789,1109.97034,299.33337,-44.73357,1110.27209,336.85645,51.48677,1111.97827
202,1.675,194.49924,-11.98228,1110.17285,299.50018,-44.95843,1110.96399,337.38583,51.2599,1112.20459
