Frame#,Time,R.Forearm.x,R.Forearm.y,R.Forearm.z,R.Ulna.x,R.Ulna.y,R.Ulna.z,R.Radius.x,R.Radius.y,R.Radius.z
1,0,263.53217,-357.267,1250.13794,323.42368,-340.02069,1185.31909,344.86478,-267.78659,1256.71448
2,0.008,264.1254,-357.66568,1249.62891,323.34613,-340.58801,1184.7384,346.40906,-269.67542,1256.86462
3,0.017,264.78622,-358.72592,1249.04053,323.39169,-341.06924,1183.72974,346.3092,-271.35843,1257.34985
4,0.025,264.78186,-360.10007,1248.09131,323.78503,-340.95868,1182.51855,347.37939,-271.72507,1256.4353
5,0.033,264.84485,-360.98254,1247.54102,323.08917,-340.55511,1182.00806,348.20081,-272.72382,1255.9718
6,0.042,264.9133,-361.36276,1246.771,323.36584,-340.04501,1181.6958,349.41544,-272.75397,1254.58618
7,0.05,265.4155,-361.58084,1246.29956,324.36923,-340.47821,1180.58362,349.69257,-272.34793,1254.13318
8,0.058,265.68515,-361.53543,1246.2356,324.79489,-339.36841,1179.71509,349.88266,-271.62924,1253.48523
9,0.067,266.75815,-361.05725,1246.26294,324.40457,-338.6087,1178.5365,349.37442,-270.98206,1253.09497
10,0.075,267.12195,-360.75323,1245.80566,324.35889,-338.76175,1177.41052,349.12476,-270.47464,1252.21265
11,0.083,267.01044,-360.19086,1245.66016,323.63052,-338.60611,1177.12769,348.82932,-268.86722,1251.19543
12,0.092,266.64911,-358.87518,1245.62988,323.34634,-338.51151,1176.78577,346.22623,-266.5813,1249.93335
13,0.1,266.37546,-358.27411,1245.51392,323.27496,-338.63748,1176.69238,345.49966,-265.67538,1248.39001
14,0.108,265.66373,-356.88037,1245.4021,323.1337,-337.62787,1177.36597,343.69748,-263.31662,1247.49268
15,0.117,264.55713,-355.77539,1245.52893,322.17001,-337.1434,1177.31213,342.32773,-261.82382,1245.51758
16,0.125,264.35876,-355.66852,1245.5033,322.0199,-337.25784,1177.86011,341.31107,-260.65878,1243.73462
17,0.133,263.59686,-355.12958,1245.33594,321.0224,-337.63474,1178.00513,339.63278,-258.54794,1242.46606
18,0.142,262.60739,-353.93997,1245.22095,320.69803,-338.18002,1178.01025,339.57455,-258.29803,1241.85364
19,0.15,263.25525,-352.65195,1244.43286,320.1105,-338.05264,1178.1781,339.43723,-258.08032,1241.14099
20,0.158,263.41214,-352.65002,1244.28003,321.07962,-338.79373,1176.86926,339.58246,-258.99405,1240.32825
21,0.167,263.65714,-352.95282,1243.74817,321.84534,-339.00867,1176.29236,341.31577,-260.27789,1240.77405
22,0.175,264.931,-355.02841,1243.15222,321.97717,-339.16388,1176.01624,343.19559,-261.35114,1240.50061
23,0.183,264.97073,-355.3927,1242.96045,321.83035,-339.67328,1175.68713,344.26627,-263.08463,1240.77881
24,0.192,265.31796,-355.89285,1242.37695,322.06592,-339.49222,1174.65234,346.58148,-265.76089,1241.63855
25,0.2,266.03687,-355.72693,1241.57251,322.22058,-339.61661,1174.63989,348.73849,-267.19727,1242.61658
26,0.208,266.09705,-356.06897,1241.39404,322.33493,-340.02185,1173.67151,349.00897,-269.04617,1243.41394
27,0.217,266.35303,-356.4292,1240.96777,321.7626,-340.29019,1172.7019,350.23648,-270.18884,1243.72888
28,0.225,266.66574,-359.52094,1240.32214,322.55179,-339.70255,1171.52148,352.00351,-270.93698,1244.11853
29,0.233,267.55136,-359.94321,1240.31152,322.49063,-339.51981,1170.67188,352.97348,-272.33868,1244.5498
30,0.242,268.46039,-361.39465,1239.86462,322.64682,-339.27444,1170.64807,353.37628,-273.99918,1245.63965
31,0.25,268.31906,-361.90985,1239.9093,322.64682,-339.27444,1170.64807,353.06573,-273.70056,1245.60706
32,0.258,268.31332,-362.15338,1240.11694,322.76929,-339.20236,1170.27747,352.53143,-272.83563,1245.95154
33,0.267,268.02322,-362.34076,1241.06311,322.90756,-338.98312,1171.59448,350.57578,-271.43317,1246.15076
34,0.275,268.31827,-362.0596,1241.71948,322.50647,-338.66504,1172.66919,349.57446,-270.17325,1246.26453
35,0.283,267.72488,-360.7717,1242.86218,322.2999,-339.23636,1174.58411,347.82169,-267.35339,1246.46594
36,0.292,266.42493,-359.84253,1243.65979,322.58249,-339.28116,1175.32471,346.5242,-265.90829,1246.36731
37,0.3,265.20099,-357.67816,1244.27539,322.66629,-339.0358,1176.17407,344.40915,-264.31049,1245.98669
38,0.308,263.75757,-355.93646,1245.09253,322.6189,-339.72925,1177.44055,342.82227,-261.91074,1244.71143
39,0.317,262.5795,-355.28601,1245.31677,322.08234,-339.29483,1179.44495,341.90967,-261.41821,1244.01099
40,0.325,262.93341,-353.1792,1244.32483,322.64835,-339.69632,1179.68872,341.11017,-260.47809,1243.91821
41,0.333,260.89752,-351.19318,1244.20044,321.69427,-338.61218,1179.64441,340.05304,-258.60361,1242.20728
42,0.342,261.20062,-350.87061,1244.01404,321.49036,-337.92963,1179.13879,340.05304,-258.60361,1242.20728
43,0.35,261.20062,-350.87061,1244.01404,321.80695,-336.87204,1177.53967,340.47095,-258.95132,1241.40112
44,0.358,263.49942,-352.64932,1244.15015,321.87646,-337.12662,1175.73413,342.22885,-259.62427,1241.08472
45,0.367,263.44821,-354.63464,1242.6012,321.64114,-337.55612,1174.88892,343.38882,-261.81821,1240.7627
46,0.375,265.44095,-355.21588,1242.58887,321.96326,-337.53503,1174.14966,344.60501,-264.01746,1241.3999
47,0.383,265.5849,-355.59872,1241.66943,322.28046,-337.80206,1173.26819,347.27524,-265.50888,1241.15503
48,0.392,266.09705,-356.06897,1241.39404,321.98331,-338.09058,1171.50964,348.82663,-266.66531,1241.84534
49,0.4,267.77844,-356.58179,1240.05664,322.67178,-338.59369,1170.0863,349.84146,-268.03403,1241.59094
50,0.408,268.43866,-358.11273,1239.53748,321.99554,-338.06851,1169.98889,350.09927,-269.88928,1242.43567
51,0.417,268.65372,-359.53748,1239.19202,321.61636,-338.83771,1169.54688,351.66476,-271.05969,1242.91638
52,0.425,268.79129,-360.54575,1239.62683,322.10153,-339.29413,1169.09119,351.95786,-271.19211,1242.77832
53,0.433,268.59067,-362.78256,1238.99792,321.80167,-339.64407,1169.29272,351.61111,-270.63641,1243.11609
54,0.442,268.68365,-362.75119,1239.30884,321.66391,-339.99271,1169.43835,351.52203,-270.8291,1243.96362
55,0.45,269.04584,-361.45038,1240.09265,322.34869,-340.05066,1169.52625,350.60403,-270.62772,1244.89758
56,0.458,268.30246,-361.97571,1240.03748,322.17065,-339.98862,1171.42639,348.65109,-268.74896,1243.49414
57,0.467,267.55356,-361.84494,1240.95886,321.93192,-340.26187,1173.43347,347.2756,-267.18024,1244.07922
58,0.475,266.52576,-360.57016,1242.27698,322.159,-339.68668,1174.45544,346.23376,-265.95081,1244.09814
59,0.483,265.47855,-358.92111,1243.21899,321.59528,-339.76498,1175.48096,345.75787,-265.16525,1244.20459
60,0.492,264.17615,-357.18707,1243.38501,322.09937,-340.41821,1175.84387,344.16489,-263.6748,1244.26416
61,0.5,262.9902,-355.41345,1243.4707,322.32724,-340.41989,1176.97485,341.48276,-262.02759,1244.7782
62,0.508,261.78778,-353.06686,1244.41028,321.67487,-340.25446,1177.18274,342.14929,-262.82181,1243.85901
63,0.517,261.72913,-352.73373,1243.71997,321.41925,-338.88794,1176.72644,341.60855,-262.38095,1243.13599
64,0.525,260.57861,-352.46341,1243.27026,320.82153,-338.09256,1175.72803,342.22418,-262.65778,1242.55896
65,0.533,260.57843,-352.72534,1242.48376,319.8512,-337.22214,1174.76587,341.91953,-262.19806,1240.89087
66,0.542,261.30997,-352.63873,1240.89966,319.82291,-336.01215,1174.09119,342.51144,-262.52554,1240.7146
67,0.55,261.64371,-353.70444,1240.56384,319.03665,-334.85449,1171.77039,343.05634,-261.59778,1239.92053
68,0.558,263.7648,-354.43918,1238.54248,318.72305,-335.30951,1170.08826,343.98212,-262.83923,1238.94446
69,0.567,263.6398,-354.8187,1238.14111,318.90347,-335.10895,1167.94373,344.50317,-263.74789,1237.93701
70,0.575,266.0293,-355.77258,1236.92737,318.46179,-334.76282,1167.03711,345.14496,-264.9884,1237.7345
71,0.583,266.28522,-356.33298,1236.2804,318.60611,-334.48605,1165.95508,345.62177,-265.42468,1237.09485
72,0.592,266.43527,-356.57175,1235.83948,318.54456,-335.3154,1165.07495,348.40692,-267.06226,1237.16797
73,0.6,266.69641,-356.66846,1235.40747,319.36075,-336.18536,1165.04175,347.95908,-267.37531,1237.58643
74,0.608,266.86148,-357.47607,1235.39209,319.9834,-336.42773,1164.14795,348.17938,-267.69904,1237.29199
75,0.617,266.77832,-357.50189,1235.56506,319.55139,-337.94208,1165.67297,348.91989,-268.90305,1237.29834
76,0.625,266.61292,-359.49786,1236.58496,319.6608,-338.81558,1165.93225,349.93488,-270.41916,1237.9718
77,0.633,265.74585,-359.5733,1236.55444,319.85526,-339.62949,1166.78906,350.17636,-271.24832,1239.23962
78,0.642,265.33011,-359.64493,1237.099,319.58823,-340.68973,1167.96021,349.16782,-270.94812,1239.953
79,0.65,265.25952,-359.84192,1237.92261,320.64005,-341.13287,1168.81445,348.83694,-271.0831,1241.0354
80,0.658,264.44464,-360.19867,1238.40784,319.7937,-340.35965,1169.81177,347.63635,-270.84201,1242.41992
81,0.667,263.40082,-360.39899,1239.38806,319.59702,-341.56601,1172.11194,346.2504,-269.93335,1243.42041
82,0.675,262.15918,-360.7709,1239.65125,319.52988,-341.37323,1173.54077,345.80273,-269.67398,1243.79822
83,0.683,261.76544,-360.43265,1240.26807,319.20563,-341.55872,1174.55139,344.76929,-270.08258,1245.34473
84,0.692,260.86685,-358.75443,1241.43091,319.92126,-341.05664,1175.40747,344.31931,-269.30176,1245.54871
85,0.7,260.0632,-357.76477,1242.12085,319.61343,-341.30014,1175.89087,343.83643,-267.74933,1245.38904
86,0.708,258.92264,-357.22226,1242.08936,318.57803,-340.41351,1176.46741,343.09021,-266.75894,1245.75635
87,0.717,258.85553,-356.96851,1242.49792,318.73758,-339.21851,1175.97607,343.29593,-266.97345,1245.87463
88,0.725,258.99353,-356.54819,1242.51685,319.07999,-338.7197,1175.27454,342.64874,-266.97263,1245.90442
89,0.733,259.29666,-356.14069,1242.21399,316.92822,-337.00388,1175.37659,340.68936,-266.54114,1247.19641
90,0.742,259.75003,-356.05658,1241.9491,316.71988,-336.95456,1175.06519,340.28391,-265.64203,1246.07813
91,0.75,259.95563,-355.75208,1241.17578,315.82999,-335.85635,1173.2356,340.36539,-265.31009,1245.5575
92,0.758,259.97766,-355.86108,1240.63208,315.15308,-334.72021,1172.11487,339.94797,-264.64572,1244.43494
93,0.767,260.79535,-356.26605,1240.41296,315.10361,-333.54868,1171.15112,340.20169,-264.00571,1243.2467
94,0.775,261.52277,-356.8363,1239.81335,314.34024,-332.39221,1170.61987,340.25244,-263.78043,1243.03894
95,0.783,262.06921,-356.95651,1239.19397,314.52618,-332.05795,1168.83362,340.34491,-262.75711,1242.03479
96,0.792,262.28281,-356.81424,1238.78894,315.10922,-332.29446,1167.80457,340.55786,-262.84787,1241.20984
97,0.8,262.5372,-356.92026,1238.27661,315.41632,-332.4472,1167.46558,340.11383,-262.42279,1240.65125
98,0.808,262.44858,-356.69489,1238.08789,315.86313,-333.37589,1167.51697,340.22897,-262.12009,1240.60327
99,0.817,262.55533,-356.65259,1238.42676,315.99698,-333.96078,1168.86438,340.22897,-262.12009,1240.60327
100,0.825,262.55533,-356.65259,1238.42676,316.48672,-335.54449,1170.19995,340.42453,-262.42831,1240.63025
101,0.833,262.26593,-356.30386,1238.39441,317.20547,-336.93759,1170.59668,340.06638,-263.67685,1241.04126
102,0.842,261.97681,-356.42566,1238.896,317.14188,-337.90475,1171.52625,339.85358,-263.63354,1241.1864
103,0.85,260.81915,-356.49268,1239.41638,317.39267,-338.90167,1172.7782,340.40637,-264.98468,1241.4165
104,0.858,259.98398,-356.64987,1239.70984,317.0596,-338.56857,1174.21008,340.62784,-265.76437,1242.92053
105,0.867,259.21945,-356.72839,1239.25476,317.24442,-339.52173,1174.06433,341.95313,-267.05389,1244.65051
106,0.875,258.94235,-356.66986,1239.24976,317.3551,-339.93137,1174.5575,340.53983,-266.04938,1244.89807
107,0.883,258.35483,-357.94678,1240.29211,317.47046,-339.44052,1175.24707,341.31415,-268.46225,1246.46045
108,0.892,257.87421,-358.09677,1240.05933,317.53384,-339.38321,1175.04639,340.94461,-268.08734,1247.11792
109,0.9,258.0506,-358.25616,1240.24939,316.94757,-338.66605,1175.27637,340.06711,-268.09317,1247.9906
110,0.908,257.79199,-358.31323,1240.49402,316.70755,-338.22586,1174.89417,340.15909,-268.43527,1248.29248
111,0.917,258.0799,-357.76917,1241.01453,315.82172,-337.10779,1174.46082,341.07751,-267.7706,1248.11426
112,0.925,258.16119,-357.14621,1240.72595,315.56296,-336.60593,1173.95972,340.37454,-267.07553,1247.77771
113,0.933,257.73654,-356.87796,1240.47595,315.38391,-334.21204,1173.34583,339.7861,-266.25015,1247.36938
114,0.942,258.39609,-356.10272,1240.00159,314.51181,-333.23874,1172.45728,338.95093,-265.92804,1246.61414
115,0.95,258.82608,-355.60968,1239.50745,314.32816,-332.07794,1171.58582,338.84869,-265.55627,1246.68103
116,0.958,259.53113,-356.00906,1239.8103,313.20401,-331.47214,1171.14832,338.77969,-264.71832,1247.1106
117,0.967,259.57486,-356.02939,1239.68896,313.16769,-330.5166,1170.55518,337.85403,-263.80994,1245.91895
118,0.975,259.77982,-356.10794,1239.61182,313.29254,-329.80197,1169.59338,337.68903,-263.28973,1244.93066
119,0.983,259.9736,-355.97314,1239.29858,312.05157,-329.24368,1169.39209,337.06436,-262.13409,1244.28723
120,0.992,260.5506,-355.41531,1238.75293,311.90048,-329.00555,1169.09021,337.13947,-261.1149,1243.71204
121,1,260.78656,-355.65854,1238.66846,312.79715,-329.3605,1168.78271,336.18463,-260.23633,1242.73083
122,1.008,260.70663,-355.37311,1238.3866,313.26089,-329.83606,1169.2168,335.79956,-259.36966,1242.10986
123,1.017,260.74188,-355.23337,1238.49487,314.46719,-330.70084,1169.73718,335.14783,-258.20251,1242.0448
124,1.025,260.70554,-355.06454,1238.56714,314.51779,-331.80972,1170.72925,335.03333,-258.75748,1241.86328
125,1.033,260.74463,-354.06757,1238.84839,314.88834,-333.10596,1171.91931,334.9632,-258.64536,1241.8501
126,1.042,260.49585,-354.21942,1239.28406,315.34717,-335.19922,1173.30981,334.96652,-258.84531,1241.64929
127,1.05,259.81943,-354.23471,1239.81055,315.71783,-336.6683,1174.39709,335.56232,-259.53458,1241.91052
128,1.058,259.85239,-353.52905,1240.87073,316.07434,-336.94223,1175.19971,335.56232,-259.53458,1241.91052
129,1.067,257.86981,-354.7702,1240.97144,315.70508,-337.93835,1176.2262,335.68854,-260.91043,1242.60498
130,1.075,257.86981,-354.7702,1240.97144,316.27191,-338.35608,1176.30469,336.50244,-262.20627,1243.93176
131,1.083,257.49014,-355.9776,1240.92554,315.89966,-338.27914,1176.28845,337.28271,-262.83371,1245.45361
132,1.092,256.59567,-356.53903,1240.85168,316.18277,-338.58386,1176.05151,337.48328,-262.9711,1245.68469
133,1.1,256.44553,-356.67075,1240.453,315.45459,-337.75226,1175.81616,338.13205,-264.65994,1246.16296
134,1.108,256.76117,-356.84567,1240.11475,315.91785,-337.26678,1174.95032,338.04129,-265.4924,1246.12915
135,1.117,257.327,-357.08191,1239.89478,315.57681,-337.13974,1174.34338,338.73099,-265.50604,1246.33276
136,1.125,258.33881,-356.93634,1240.02954,314.92072,-336.11963,1173.02649,338.93466,-264.96518,1245.49854
137,1.133,259.11755,-356.61636,1239.62439,314.76895,-334.13934,1172.00061,338.7811,-263.89166,1244.64282
138,1.142,259.30142,-355.93256,1239.47278,314.51779,-331.80972,1170.72925,338.44653,-263.22632,1244.05286
139,1.15,259.24277,-356.12308,1239.1759,314.21561,-330.7915,1170.02209,337.99982,-262.9541,1243.58545
140,1.158,259.56036,-355.95752,1238.5658,313.19736,-329.83408,1169.0354,336.3797,-261.91409,1243.52319
141,1.167,259.86511,-355.27756,1237.39124,312.48627,-329.5946,1168.05322,336.10553,-259.67349,1242.18005
142,1.175,260.35703,-355.29269,1237.05713,311.85565,-329.23999,1167.49194,336.90918,-259.37384,1240.96582
143,1.183,260.2804,-355.16107,1236.59021,311.35107,-327.96304,1166.27979,335.64487,-258.40701,1241.00549
144,1.192,260.57407,-354.28491,1236.27356,311.68839,-327.55292,1165.48267,333.49509,-255.10223,1240.12183
145,1.2,260.89288,-352.9473,1235.91296,311.68839,-327.55292,1165.48267,333.11453,-254.0072,1239.24963
146,1.208,261.0361,-352.41711,1236.05591,312.24448,-326.93542,1166.10327,333.17783,-253.52565,1238.47803
147,1.217,261.21698,-351.87891,1236.19434,312.84329,-327.8912,1167.64954,333.33157,-252.80856,1237.44836
148,1.225,261.03421,-351.45575,1236.22302,313.49649,-328.99875,1168.04639,332.37872,-251.55963,1237.02222
149,1.233,261.04965,-351.14651,1236.82141,314.55099,-329.98883,1169.42737,331.69031,-251.87589,1237.38611
150,1.242,260.38504,-351.13452,1237.68201,315.46048,-331.2912,1170.82605,332.32764,-252.7179,1238.31201
151,1.25,260.56479,-350.91693,1238.37183,315.95432,-331.28436,1172.46228,333.04904,-253.45961,1238.8446
152,1.258,259.57092,-351.4469,1238.50281,316.72073,-333.45792,1173.91052,332.63004,-254.54724,1240.17847
153,1.267,259.26114,-351.61984,1238.75439,317.09094,-334.61389,1174.54724,332.76208,-255.18658,1240.55371
154,1.275,259.10284,-351.76932,1238.92712,316.48846,-335.05594,1175.36487,334.28183,-257.49994,1242.33667
155,1.283,258.2442,-352.73679,1239.48132,316.48846,-335.05594,1175.36487,334.78613,-258.61746,1242.44153
156,1.292,258.11383,-353.06079,1239.6958,316.7489,-335.17151,1174.98999,335.79724,-260.22873,1244.43677
157,1.3,258.09274,-353.4733,1239.70764,316.85394,-334.35193,1174.76074,336.8324,-261.8045,1245.53723
158,1.308,258.40662,-354.44318,1239.90417,316.60522,-333.29547,1173.96106,337.70963,-261.73492,1244.82471
159,1.317,259.36581,-355.47128,1239.47302,316.63721,-332.37619,1172.72058,338.88309,-262.4079,1244.99768
160,1.325,259.52686,-355.38632,1239.47656,316.06464,-331.08597,1171.42017,339.50757,-261.9971,1244.85352
161,1.333,260.32352,-355.32632,1239.44543,315.63895,-330.98978,1170.96826,339.43814,-262.30008,1245.30017
162,1.342,261.22641,-355.50537,1239.1283,314.82623,-329.8266,1169.96216,336.62155,-259.1554,1244.39697
163,1.35,261.39536,-355.07089,1238.88428,313.5824,-328.91556,1169.44629,336.57358,-258.94281,1244.15417
164,1.358,261.49182,-355.20038,1238.40662,313.23312,-327.98776,1168.86377,336.03424,-257.24948,1243.37158
165,1.367,261.78354,-354.81342,1238.10913,312.686,-327.53101,1168.30359,335.42331,-256.50827,1243.31812
166,1.375,262.4841,-354.36255,1238.12793,312.84476,-326.37183,1167.9314,333.80035,-254.06195,1242.52307
167,1.383,262.87991,-353.43829,1238.08716,313.26489,-322.89874,1167.52405,332.95291,-252.94646,1241.47461
168,1.392,262.98862,-351.97168,1238.07092,312.77917,-321.97739,1167.73401,331.55063,-250.93665,1241.91821
169,1.4,263.14087,-351.64127,1238.25024,313.42615,-322.23367,1168.07214,330.25974,-248.79465,1241.08801
170,1.408,262.17148,-350.5874,1238.00269,313.46503,-321.87448,1168.91724,328.74261,-247.64079,1240.48901
171,1.417,262.35706,-349.77576,1238.49268,313.81195,-324.37079,1170.51819,328.38715,-246.96768,1239.45361
172,1.425,262.26123,-349.76947,1238.68323,313.9317,-325.13419,1171.41284,326.19113,-245.93149,1238.57007
173,1.433,262.2934,-349.07703,1238.74634,314.62366,-326.02524,1172.14795,326.5571,-245.74504,1238.1908
174,1.442,262.06546,-348.68216,1238.9176,315.46802,-327.88046,1172.73523,327.67218,-244.87985,1237.72144
175,1.45,262.06546,-348.68216,1238.9176,315.48468,-328.98279,1174.28577,327.76086,-246.31889,1238.07739
176,1.458,262.53598,-349.16083,1239.08215,316.34866,-330.14804,1175.12402,328.54816,-247.7973,1238.68311
177,1.467,261.74799,-349.1976,1239.7583,316.74155,-330.48172,1175.14185,330.59604,-249.49352,1238.68298
178,1.475,261.68353,-349.6098,1239.64746,316.51566,-330.59091,1175.07788,332.64951,-251.66719,1239.3772
179,1.483,261.7652,-350.4895,1239.81848,316.98129,-331.15552,1174.57361,333.78461,-253.23486,1241.08862
180,1.492,261.49197,-350.90604,1239.75452,316.46487,-330.64377,1172.71057,335.32516,-254.15851,1240.55798
181,1.5,262.39716,-351.51727,1238.95068,316.56503,-330.10846,1171.83337,336.48923,-255.18401,1241.04395
182,1.508,263.11581,-352.50504,1238.35803,316.37643,-330.0791,1170.58716,337.26404,-256.30029,1241.76196
183,1.517,263.85284,-354.07318,1238.31152,317.01807,-328.97638,1169.00452,337.64532,-257.75546,1242.01563
184,1.525,264.38046,-354.10849,1238.30908,316.5372,-327.3671,1167.87622,338.22845,-256.78793,1241.11121
185,1.533,265.38751,-354.2977,1237.87146,315.7785,-325.77103,1167.60278,337.99307,-256.12598,1240.77734
186,1.542,265.6424,-353.94766,1237.96765,314.97058,-325.49243,1166.9115,337.56146,-254.62241,1240.52515
187,1.55,265.80466,-353.66995,1237.97107,314.12732,-322.18915,1166.23499,336.28006,-253.60216,1240.09241
188,1.558,265.80466,-353.66995,1237.97107,313.39474,-322.00726,1166.25439,334.13583,-252.87619,1240.56787
189,1.567,264.91995,-353.02014,1237.96301,313.55762,-321.8588,1166.37,332.70581,-251.45514,1241.65637
190,1.575,264.5661,-352.02338,1238.6178,313.52066,-321.76559,1167.62109,331.02576,-249.44661,1241.13525
