Frame#,Time,L.Forearm.x,L.Forearm.y,L.Forearm.z,L.Ulna.x,L.Ulna.y,L.Ulna.z,L.Radius.x,L.Radius.y,L.Radius.z
1,0,426.67868,287.63318,712.94312,437.1109,319.01404,643.2486,477.9433,236.19377,669.99475
2,0.008,426.53851,287.63831,713.15741,437.04523,319.35553,642.97552,477.9433,236.19377,669.99475
3,0.017,426.53851,287.63831,713.15741,437.34201,319.43872,642.87817,477.9433,236.19377,669.99475
4,0.025,426.53851,287.63831,713.15741,437.44522,319.16415,643.16321,478.10663,237.50711,669.75067
5,0.033,426.53851,287.63831,713.15741,437.34201,319.43872,642.87817,478.10663,237.50711,669.75067
6,0.042,426.53851,287.63831,713.15741,436.05289,319.50882,643.03229,478.10663,237.50711,669.75067
7,0.05,426.50262,287.59824,713.50287,436.34967,319.59229,642.93506,477.9433,236.19377,669.99475
8,0.058,426.28552,287.64136,713.25116,436.01221,319.04861,643.23285,477.9433,236.19377,669.99475
9,0.067,426.28552,287.64136,713.25116,436.05289,319.50882,643.03229,477.9433,236.19377,669.99475
10,0.075,426.28552,287.64136,713.25116,436.05289,319.50882,643.03229,477.9433,236.19377,669.99475
11,0.083,426.50262,287.59824,713.50287,436.05289,319.50882,643.03229,478.10663,237.50711,669.75067
12,0.092,426.50262,287.59824,713.50287,436.05289,319.50882,643.03229,478.10663,237.50711,669.75067
13,0.1,426.50262,287.59824,713.50287,437.04523,319.35553,642.97552,477.9433,236.19377,669.99475
14,0.108,426.50262,287.59824,713.50287,436.05289,319.50882,643.03229,477.9433,236.19377,669.99475
15,0.117,426.50262,287.59824,713.50287,436.05289,319.50882,643.03229,477.9433,236.19377,669.99475
16,0.125,426.50262,287.59824,713.50287,436.34967,319.59229,642.93506,477.9433,236.19377,669.99475
17,0.133,426.50262,287.59824,713.50287,437.1109,319.01404,643.2486,477.9433,236.19377,669.99475
18,0.142,426.50262,287.59824,713.50287,437.1109,319.01404,643.2486,477.9433,236.19377,669.99475
19,0.15,426.50262,287.59824,713.50287,437.04523,319.35553,642.97552,478.10663,237.50711,669.75067
20,0.158,426.50262,287.59824,713.50287,437.44522,319.16415,643.16321,477.9433,236.19377,669.99475
21,0.167,426.50262,287.59824,713.50287,437.1109,319.01404,643.2486,477.9433,236.19377,669.99475
22,0.175,426.50262,287.59824,713.50287,437.44522,319.16415,643.16321,477.9433,236.19377,669.99475
23,0.183,426.50262,287.59824,713.50287,437.44522,319.16415,643.16321,477.9433,236.19377,669.99475
24,0.192,426.60083,286.97476,713.85266,437.1109,319.01404,643.2486,477.9433,236.19377,669.99475
25,0.2,426.60083,286.97476,713.85266,437.44522,319.16415,643.16321,478.10663,237.50711,669.75067
26,0.208,426.35501,287.60245,713.72906,437.44522,319.16415,643.16321,477.9433,236.19377,669.99475
27,0.217,426.60083,286.97476,713.85266,437.44522,319.16415,643.16321,477.9433,236.19377,669.99475
28,0.225,426.60083,286.97476,713.85266,437.44522,319.16415,643.16321,477.9433,236.19377,669.99475
29,0.233,426.60083,286.97476,713.85266,437.44522,319.16415,643.16321,478.02444,236.23193,670.17108
30,0.242,426.60083,286.97476,713.85266,437.1109,319.01404,643.2486,478.02444,236.23193,670.17108
31,0.25,426.76587,287.16907,714.09637,437.44522,319.16415,643.16321,477.9433,236.19377,669.99475
32,0.258,426.76587,287.16907,714.09637,437.44522,319.16415,643.16321,477.9433,236.19377,669.99475
33,0.267,426.83524,286.92267,714.224,437.44522,319.16415,643.16321,477.9433,236.19377,669.99475
34,0.275,427.00021,287.11694,714.46759,437.44522,319.16415,643.16321,477.9433,236.19377,669.99475
35,0.283,427.00021,287.11694,714.46759,437.44522,319.16415,643.16321,478.02444,236.23193,670.17108
36,0.292,427.00021,287.11694,714.46759,437.44522,319.16415,643.16321,478.02444,236.23193,670.17108
37,0.3,427.00021,287.11694,714.46759,437.44522,319.16415,643.16321,477.9433,236.19377,669.99475
38,0.308,427.00021,287.11694,714.46759,437.76773,319.02988,643.3028,477.9433,236.19377,669.99475
39,0.317,427.13055,287.12201,714.12189,438.25644,318.94757,643.41864,478.10663,237.50711,669.75067
40,0.325,427.13055,287.12201,714.12189,438.45844,318.64313,643.85071,477.9433,236.19377,669.99475
41,0.333,427.00021,287.11694,714.46759,437.44522,319.16415,643.16321,477.9433,236.19377,669.99475
42,0.342,427.13055,287.12201,714.12189,438.25644,318.94757,643.41864,477.9433,236.19377,669.99475
43,0.35,427.00021,287.11694,714.46759,438.45844,318.64313,643.85071,477.9433,236.19377,669.99475
44,0.358,427.00021,287.11694,714.46759,438.45844,318.64313,643.85071,478.02444,236.23193,670.17108
45,0.367,427.00021,287.11694,714.46759,438.45844,318.64313,643.85071,477.9433,236.19377,669.99475
46,0.375,427.00021,287.11694,714.46759,438.45844,318.64313,643.85071,477.9433,236.19377,669.99475
47,0.383,427.08118,287.42886,714.65039,438.45844,318.64313,643.85071,477.9433,236.19377,669.99475
48,0.392,427.00021,287.11694,714.46759,438.45844,318.64313,643.85071,478.35895,236.21147,670.46289
49,0.4,427.00021,287.11694,714.46759,438.45844,318.64313,643.85071,478.39099,235.5618,670.43805
50,0.408,427.35025,287.40692,714.68579,438.45844,318.64313,643.85071,478.02444,236.23193,670.17108
51,0.417,427.08118,287.42886,714.65039,438.45844,318.64313,643.85071,478.02444,236.23193,670.17108
52,0.425,427.34335,287.259,714.80658,438.45844,318.64313,643.85071,477.9433,236.19377,669.99475
53,0.433,427.34335,287.259,714.80658,438.45844,318.64313,643.85071,477.9433,236.19377,669.99475
54,0.442,427.35025,287.40692,714.68579,438.45844,318.64313,643.85071,478.22314,235.82599,670.29248
55,0.45,427.26935,287.09503,714.50299,438.45844,318.64313,643.85071,478.39099,235.5618,670.43805
56,0.458,427.26242,286.94711,714.62384,438.25644,318.94757,643.41864,478.48825,235.61058,670.55072
57,0.467,427.26935,287.09503,714.50299,438.45844,318.64313,643.85071,478.48825,235.61058,670.55072
58,0.475,427.26242,286.94711,714.62384,438.45844,318.64313,643.85071,478.44278,236.51711,670.46741
59,0.483,427.39972,287.10007,714.15723,438.45844,318.64313,643.85071,478.22314,235.82599,670.29248
60,0.492,427.26242,286.94711,714.62384,438.45844,318.64313,643.85071,478.02444,236.23193,670.17108
61,0.5,427.00021,287.11694,714.46759,438.45844,318.64313,643.85071,478.22314,235.82599,670.29248
62,0.508,427.00021,287.11694,714.46759,438.45844,318.64313,643.85071,478.48825,235.61058,670.55072
63,0.517,427.0195,286.95203,714.60406,438.45844,318.64313,643.85071,478.48825,235.61058,670.55072
64,0.525,427.0195,286.95203,714.60406,438.45844,318.64313,643.85071,478.22314,235.82599,670.29248
65,0.533,427.0195,286.95203,714.60406,438.45844,318.64313,643.85071,478.22314,235.82599,670.29248
66,0.542,427.26242,286.94711,714.62384,438.45844,318.64313,643.85071,478.22314,235.82599,670.29248
67,0.55,427.0195,286.95203,714.60406,438.45844,318.64313,643.85071,478.10355,235.76657,670.13422
68,0.558,427.10043,287.26398,714.78687,438.45844,318.64313,643.85071,478.22314,235.82599,670.29248
69,0.567,427.00021,287.11694,714.46759,438.45844,318.64313,643.85071,478.22314,235.82599,670.29248
70,0.575,427.26935,287.09503,714.50299,438.45844,318.64313,643.85071,478.22314,235.82599,670.29248
71,0.583,427.26242,286.94711,714.62384,438.45844,318.64313,643.85071,478.48825,235.61058,670.55072
72,0.592,427.26242,286.94711,714.62384,438.45844,318.64313,643.85071,478.44278,236.51711,670.46741
73,0.6,427.26242,286.94711,714.62384,438.45844,318.64313,643.85071,478.44278,236.51711,670.46741
74,0.608,427.26242,286.94711,714.62384,438.45844,318.64313,643.85071,478.22314,235.82599,670.29248
75,0.617,427.26242,286.94711,714.62384,438.45844,318.64313,643.85071,478.22314,235.82599,670.29248
76,0.625,427.26242,286.94711,714.62384,438.45844,318.64313,643.85071,478.22314,235.82599,670.29248
77,0.633,427.26242,286.94711,714.62384,438.45844,318.64313,643.85071,478.48825,235.61058,670.55072
78,0.642,427.26935,287.09503,714.50299,438.45844,318.64313,643.85071,478.48825,235.61058,670.55072
79,0.65,427.26935,287.09503,714.50299,438.45844,318.64313,643.85071,478.16617,236.81288,670.14685
80,0.658,427.26935,287.09503,714.50299,438.45844,318.64313,643.85071,478.16617,236.81288,670.14685
81,0.667,427.26935,287.09503,714.50299,438.45844,318.64313,643.85071,478.48825,235.61058,670.55072
82,0.675,427.26935,287.09503,714.50299,438.45844,318.64313,643.85071,478.22314,235.82599,670.29248
83,0.683,427.26935,287.09503,714.50299,438.45844,318.64313,643.85071,478.22314,235.82599,670.29248
84,0.692,427.26935,287.09503,714.50299,438.25644,318.94757,643.41864,478.22314,235.82599,670.29248
85,0.7,427.26935,287.09503,714.50299,438.45844,318.64313,643.85071,478.22314,235.82599,670.29248
86,0.708,427.26935,287.09503,714.50299,438.45844,318.64313,643.85071,478.22314,235.82599,670.29248
87,0.717,427.39972,287.10007,714.15723,438.45844,318.64313,643.85071,478.10355,235.76657,670.13422
88,0.725,427.26935,287.09503,714.50299,438.45844,318.64313,643.85071,478.22314,235.82599,670.29248
89,0.733,427.39972,287.10007,714.15723,438.25644,318.94757,643.41864,478.36649,235.90773,670.14221
90,0.742,427.39972,287.10007,714.15723,438.45844,318.64313,643.85071,478.22314,235.82599,670.29248
91,0.75,427.39972,287.10007,714.15723,438.45844,318.64313,643.85071,478.22314,235.82599,670.29248
92,0.758,427.39972,287.10007,714.15723,438.45844,318.64313,643.85071,477.9433,236.19377,669.99475
93,0.767,427.39972,287.10007,714.15723,438.25644,318.94757,643.41864,478.36649,235.90773,670.14221
94,0.775,427.39972,287.10007,714.15723,438.25644,318.94757,643.41864,478.24255,236.88483,669.92719
95,0.783,427.39972,287.10007,714.15723,438.25644,318.94757,643.41864,478.24255,236.88483,669.92719
96,0.792,427.39972,287.10007,714.15723,438.45844,318.64313,643.85071,478.10355,235.76657,670.13422
97,0.8,427.39972,287.10007,714.15723,438.25644,318.94757,643.41864,478.10355,235.76657,670.13422
98,0.808,427.39972,287.10007,714.15723,438.25644,318.94757,643.41864,477.9433,236.19377,669.99475
99,0.817,427.39972,287.10007,714.15723,438.25644,318.94757,643.41864,477.9433,236.19377,669.99475
100,0.825,427.39972,287.10007,714.15723,438.45844,318.64313,643.85071,477.9433,236.19377,669.99475
101,0.833,427.39972,287.10007,714.15723,438.45844,318.64313,643.85071,477.9433,236.19377,669.99475
102,0.842,427.23477,286.90579,713.91364,438.25644,318.94757,643.41864,477.9433,236.19377,669.99475
103,0.85,427.13055,287.12201,714.12189,437.98929,319.0986,643.27094,477.9433,236.19377,669.99475
104,0.858,427.39972,287.10007,714.15723,437.98929,319.0986,643.27094,478.10663,237.50711,669.75067
105,0.867,427.23477,286.90579,713.91364,437.98929,319.0986,643.27094,478.10663,237.50711,669.75067
106,0.875,427.23477,286.90579,713.91364,437.98929,319.0986,643.27094,478.10663,237.50711,669.75067
107,0.883,427.27072,286.94589,713.56824,437.98929,319.0986,643.27094,477.9433,236.19377,669.99475
108,0.892,427.27072,286.94589,713.56824,437.98929,319.0986,643.27094,478.18353,236.26242,669.65894
109,0.9,427.27072,286.94589,713.56824,437.98929,319.0986,643.27094,478.18353,236.26242,669.65894
110,0.908,427.05362,286.98877,713.31647,437.98929,319.0986,643.27094,478.18353,236.26242,669.65894
111,0.917,427.27072,286.94589,713.56824,437.98929,319.0986,643.27094,478.33661,237.61057,669.31769
112,0.925,427.41089,286.9408,713.354,437.98929,319.0986,643.27094,478.33661,237.61057,669.31769
113,0.933,427.34143,286.97968,712.87598,437.98929,319.0986,643.27094,478.33661,237.61057,669.31769
114,0.942,427.64969,286.9249,713.13409,437.98929,319.0986,643.27094,478.33661,237.61057,669.31769
115,0.95,427.34143,286.97968,712.87598,437.98929,319.0986,643.27094,478.18353,236.26242,669.65894
116,0.958,427.19379,286.98367,713.10217,437.98929,319.0986,643.27094,478.18353,236.26242,669.65894
117,0.967,426.92459,287.00555,713.06671,437.98929,319.0986,643.27094,478.18353,236.26242,669.65894
118,0.975,426.93201,287.00677,713.05481,437.98929,319.0986,643.27094,478.18353,236.26242,669.65894
119,0.983,427.1579,286.9436,713.44757,437.44522,319.16415,643.16321,478.33661,237.61057,669.31769
120,0.992,426.92459,287.00555,713.06671,437.98929,319.0986,643.27094,478.48248,238.2317,669.64032
121,1,426.53851,287.63831,713.15741,437.44522,319.16415,643.16321,478.33661,237.61057,669.31769
122,1.008,426.67868,287.63318,712.94312,437.34201,319.43872,642.87817,478.18353,236.26242,669.65894
123,1.017,426.53851,287.63831,713.15741,437.98929,319.0986,643.27094,478.18353,236.26242,669.65894
124,1.025,426.64282,287.59308,713.28857,437.44522,319.16415,643.16321,478.18353,236.26242,669.65894
125,1.033,426.64282,287.59308,713.28857,437.44522,319.16415,643.16321,478.18353,236.26242,669.65894
126,1.042,426.67868,287.63318,712.94312,437.34201,319.43872,642.87817,478.33661,237.61057,669.31769
127,1.05,426.67868,287.63318,712.94312,437.34201,319.43872,642.87817,478.48248,238.2317,669.64032
128,1.058,426.67868,287.63318,712.94312,437.34201,319.43872,642.87817,478.48248,238.2317,669.64032
129,1.067,426.67868,287.63318,712.94312,437.34201,319.43872,642.87817,478.33661,237.61057,669.31769
130,1.075,426.67868,287.63318,712.94312,437.34201,319.43872,642.87817,478.18353,236.26242,669.65894
131,1.083,426.67868,287.63318,712.94312,437.34201,319.43872,642.87817,478.18353,236.26242,669.65894
132,1.092,426.67868,287.63318,712.94312,437.34201,319.43872,642.87817,478.18353,236.26242,669.65894
133,1.1,426.67868,287.63318,712.94312,437.34201,319.43872,642.87817,478.33661,237.61057,669.31769
134,1.108,426.67868,287.63318,712.94312,437.34201,319.43872,642.87817,478.48248,238.2317,669.64032
135,1.117,426.67868,287.63318,712.94312,437.34201,319.43872,642.87817,478.33661,237.61057,669.31769
136,1.125,426.64282,287.59308,713.28857,437.34201,319.43872,642.87817,478.18353,236.26242,669.65894
137,1.133,426.67868,287.63318,712.94312,437.34201,319.43872,642.87817,478.18353,236.26242,669.65894
138,1.142,426.67868,287.63318,712.94312,437.34201,319.43872,642.87817,478.33661,237.61057,669.31769
139,1.15,426.67868,287.63318,712.94312,437.34201,319.43872,642.87817,478.33661,237.61057,669.31769
140,1.158,426.64282,287.59308,713.28857,437.34201,319.43872,642.87817,478.33661,237.61057,669.31769
141,1.167,426.67868,287.63318,712.94312,437.34201,319.43872,642.87817,478.18353,236.26242,669.65894
142,1.175,426.53851,287.63831,713.15741,437.34201,319.43872,642.87817,478.18353,236.26242,669.65894
143,1.183,426.64282,287.59308,713.28857,437.34201,319.43872,642.87817,478.33661,237.61057,669.31769
144,1.192,426.64282,287.59308,713.28857,437.34201,319.43872,642.87817,478.33661,237.61057,669.31769
145,1.2,426.67868,287.63318,712.94312,437.34201,319.43872,642.87817,478.33661,237.61057,669.31769
146,1.208,426.67868,287.63318,712.94312,437.34201,319.43872,642.87817,478.18353,236.26242,669.65894
147,1.217,426.67868,287.63318,712.94312,437.34201,319.43872,642.87817,478.18353,236.26242,669.65894
148,1.225,426.67868,287.63318,712.94312,437.34201,319.43872,642.87817,478.33661,237.61057,669.31769
149,1.233,426.67868,287.63318,712.94312,437.34201,319.43872,642.87817,478.18353,236.26242,669.65894
150,1.242,426.67868,287.63318,712.94312,437.34201,319.43872,642.87817,478.18353,236.26242,669.65894
151,1.25,426.67868,287.63318,712.94312,437.34201,319.43872,642.87817,478.18353,236.26242,669.65894
152,1.258,426.82623,287.62921,712.71698,437.34201,319.43872,642.87817,478.33661,237.61057,669.31769
153,1.267,426.82623,287.62921,712.71698,437.34201,319.43872,642.87817,478.33661,237.61057,669.31769
154,1.275,426.82623,287.62921,712.71698,437.34201,319.43872,642.87817,478.00662,237.63686,668.99481
155,1.283,426.59171,287.68246,712.34583,437.34201,319.43872,642.87817,477.86505,236.28755,669.41046
156,1.292,426.59171,287.68246,712.34583,437.34201,319.43872,642.87817,477.86505,236.28755,669.41046
157,1.3,426.59171,287.68246,712.34583,437.34201,319.43872,642.87817,477.86505,236.28755,669.41046
158,1.308,426.59171,287.68246,712.34583,437.34201,319.43872,642.87817,477.86505,236.28755,669.41046
159,1.317,426.46155,287.67624,712.69141,437.34201,319.43872,642.87817,478.00662,237.63686,668.99481
160,1.325,426.46155,287.67624,712.69141,437.34201,319.43872,642.87817,478.00662,237.63686,668.99481
161,1.333,426.59171,287.68246,712.34583,437.34201,319.43872,642.87817,478.00662,237.63686,668.99481
162,1.342,426.59171,287.68246,712.34583,437.34201,319.43872,642.87817,478.00662,237.63686,668.99481
163,1.35,426.59171,287.68246,712.34583,437.34201,319.43872,642.87817,478.00662,237.63686,668.99481
164,1.358,426.59171,287.68246,712.34583,437.34201,319.43872,642.87817,477.86505,236.28755,669.41046
165,1.367,426.59171,287.68246,712.34583,437.34201,319.43872,642.87817,477.86505,236.28755,669.41046
166,1.375,426.59171,287.68246,712.34583,437.34201,319.43872,642.87817,478.00662,237.63686,668.99481
167,1.383,426.59171,287.68246,712.34583,437.34201,319.43872,642.87817,478.00662,237.63686,668.99481
168,1.392,426.59171,287.68246,712.34583,437.34201,319.43872,642.87817,478.16425,238.25665,669.39209
169,1.4,426.59171,287.68246,712.34583,437.34201,319.43872,642.87817,478.00662,237.63686,668.99481
170,1.408,426.59171,287.68246,712.34583,437.34201,319.43872,642.87817,477.86505,236.28755,669.41046
171,1.417,426.59171,287.68246,712.34583,437.34201,319.43872,642.87817,477.86505,236.28755,669.41046
172,1.425,426.59171,287.68246,712.34583,437.34201,319.43872,642.87817,478.00662,237.63686,668.99481
173,1.433,426.59171,287.68246,712.34583,437.34201,319.43872,642.87817,478.00662,237.63686,668.99481
174,1.442,426.59171,287.68246,712.34583,437.34201,319.43872,642.87817,478.00662,237.63686,668.99481
175,1.45,426.59171,287.68246,712.34583,437.34201,319.43872,642.87817,478.00662,237.63686,668.99481
176,1.458,426.59171,287.68246,712.34583,437.34201,319.43872,642.87817,478.00662,237.63686,668.99481
177,1.467,426.59171,287.68246,712.34583,437.34201,319.43872,642.87817,478.00662,237.63686,668.99481
178,1.475,426.59171,287.68246,712.34583,436.34967,319.59229,642.93506,478.00662,237.63686,668.99481
179,1.483,426.59171,287.68246,712.34583,437.34201,319.43872,642.87817,478.00662,237.63686,668.99481
180,1.492,426.59171,287.68246,712.34583,437.34201,319.43872,642.87817,478.00662,237.63686,668.99481
181,1.5,426.46155,287.67624,712.69141,437.34201,319.43872,642.87817,478.00662,237.63686,668.99481
182,1.508,426.59171,287.68246,712.34583,436.34967,319.59229,642.93506,478.00662,237.63686,668.99481
183,1.517,426.59171,287.68246,712.34583,436.34967,319.59229,642.93506,478.00662,237.63686,668.99481
184,1.525,426.59171,287.68246,712.34583,436.34967,319.59229,642.93506,478.00662,237.63686,668.99481
185,1.533,426.59171,287.68246,712.34583,436.34967,319.59229,642.93506,478.00662,237.63686,668.99481
186,1.542,426.59171,287.68246,712.34583,436.34967,319.59229,642.93506,478.00662,237.63686,668.99481
187,1.55,426.59171,287.68246,712.34583,437.34201,319.43872,642.87817,478.16425,238.25665,669.39209
188,1.558,426.59171,287.68246,712.34583,437.34201,319.43872,642.87817,478.00662,237.63686,668.99481
189,1.567,426.59171,287.68246,712.34583,437.34201,319.43872,642.87817,477.86505,236.28755,669.41046
190,1.575,426.59171,287.68246,712.34583,436.34967,319.59229,642.93506,477.86505,236.28755,669.41046
191,1.583,426.59171,287.68246,712.34583,437.34201,319.43872,642.87817,478.00662,237.63686,668.99481
192,1.592,426.59171,287.68246,712.34583,436.34967,319.59229,642.93506,478.16425,238.25665,669.39209
193,1.6,426.59171,287.68246,712.34583,437.34201,319.43872,642.87817,478.16425,238.25665,669.39209
194,1.608,426.59171,287.68246,712.34583,436.34967,319.59229,642.93506,478.00662,237.63686,668.99481
195,1.617,426.59171,287.68246,712.34583,436.34967,319.59229,642.93506,478.00662,237.63686,668.99481
196,1.625,426.59171,287.68246,712.34583,436.34967,319.59229,642.93506,477.86505,236.28755,669.41046
197,1.633,426.59171,287.68246,712.34583,436.34967,319.59229,642.93506,477.86505,236.28755,669.41046
198,1.642,426.59171,287.68246,712.34583,436.34967,319.59229,642.93506,478.00662,237.63686,668.99481
199,1.65,426.59171,287.68246,712.34583,437.34201,319.43872,642.87817,478.00662,237.63686,668.99481
200,1.658,426.59171,287.68246,712.34583,436.34967,319.59229,642.93506,478.00662,237.63686,668.99481
201,1.667,426.59171,287.68246,712.34583,436.34967,319.59229,642.93506,478.16425,238.25665,669.39209
