Frame#,Time,L.Forearm.x,L.Forearm.y,L.Forearm.z,L.Ulna.x,L.Ulna.y,L.Ulna.z,L.Radius.x,L.Radius.y,L.Radius.z
1,0,-1157.54297,266.69168,1004.69275,-1195.64343,330.8634,951.51202,-1168.85535,255.16628,876.35114
2,0.008,-1157.54297,266.69168,1004.69275,-1195.98755,330.67264,951.91364,-1170.04541,254.43735,877.07617
3,0.017,-1156.19275,267.73059,1004.2915,-1195.13257,330.14215,952.04663,-1173.14233,254.26544,876.82916
4,0.025,-1155.44348,268.50687,1004.48529,-1195.71375,331.32056,953.48499,-1173.3645,254.40855,877.24884
5,0.033,-1155.44348,268.50687,1004.48529,-1196.04834,331.63947,954.11938,-1173.52673,253.84019,877.24133
6,0.042,-1150.66187,266.81619,1004.59778,-1196.04834,331.63947,954.11938,-1173.599,253.81239,877.35211
7,0.05,-1148.96912,268.12225,1005.43317,-1195.75159,331.88181,954.13129,-1173.927,254.85381,878.06689
8,0.058,-1148.96912,268.12225,1005.43317,-1195.2738,331.9325,954.34711,-1173.60645,254.90952,877.58801
9,0.067,-1147.95654,268.97885,1004.60565,-1194.63428,332.84549,954.39606,-1173.79211,255.56613,878.07648
10,0.075,-1146.11975,270.26184,1002.66138,-1192.93579,332.75037,954.7829,-1171.93945,257.05698,877.91809
11,0.083,-1145.71887,270.14896,1002.23334,-1192.37488,333.10794,954.89227,-1171.7467,257.2305,878.10193
12,0.092,-1145.71887,270.14896,1002.23334,-1190.11536,334.53525,954.67743,-1171.7467,257.2305,878.10193
13,0.1,-1136.69336,272.64133,1002.16364,-1187.61902,336.12866,954.15533,-1169.76001,259.92444,877.14514
14,0.108,-1136.29749,273.49744,1002.18658,-1185.83838,336.71951,953.39301,-1169.2395,260.29675,877.37775
15,0.117,-1135.8999,274.354,1002.20996,-1184.33777,337.42429,952.61566,-1166.802,260.09882,876.45441
16,0.125,-1131.26025,275.24619,1000.22156,-1182.20203,339.72406,951.8006,-1164.42993,260.5806,874.51959
17,0.133,-1126.83191,278.50357,996.86298,-1176.58435,339.68021,949.84497,-1160.56812,264.98737,872.44849
18,0.142,-1124.55579,280.82095,996.19507,-1174.82727,341.97537,948.44904,-1159.46887,263.5618,872.41144
19,0.15,-1121.87708,283.03793,994.60834,-1170.24023,344.17401,946.89197,-1155.99829,263.66312,871.42401
20,0.158,-1116.17676,282.91913,992.4762,-1165.84839,344.84656,943.98029,-1153.70557,265.71024,869.54346
21,0.167,-1113.45483,286.48416,990.81079,-1160.03613,346.55862,942.47528,-1148.74634,267.63403,865.5379
22,0.175,-1105.578,287.48709,988.12622,-1157.07813,348.53519,940.97296,-1145.07654,268.6456,864.38019
23,0.183,-1103.7677,289.10455,985.51703,-1151.01624,351.79526,938.3147,-1144.77698,269.08951,863.39075
24,0.192,-1095.99292,290.64838,983.5069,-1147.6698,353.69736,936.40442,-1137.37195,274.49194,861.57013
25,0.2,-1088.77747,292.80173,982.62811,-1140.52478,355.85797,935.60382,-1132.60767,275.96765,859.05383
26,0.208,-1085.19714,295.86938,981.32928,-1132.50293,357.83636,933.38855,-1125.73901,276.6355,858.67523
27,0.217,-1076.53455,296.81921,980.33569,-1124.93726,359.62961,931.76703,-1119.07349,279.84564,856.58783
28,0.225,-1068.80981,297.99957,978.72064,-1118.48059,362.09332,931.83997,-1112.74438,279.94302,856.302
29,0.233,-1063.87671,299.75818,978.77271,-1110.00696,364.14038,930.83594,-1106.1814,283.04697,855.64478
30,0.242,-1055.53699,302.41702,979.15283,-1101.59375,366.59961,930.50177,-1098.17078,284.96402,855.42706
31,0.25,-1046.62659,304.08624,978.70667,-1093.98706,369.04214,930.11432,-1090.11316,286.5188,855.50354
32,0.258,-1039.45251,305.39777,978.71875,-1085.62341,371.25797,929.93768,-1079.90698,289.1069,855.4809
33,0.267,-1029.78833,306.55737,978.93079,-1077.38428,373.9064,930.52625,-1070.97852,291.83511,855.94324
34,0.275,-1020.84375,311.32007,980.26276,-1066.01074,375.83719,931.28912,-1060.9259,295.02057,855.25269
35,0.283,-1012.55688,313.74249,982.24036,-1055.02588,377.42337,931.96997,-1050.24854,296.2673,856.60211
36,0.292,-1003.38593,316.95706,981.59747,-1045.62634,380.77914,931.46497,-1039.35352,298.71948,857.74847
37,0.3,-994.02496,317.4444,982.16711,-1035.82483,383.17212,931.98541,-1029.92334,300.66385,858.41711
38,0.308,-984.65771,319.86917,983.78497,-1026.91296,385.41928,932.36139,-1019.43585,303.06039,858.49713
39,0.317,-975.65845,321.77875,985.03253,-1016.24384,387.12885,933.38818,-1007.62683,305.33243,859.75275
40,0.325,-964.77429,325.45151,985.20776,-1004.51013,390.23785,933.05737,-995.7074,307.63992,858.41748
41,0.333,-956.9364,327.57288,985.63885,-993.9585,392.21399,933.3136,-984.37982,310.09442,859.20709
42,0.342,-944.52618,329.11911,986.63654,-981.87311,394.00522,933.76135,-971.48596,312.88995,859.25562
43,0.35,-936.43469,330.59555,988.71155,-971.71649,396.90671,934.06757,-959.48566,314.31958,861.62537
44,0.358,-925.63745,333.78738,988.48206,-958.6745,398.6665,933.37134,-947.40118,316.02823,862.18597
45,0.367,-916.867,335.25134,988.41046,-948.44061,401.50241,933.02435,-933.93036,318.94479,861.48468
46,0.375,-905.81018,335.81235,988.57104,-934.76563,402.17575,933.49536,-921.59485,320.51416,861.51459
47,0.383,-894.78528,337.97925,990.53143,-923.11462,404.48117,933.65308,-911.93323,321.73889,861.40802
48,0.392,-884.40961,339.59787,990.61902,-910.74298,406.6795,933.38678,-897.83783,323.9704,862.16229
49,0.4,-873.36963,342.25171,991.47986,-898.21301,409.05164,933.7605,-884.56982,325.15305,862.95093
50,0.408,-863.13849,341.8364,991.39722,-885.28314,410.40598,933.79749,-872.2511,327.10782,863.54041
51,0.417,-851.08295,344.69528,992.90961,-872.74292,414.21304,932.86426,-858.92096,327.51471,863.71326
52,0.425,-841.87512,345.26416,992.94952,-859.5105,413.9277,935.08856,-844.81567,329.96564,864.02618
53,0.433,-830.1781,348.5152,994.29663,-847.73456,416.93768,936.00092,-830.13293,331.95056,866.37878
54,0.442,-818.06854,349.92035,994.96198,-835.04138,416.92001,936.26117,-816.79688,333.69901,866.50983
55,0.45,-807.01605,350.07227,996.70563,-823.2038,416.74466,935.72333,-804.50452,334.30804,867.78522
56,0.458,-797.77972,350.83014,997.76227,-809.98883,419.28568,938.59387,-789.82379,335.68448,869.28296
57,0.467,-786.22217,350.83948,997.53735,-798.48529,420.20505,939.32501,-777.05219,336.32883,870.91302
58,0.475,-775.4118,353.16589,1000.78845,-786.54602,421.01398,939.44495,-764.17542,337.50958,871.62482
59,0.483,-764.57983,354.60715,1001.65533,-774.58923,423.741,941.11792,-750.8139,339.65247,874.08832
60,0.492,-754.48639,356.52829,1003.14185,-762.85693,424.40878,942.53442,-738.28345,339.87073,874.97394
61,0.5,-743.65527,358.72006,1005.66473,-752.1167,424.47943,943.18713,-724.39886,340.7262,877.2157
62,0.508,-732.69177,357.25671,1006.26202,-741.0481,425.021,945.05176,-712.12488,341.81326,879.57831
63,0.517,-723.30255,358.90573,1007.87354,-729.28174,427.00421,946.5083,-699.5603,342.92407,880.79773
64,0.525,-712.43707,359.53912,1010.32843,-720.07416,427.64096,948.12573,-687.0741,342.72766,884.07349
65,0.533,-703.28308,359.27271,1010.71027,-708.74176,428.2829,948.82672,-674.94513,344.30243,885.75879
66,0.542,-692.1405,359.04587,1011.92072,-698.18884,427.18478,949.35333,-662.90631,344.82092,887.87543
67,0.55,-682.2149,361.3107,1015.06543,-687.66174,427.56149,950.95563,-650.2887,345.05298,889.3252
68,0.558,-672.98108,359.99704,1016.60449,-678.53619,428.59686,952.47656,-638.12048,345.10944,891.01984
69,0.567,-665.17523,360.17932,1017.44849,-668.19165,427.42572,953.95679,-627.0528,345.49023,893.66888
70,0.575,-653.91345,359.47656,1019.55719,-658.46155,427.21484,955.19714,-614.99976,344.86234,895.31763
71,0.583,-643.94202,361.20633,1019.45789,-649.42126,427.6676,956.67877,-604.37396,344.6283,897.8363
72,0.592,-636.30292,359.81573,1020.97363,-639.30823,426.89236,957.98749,-592.99036,344.05807,899.21106
73,0.6,-627.14349,360.46381,1022.27057,-629.888,426.36197,958.41632,-583.01263,343.12836,901.4516
74,0.608,-617.70953,359.22073,1022.99805,-620.59924,424.89871,960.02374,-575.14679,342.39496,903.34155
75,0.617,-609.13965,356.29694,1024.17957,-611.11914,423.86334,961.31787,-564.36322,341.23666,904.2168
76,0.625,-602.19354,355.56012,1024.94409,-602.12378,423.34537,961.66748,-554.41626,340.2269,905.42175
77,0.633,-595.00354,354.80859,1026.78088,-593.40735,422.38776,962.25446,-548.27002,339.13376,906.66687
78,0.642,-586.33905,353.74719,1027.57166,-585.82806,421.009,963.89368,-537.79486,338.10291,908.10718
79,0.65,-578.49695,352.52393,1027.49255,-575.43805,419.28732,964.22565,-528.99719,336.65121,909.39117
80,0.658,-571.68628,350.18704,1027.53723,-568.13904,418.39792,965.30609,-521.29999,335.15186,909.53137
81,0.667,-563.04425,349.91956,1027.1405,-560.13147,416.56244,964.95673,-512.99939,332.77237,910.69177
82,0.675,-556.86713,346.73517,1028.30249,-552.39386,413.59366,965.23163,-506.0878,331.47028,910.85596
83,0.683,-549.59857,346.35181,1029.22131,-544.81891,413.65039,965.91119,-498.16632,329.67892,911.7301
84,0.692,-543.05151,341.23221,1029.81543,-536.76752,411.21341,966.22998,-492.21533,327.24963,911.46808
85,0.7,-536.33667,341.14172,1029.3656,-530.28528,409.17621,966.66748,-483.34961,326.53113,912.00952
86,0.708,-529.58203,338.18552,1028.76453,-522.70953,407.22302,966.48529,-478.67349,323.14709,911.80737
87,0.717,-524.38147,335.91891,1028.58044,-515.04944,404.61633,966.36218,-472.60916,320.24744,912.1936
88,0.725,-517.87042,332.4697,1027.83362,-510.3754,402.68112,966.6377,-464.0592,318.68085,911.45563
89,0.733,-511.55801,332.20407,1027.23621,-501.72485,398.97903,965.47021,-459.27634,316.68765,910.73615
90,0.742,-506.38708,329.95383,1026.02405,-496.70432,397.19162,965.15314,-453.43616,314.05914,909.888
91,0.75,-500.94116,327.62277,1026.08899,-491.45203,396.70865,964.2605,-450.12006,312.40948,909.98474
92,0.758,-495.72543,323.69653,1024.64539,-485.63049,392.35355,964.12128,-442.27057,310.05966,909.38922
93,0.767,-490.33701,320.50537,1024.06018,-480.10483,391.39441,963.28644,-437.84464,307.07623,907.68091
94,0.775,-484.93234,319.43387,1024.36914,-475.66687,387.81555,962.36469,-433.41193,304.10825,906.18848
95,0.783,-481.02545,317.28955,1021.92627,-470.87296,386.63922,962.17572,-429.75189,302.32828,906.17712
96,0.792,-476.20245,313.89978,1021.82965,-465.74673,382.85022,961.29822,-424.35843,298.89691,905.03693
97,0.8,-472.20044,310.672,1021.15021,-462.78894,379.70715,960.49304,-421.94885,297.10065,904.82489
98,0.808,-469.44955,308.08231,1020.31543,-459.27032,378.51599,959.5163,-418.84573,294.44232,902.75323
99,0.817,-465.00739,305.51764,1020.08185,-456.23947,377.02798,958.9787,-416.25757,292.09525,901.95972
100,0.825,-462.62827,302.94772,1018.16095,-452.80582,373.46317,957.88928,-413.52899,289.06403,900.9668
101,0.833,-458.99686,300.91803,1017.38531,-451.19656,371.97525,956.51892,-410.83899,286.54144,899.55188
102,0.842,-455.06177,297.70004,1015.87946,-449.27847,368.82867,954.98773,-410.435,284.15323,898.71954
103,0.85,-453.02664,297.04199,1014.7749,-447.72919,366.59705,954.55139,-408.78082,281.63513,896.54852
104,0.858,-450.02145,294.11865,1014.41705,-446.04565,363.2262,953.815,-407.08322,279.30887,896.20911
105,0.867,-447.40326,292.41971,1014.23425,-444.46313,361.3183,953.14697,-406.2627,277.27615,893.94501
106,0.875,-445.69843,290.93066,1013.71259,-443.4556,359.55008,952.46283,-405.6174,275.5491,893.10211
107,0.883,-443.60046,287.811,1013.37482,-442.91595,357.23032,951.09125,-404.75232,272.34659,892.34943
108,0.892,-442.78113,286.9682,1013.19196,-442.0993,355.12692,950.85028,-405.74561,270.63528,891.5603
109,0.9,-441.82645,283.85788,1013.06238,-443.27771,352.68417,951.00769,-405.44711,267.84805,890.34064
110,0.908,-440.07935,281.06305,1012.62097,-444.18307,350.62201,950.70508,-407.45099,266.64911,889.22803
111,0.917,-440.73972,279.22501,1012.21698,-443.83884,347.88568,950.78058,-407.42896,265.8132,889.16339
112,0.925,-439.99127,275.9917,1012.01709,-444.43112,346.47073,950.32916,-407.73532,262.98257,888.07385
113,0.933,-439.42181,275.74039,1011.68616,-446.33646,344.64865,950.37402,-411.75839,262.28268,886.92682
114,0.942,-440.08041,275.04224,1011.69171,-447.80447,342.62802,949.1012,-410.92722,260.25229,886.6402
115,0.95,-438.84091,273.70319,1010.86768,-448.7637,340.70023,948.60809,-410.84457,258.55383,886.50623
116,0.958,-440.33929,271.21399,1009.59564,-450.94699,338.71378,948.14624,-411.38547,257.61673,885.13873
117,0.967,-440.00797,269.39557,1010.20642,-452.02704,337.81775,948.20947,-416.90448,256.46753,884.22321
118,0.975,-440.29565,267.51544,1009.84454,-456.1951,336.4696,947.81812,-417.15619,255.81316,883.75983
119,0.983,-441.89975,266.48422,1008.36768,-457.50006,335.24557,948.0224,-418.36005,254.11636,882.76221
120,0.992,-442.3714,265.77292,1007.83044,-459.439,332.8436,947.48425,-423.16251,251.65541,882.49353
121,1,-444.58856,264.65817,1007.6806,-461.57693,331.59476,946.86017,-424.68481,251.34787,881.60333
122,1.008,-445.46487,262.33246,1007.36908,-465.841,329.9689,947.24347,-427.26172,250.35455,881.09845
123,1.017,-445.77341,260.61932,1007.27692,-465.59488,328.59402,947.51221,-430.4433,248.7747,880.99237
124,1.025,-445.77341,260.61932,1007.27692,-469.39786,326.6311,947.55225,-431.67053,248.53134,880.87799
125,1.033,-446.95923,259.16513,1007.35065,-471.40799,326.21179,948.35767,-436.21024,247.37512,880.81079
126,1.042,-448.5874,257.54333,1007.60663,-473.97922,325.22552,949.06427,-438.50601,245.71353,880.19568
127,1.05,-449.62006,256.38251,1007.23151,-476.96365,324.27097,949.26141,-443.4321,244.80809,880.32037
128,1.058,-449.82083,256.55334,1007.23889,-479.1398,322.77933,949.57159,-443.15302,244.33853,879.8111
129,1.067,-451.03632,256.66275,1007.52557,-480.41306,322.02744,950.20703,-448.76599,243.01503,880.75769
130,1.075,-452.12485,255.86537,1007.64349,-482.21741,321.92297,950.78253,-450.22427,243.43024,880.45544
131,1.083,-453.48251,255.55873,1007.9176,-484.26535,321.37927,951.56897,-453.74619,242.94278,880.63556
132,1.092,-453.89328,254.69492,1008.93781,-486.4263,319.96158,952.91003,-456.1835,241.58722,880.48547
133,1.1,-455.56653,253.46193,1008.76227,-487.89877,319.17841,954.18781,-460.0788,240.564,880.92786
134,1.108,-455.95325,253.18159,1009.16046,-490.47461,319.29391,955.26611,-462.18033,239.72733,881.17133
135,1.117,-456.65094,251.37402,1009.21973,-491.40738,318.22348,955.65833,-465.5824,240.4427,881.56897
136,1.125,-456.15469,250.56982,1008.89331,-491.9729,317.76193,955.34924,-467.13611,238.93867,881.77075
137,1.133,-456.46191,250.45036,1009.23938,-494.04553,316.62671,956.37781,-471.25851,238.79575,882.41748
138,1.142,-456.92947,250.02115,1009.40161,-495.33817,316.47968,957.61554,-472.4621,238.50946,882.87286
139,1.15,-457.23831,250.06142,1009.39832,-497.58762,316.28073,958.96564,-475.06491,237.85832,883.97992
140,1.158,-457.03171,250.1201,1010.02765,-497.76028,314.69528,959.31598,-477.92627,238.06058,883.28491
141,1.167,-457.11087,249.77725,1011.44391,-498.76944,315.43134,960.52637,-479.52194,237.4283,883.94965
142,1.175,-456.79034,249.72705,1011.45715,-499.01901,315.84558,961.05072,-480.53061,238.08287,884.62061
143,1.183,-456.79034,249.72705,1011.45715,-499.28903,315.62128,962.6687,-481.16656,238.93724,886.34637
144,1.192,-455.92004,249.92694,1011.85638,-498.70859,315.30676,963.27307,-482.15268,238.6804,887.36328
145,1.2,-456.42865,249.90309,1011.77527,-498.36978,315.01474,964.16406,-484.19571,239.20935,886.55804
146,1.208,-454.88968,250.93274,1012.15637,-498.33392,315.77554,964.61102,-483.79898,239.56746,886.78223
147,1.217,-452.36996,252.43947,1011.81726,-498.04791,315.99969,964.38501,-483.53662,239.66949,887.3053
148,1.225,-450.79227,252.05608,1011.93579,-496.73828,317.3147,965.09094,-483.74612,239.71387,887.75732
149,1.233,-449.22751,252.98076,1012.65363,-495.53491,317.58774,965.69897,-483.47885,240.52246,888.20538
150,1.242,-446.94064,252.86693,1012.28278,-494.20117,318.22421,966.078,-482.42899,241.95268,888.81342
151,1.25,-444.14999,254.1432,1011.84802,-492.19763,318.94647,966.17529,-481.00201,241.74976,889.03131
152,1.258,-441.5213,256.40222,1011.47589,-490.1514,319.68747,966.47668,-481.04895,241.80739,889.09943
153,1.267,-438.2655,256.40338,1011.55261,-486.99121,320.39642,965.93835,-478.67535,243.1825,888.96796
154,1.275,-436.12991,257.00092,1010.46442,-483.72549,322.12869,966.0824,-475.7699,244.68997,888.46643
155,1.283,-431.79144,258.32608,1009.95471,-479.97482,322.99387,965.55975,-474.17639,244.77869,888.85315
156,1.292,-427.83405,259.01495,1008.98895,-477.87668,323.47089,964.79523,-469.70413,247.00644,887.76941
157,1.3,-425.01379,262.04071,1008.45178,-472.15674,325.40149,963.07825,-469.45877,245.90672,887.7113
158,1.308,-419.74493,262.40146,1005.80902,-468.73257,326.54327,962.04248,-467.01089,248.31668,886.37177
159,1.317,-414.49454,263.46021,1004.41132,-463.86288,328.51477,961.26721,-461.27905,248.60072,884.5462
160,1.325,-410.57202,265.96304,1003.35724,-458.67538,330.28073,959.0647,-457.37906,249.3804,883.36426
161,1.333,-405.33301,266.19736,1001.74426,-453.06979,331.65781,958.00732,-451.36533,252.33299,882.21149
162,1.342,-399.49905,270.00604,1000.64764,-447.15076,333.47818,956.23242,-446.75146,253.11343,880.99268
163,1.35,-393.09171,271.19324,998.50189,-441.13083,335.93414,953.13849,-440.63977,254.58542,879.42816
164,1.358,-386.73392,272.88779,995.65118,-434.427,337.85477,951.84406,-434.58511,257.89975,877.72052
165,1.367,-380.31433,274.1665,994.46893,-427.66742,340.17606,949.58868,-428.2735,257.69275,875.06842
166,1.375,-370.91516,276.79196,992.29559,-419.35516,341.86621,947.92126,-421.81442,260.59518,873.36688
167,1.383,-364.47781,278.07904,991.73456,-411.5654,343.38354,946.46228,-414.89429,261.70889,871.40594
168,1.392,-356.15463,280.19479,989.40033,-403.53397,346.23227,944.63599,-404.70609,265.26675,870.02142
169,1.4,-346.74258,282.5242,987.97083,-393.42776,347.7587,943.29242,-397.3158,266.21912,868.97028
170,1.408,-336.91916,283.92886,987.24072,-384.30997,350.03702,942.28076,-387.14529,268.8302,867.31702
171,1.417,-330.15628,284.8866,986.43597,-375.65707,351.94803,941.03528,-381.2533,269.77362,866.46283
172,1.425,-319.58627,287.57764,986.45978,-365.01044,354.36557,940.58362,-369.35654,272.93546,865.82916
173,1.433,-308.19476,290.58478,985.96826,-354.6655,356.75241,940.04913,-357.94485,275.96936,865.79291
174,1.442,-298.50162,293.16165,985.43097,-343.83472,358.83078,939.01685,-346.12732,277.25797,864.7973
175,1.45,-286.9494,294.62292,985.19977,-333.28564,361.20297,938.83948,-333.14157,281.03552,863.94788
176,1.458,-276.65753,297.82834,984.85181,-322.40546,363.68729,938.59766,-323.97461,281.77841,863.13373
177,1.467,-266.87668,299.23529,984.54541,-310.61948,365.64066,937.67719,-306.71988,284.63254,862.81934
178,1.475,-256.97675,301.81183,984.77747,-300.16696,368.10495,937.78479,-296.85345,285.48828,862.27185
179,1.483,-244.91957,302.51385,985.40295,-287.13873,369.22198,936.52673,-285.19644,288.77615,860.98029
180,1.492,-233.38889,303.48633,985.73096,-274.83212,371.17923,936.33527,-269.24084,290.8508,861.97742
181,1.5,-222.20255,306.46564,986.0155,-262.20135,374.03455,935.42535,-257.75098,292.12262,861.17963
182,1.508,-211.31346,308.74667,985.20966,-249.63351,375.81543,934.98584,-246.23422,294.09882,860.48309
183,1.517,-200.27324,310.84756,986.14685,-237.12675,378.77725,934.5415,-232.5564,296.67419,860.30646
184,1.525,-188.48125,310.07431,986.47516,-222.8429,379.69049,933.42749,-216.62595,297.18552,860.42395
185,1.533,-175.77516,311.94949,987.09082,-210.10138,381.20013,933.27588,-204.1337,299.7066,858.85907
186,1.542,-164.67609,314.62213,986.59601,-195.69385,383.31613,933.17944,-190.5959,301.04163,859.19983
187,1.55,-152.98013,314.74863,986.95209,-182.15144,383.58096,932.49219,-175.53113,302.45694,859.57782
188,1.558,-139.87614,316.15277,988.25085,-167.76691,385.23947,932.6651,-161.26093,304.36938,859.11798
189,1.567,-128.52625,317.38785,988.58984,-154.61159,387.40717,932.39661,-144.71529,305.57071,859.42688
190,1.575,-115.08775,318.33371,987.41461,-140.85844,387.82828,933.63947,-129.67154,306.43393,860.38135
191,1.583,-104.80056,319.36423,989.31378,-127.01039,388.81027,933.78595,-115.18018,307.58936,860.67297
192,1.592,-91.38177,321.06549,991.8457,-113.21937,388.88928,934.83099,-100.41945,308.52893,862.13831
193,1.6,-80.22643,321.76309,992.89069,-101.06533,391.17947,935.60284,-85.36582,309.71515,863.53796
194,1.608,-67.46365,322.25797,994.44135,-86.98976,392.47516,936.28943,-67.75713,310.3335,865.31055
