Frame#,Time,R.Forearm.x,R.Forearm.y,R.Forearm.z,R.Ulna.x,R.Ulna.y,R.Ulna.z,R.Radius.x,R.Radius.y,R.Radius.z
1,0,-1043.2876,-270.35181,1047.78247,-1047.3595,-341.83209,972.94183,-1006.54877,-262.58868,906.63208
2,0.008,-1036.05725,-271.48376,1049.41321,-1038.92151,-340.39664,974.21826,-999.42908,-261.59595,908.8454
3,0.017,-1031.78076,-268.82639,1050.01489,-1031.90649,-339.33749,974.72491,-990.78131,-259.75439,911.33582
4,0.025,-1024.5741,-267.84738,1050.61316,-1023.63666,-337.1572,976.29395,-981.87268,-257.6734,912.14331
5,0.033,-1018.39508,-267.23126,1050.19409,-1015.06598,-337.87405,977.4549,-974.86951,-256.53531,913.23511
6,0.042,-1012.76587,-264.55664,1051.24744,-1008.008,-335.51376,978.72388,-966.21796,-255.38116,915.98358
7,0.05,-1007.08411,-263.96082,1051.68726,-1001.38599,-333.93884,979.48712,-959.73444,-255.7552,916.74048
8,0.058,-1002.28455,-262.40985,1052.98572,-994.60028,-332.98315,979.41156,-951.82568,-254.11406,917.75903
9,0.067,-994.25171,-260.83533,1054.1554,-987.95642,-331.66815,980.34521,-944.77576,-252.93248,918.74316
10,0.075,-989.00073,-261.034,1053.82593,-981.96875,-331.4299,981.21704,-940.77185,-251.06097,920.52832
11,0.083,-982.4928,-260.78207,1053.63367,-975.82367,-329.5062,981.75769,-932.99268,-250.22063,921.63617
12,0.092,-978.74744,-258.78177,1053.66248,-970.46094,-328.69116,982.04004,-926.53723,-249.64944,920.97113
13,0.1,-973.03625,-256.4899,1054.10193,-964.38031,-327.06436,981.76324,-919.43695,-246.16351,921.65289
14,0.108,-967.16138,-259.61707,1053.97412,-959.87292,-326.39285,982.25092,-914.88605,-245.51137,921.72369
15,0.117,-962.84631,-253.1729,1053.57361,-955.12396,-324.4476,982.37927,-909.03729,-243.13956,921.75018
16,0.125,-957.77161,-255.7058,1053.11438,-950.44043,-322.39444,982.60846,-907.54083,-241.51715,920.98016
17,0.133,-953.58087,-249.72179,1052.14954,-945.23846,-321.7749,981.02692,-899.43451,-240.7713,921.54462
18,0.142,-951.10266,-250.11913,1050.755,-941.30725,-319.26239,980.85504,-897.30695,-239.46492,921.33411
19,0.15,-947.60114,-247.65121,1050.5022,-938.01874,-318.05661,981.34558,-897.42389,-236.69243,918.37006
20,0.158,-942.91724,-245.75726,1051.68884,-934.63232,-315.78598,979.03583,-891.39282,-234.28685,917.2226
21,0.167,-940.77649,-240.681,1047.33716,-931.83282,-313.12772,979.46344,-890.51349,-234.99852,916.18463
22,0.175,-936.49915,-240.97017,1047.54419,-928.32788,-310.53333,979.17456,-887.79144,-231.75595,915.74506
23,0.183,-933.21954,-237.54176,1046.35181,-926.2749,-309.4335,978.51324,-884.74701,-230.91614,915.42279
24,0.192,-931.90723,-235.79962,1046.3103,-924.52338,-308.1228,978.04901,-882.0426,-229.56668,914.30371
25,0.2,-930.95367,-233.63237,1045.7052,-922.07697,-305.53558,976.56104,-880.73407,-227.99077,913.50055
26,0.208,-925.78015,-229.96828,1045.13257,-921.46423,-304.5123,976.03015,-878.95166,-225.67604,910.55975
27,0.217,-922.30762,-228.86537,1044.44666,-920.70953,-301.64642,975.53137,-878.61584,-224.58868,910.20435
28,0.225,-920.83221,-225.93607,1044.55835,-920.3858,-299.15475,974.93921,-878.18024,-221.9747,909.66528
29,0.233,-919.3645,-224.65285,1045.29126,-920.25067,-297.54288,974.95941,-877.06049,-220.19766,909.25226
30,0.242,-918.38385,-222.73065,1044.40222,-919.61572,-295.58298,974.95105,-875.68878,-218.42751,909.43134
31,0.25,-916.28149,-219.32169,1044.70483,-919.02551,-293.12982,975.2348,-876.83203,-217.53342,909.25165
32,0.258,-915.44519,-218.30647,1045.02527,-919.14594,-291.4028,975.68109,-877.14789,-216.28914,908.55035
33,0.267,-913.65234,-215.64423,1045.35034,-919.77832,-290.13181,976.16541,-878.07928,-213.84776,908.5954
34,0.275,-908.4729,-216.03766,1046.91919,-920.16449,-286.55737,977.27979,-879.50507,-212.16597,908.64441
35,0.283,-907.89294,-213.582,1046.57056,-921.50171,-285.38712,978.58636,-879.81775,-210.9352,908.25665
36,0.292,-906.05908,-207.50502,1048.84741,-922.04376,-282.28915,979.46368,-878.35492,-209.26727,908.10773
37,0.3,-906.01361,-207.13365,1049.10901,-921.31512,-280.92957,980.04999,-880.41919,-207.22832,908.31805
38,0.308,-904.77087,-205.38506,1049.70825,-921.31647,-280.11847,980.24066,-882.66553,-204.72295,908.22083
39,0.317,-904.5014,-205.0811,1050.70081,-921.49188,-279.39328,980.58832,-883.55469,-204.48491,908.31458
40,0.325,-904.03015,-202.79961,1050.95117,-922.59961,-274.96054,981.79114,-883.60651,-203.58501,908.16437
41,0.333,-901.96686,-201.21547,1051.65979,-923.21051,-273.65317,982.36542,-885.40283,-202.45474,908.57587
42,0.342,-900.82806,-200.71729,1051.62219,-923.15717,-273.45566,982.49292,-887.81525,-199.86729,908.56329
43,0.35,-899.97388,-198.92192,1051.86157,-922.8006,-271.49158,982.83008,-889.08911,-199.47501,908.61072
44,0.358,-900.07172,-198.41132,1051.87573,-922.27222,-270.53839,983.13971,-887.79858,-198.00201,908.44
45,0.367,-899.38202,-196.81456,1052.32361,-921.56757,-269.27707,984.01776,-888.61151,-197.29584,908.67084
46,0.375,-899.94452,-194.362,1052.29028,-921.3363,-268.47247,984.44604,-890.47742,-196.69263,908.49103
47,0.383,-899.31177,-193.21254,1052.3147,-920.85004,-266.86554,985.53796,-893.03406,-194.61472,909.4856
48,0.392,-898.74524,-190.952,1052.2627,-920.62671,-265.32181,986.93353,-892.71094,-193.2507,909.37823
49,0.4,-896.95966,-191.15843,1051.83081,-920.82129,-264.17505,987.24365,-892.13391,-192.16431,909.16925
50,0.408,-895.50873,-191.4668,1052.34277,-920.55017,-262.54959,987.23242,-891.8421,-191.71841,909.11414
51,0.417,-894.35156,-187.66759,1053.79736,-920.47028,-261.67227,987.49829,-896.44965,-189.4325,909.75653
52,0.425,-894.35156,-187.66759,1053.79736,-921.44519,-260.48056,988.42511,-895.85187,-188.74982,909.9328
53,0.433,-894.66199,-186.12297,1053.65369,-922.02563,-259.40384,988.56824,-899.66547,-186.7269,910.12604
54,0.442,-897.83917,-185.09204,1052.60815,-920.99487,-258.65518,988.45923,-899.99774,-186.35208,910.03766
55,0.45,-895.75073,-183.98705,1052.7887,-923.47467,-258.05469,989.09912,-899.66138,-185.97377,910.14465
56,0.458,-895.75073,-183.98705,1052.7887,-921.73682,-257.06558,989.65985,-899.37555,-185.73639,910.01624
57,0.467,-895.75073,-183.98705,1052.7887,-922.48016,-256.60574,990.09039,-899.50525,-185.52782,910.27673
58,0.475,-890.9613,-182.19554,1052.51318,-923.96405,-255.37231,989.71021,-899.70276,-184.80804,910.01324
59,0.483,-890.9613,-182.19554,1052.51318,-927.07587,-254.52182,990.44318,-899.4043,-184.51282,909.94543
60,0.492,-891.81799,-179.72954,1052.78528,-927.48029,-253.93813,991.21899,-901.68036,-183.83076,910.50153
61,0.5,-890.08398,-179.55739,1054.0459,-928.79108,-251.3101,991.39478,-901.68036,-183.83076,910.50153
62,0.508,-890.08398,-179.55739,1054.0459,-928.33496,-250.66083,991.15283,-907.84027,-180.14499,910.49023
63,0.517,-888.3399,-178.73686,1054.7124,-926.65356,-250.1324,991.22003,-905.37317,-179.70267,910.04181
64,0.525,-888.3399,-178.73686,1054.7124,-926.11584,-249.7709,992.10779,-904.83258,-179.05447,910.45386
65,0.533,-888.3399,-178.73686,1054.7124,-923.42737,-249.06657,992.51105,-905.71777,-178.35344,910.16107
66,0.542,-884.547,-175.59642,1055.07874,-921.43121,-247.72813,992.33539,-902.20807,-177.12335,909.66925
67,0.55,-883.40112,-174.7943,1054.00696,-921.409,-247.62198,992.51367,-902.04675,-176.70193,909.92853
68,0.558,-881.65997,-173.97629,1054.67249,-920.92438,-247.386,992.57849,-899.61432,-176.97887,910.31177
69,0.567,-873.74103,-178.79369,1054.89526,-918.87897,-246.77122,992.14166,-898.18903,-176.94611,910.45221
70,0.575,-871.93036,-178.80931,1053.91479,-914.55182,-247.53662,992.3587,-897.13879,-176.56801,910.95654
71,0.583,-868.29431,-176.6608,1052.99902,-914.27063,-247.03905,992.44843,-896.39056,-176.39476,910.8125
72,0.592,-868.53662,-176.39478,1054.15698,-911.61627,-246.82356,993.27539,-894.4483,-176.06598,910.95215
73,0.6,-865.95966,-175.47665,1053.36816,-907.86145,-246.5546,992.31781,-891.44196,-176.69185,910.68213
74,0.608,-855.33575,-181.01431,1053.33557,-906.52081,-246.99011,993.35974,-887.88507,-176.39729,909.95251
75,0.617,-856.25824,-180.47932,1052.12793,-904.03979,-247.25615,990.88275,-884.32312,-177.96638,909.0191
76,0.625,-853.37903,-179.72888,1051.69019,-900.12793,-247.8306,990.0448,-880.16382,-178.32266,908.19836
77,0.633,-850.84766,-177.68423,1051.83826,-896.93756,-248.04311,989.50397,-879.70135,-178.43181,908.2998
78,0.642,-843.3241,-181.76404,1049.75244,-893.65826,-248.5452,989.73126,-878.48077,-178.47211,907.80896
79,0.65,-842.53375,-180.54446,1048.93518,-891.63965,-249.45908,989.13275,-873.99933,-178.26289,907.50983
80,0.658,-840.01257,-180.32764,1048.79541,-888.52435,-249.48901,988.79004,-872.10596,-177.94911,906.89972
81,0.667,-833.48102,-182.83626,1047.17737,-882.7088,-251.09412,986.77466,-867.4317,-178.29602,906.98456
82,0.675,-829.81177,-183.16248,1045.60144,-880.34851,-250.83202,986.51648,-863.49072,-179.7045,904.98962
83,0.683,-826.5412,-182.40137,1045.66724,-874.79156,-252.38489,985.70654,-859.65472,-181.15302,903.99188
84,0.692,-823.84863,-183.39082,1044.79736,-868.20984,-253.44763,984.1618,-855.3313,-182.02769,903.39722
85,0.7,-816.8158,-186.45648,1042.8064,-866.12128,-253.95781,983.43713,-851.82098,-182.37094,902.67468
86,0.708,-814.02631,-185.30295,1042.29773,-861.3634,-255.39575,981.26355,-846.67035,-183.0247,901.24371
87,0.717,-806.12762,-189.46536,1040.50403,-855.14728,-256.24991,978.17181,-841.94684,-184.81764,898.35822
88,0.725,-802.4104,-189.22827,1037.58948,-850.26624,-258.19333,978.08105,-839.18604,-185.47365,897.74146
89,0.733,-795.89368,-192.78172,1037.0376,-844.5647,-259.37384,975.67932,-831.91351,-187.05473,896.06232
90,0.742,-791.9729,-193.57925,1035.17639,-841.46039,-260.53543,973.94073,-829.43005,-186.75876,894.28149
91,0.75,-788.85663,-193.74135,1033.61987,-834.22461,-263.93671,973.41205,-819.89557,-190.8589,892.0343
92,0.758,-780.81525,-198.14771,1031.3844,-829.30426,-264.68866,971.69568,-817.91608,-192.29395,890.76709
93,0.767,-775.67041,-200.01213,1028.64661,-822.24933,-266.56473,968.13129,-812.41083,-193.29599,888.89063
94,0.775,-771.13159,-199.74356,1027.25537,-817.82111,-267.5462,966.30353,-805.38043,-196.02399,886.69031
95,0.783,-763.04095,-204.35252,1026.38184,-810.60004,-271.57953,965.47003,-800.89746,-196.29559,886.0014
96,0.792,-755.69385,-207.8141,1023.70123,-807.20319,-273.09091,963.73523,-792.70032,-199.1281,883.18994
97,0.8,-749.68695,-209.51268,1023.86407,-800.4278,-275.91364,962.23596,-786.67798,-202.19707,882.8009
98,0.808,-742.5354,-210.41296,1022.35425,-791.05762,-278.23572,960.77118,-779.28119,-205.08636,881.50958
99,0.817,-737.59143,-213.60785,1020.87189,-787.08862,-279.44516,960.7229,-772.35632,-206.72296,879.30249
100,0.825,-729.36945,-216.21913,1020.33105,-778.23566,-282.53467,959.86237,-764.24854,-208.88564,877.98816
101,0.833,-719.63983,-217.46814,1019.51123,-771.50653,-283.83453,959.45367,-757.88727,-211.30928,877.60931
102,0.842,-713.27606,-220.27446,1019.07446,-764.02368,-286.14743,958.28125,-752.2782,-212.9196,877.70795
103,0.85,-707.64661,-221.82213,1019.15643,-756.06641,-287.54099,957.42938,-742.92249,-214.98772,877.08197
104,0.858,-697.16461,-225.72018,1019.38739,-748.33472,-290.04663,957.99762,-732.16125,-218.78061,876.54993
105,0.867,-691.3056,-225.5327,1020.21448,-738.92432,-291.83691,957.7179,-725.7135,-219.97533,877.47791
106,0.875,-683.52423,-229.20735,1019.11609,-731.17236,-293.91608,957.65051,-718.87006,-221.24342,877.10052
107,0.883,-674.46729,-232.73744,1020.76019,-724.11139,-296.48615,958.22308,-709.83948,-224.38872,877.52301
108,0.892,-667.9353,-232.42984,1018.57471,-711.77948,-299.29031,956.19678,-700.59155,-227.07689,877.883
109,0.9,-659.24213,-235.16304,1019.25897,-704.55042,-300.55118,956.57739,-690.73761,-227.92047,877.55273
110,0.908,-648.58795,-237.94673,1020.87665,-695.12463,-303.77777,957.12915,-683.09412,-229.52399,877.97852
111,0.917,-643.39111,-236.26578,1021.09235,-685.20892,-305.53015,958.92346,-672.16095,-231.72028,878.34625
112,0.925,-630.54291,-241.29953,1019.93732,-674.19104,-308.91284,958.31531,-663.20557,-234.67532,878.43817
113,0.933,-618.87744,-243.30006,1021.29718,-662.76978,-311.54263,959.07623,-653.44531,-235.0004,878.78473
114,0.942,-609.90826,-247.31715,1022.21198,-654.59607,-313.37024,958.14221,-643.0033,-237.50871,879.17871
115,0.95,-602.62408,-246.26842,1023.37921,-642.26825,-315.1394,957.25726,-633.17468,-240.06456,878.80804
116,0.958,-593.6532,-250.1945,1022.70117,-631.9906,-318.70615,957.40228,-618.09961,-243.00943,879.09021
117,0.967,-579.75146,-251.65628,1022.89484,-620.50989,-320.83792,957.28223,-610.04889,-242.60875,879.54785
118,0.975,-571.17224,-255.73451,1024.82422,-611.11493,-322.42981,957.90045,-600.31854,-244.80008,879.65686
119,0.983,-562.97455,-254.68272,1024.875,-598.57178,-323.48425,958.47003,-586.9472,-246.93828,878.95203
120,0.992,-553.48218,-257.92261,1025.23486,-587.38611,-325.66632,957.59637,-574.0733,-249.52374,879.03979
121,1,-539.6192,-259.1008,1025.01697,-576.41595,-328.16809,957.29932,-563.93689,-250.44426,879.00781
122,1.008,-532.20026,-258.49524,1025.58447,-562.11487,-329.43127,957.09979,-551.46191,-251.81105,878.95703
123,1.017,-522.54602,-261.80798,1023.43243,-553.08972,-331.88089,957.46722,-537.9137,-254.0946,879.96625
124,1.025,-509.24725,-262.59265,1026.13269,-540.86353,-331.80997,957.86914,-527.08899,-255.08078,880.91864
125,1.033,-503.22391,-263.80786,1026.78125,-529.03253,-332.88928,957.61633,-514.91266,-255.9644,880.71918
126,1.042,-490.23349,-264.84909,1027.33093,-518.49512,-334.78613,957.76837,-504.47809,-256.5661,881.16998
127,1.05,-483.32404,-262.95502,1027.5426,-506.78406,-337.00821,959.1593,-490.1608,-257.22473,882.01807
128,1.058,-472.21909,-265.29953,1030.74561,-494.84491,-336.50436,957.86322,-477.60938,-258.38864,882.17047
129,1.067,-458.73645,-267.853,1030.05847,-481.80859,-338.27689,960.18384,-462.59613,-260.35739,884.33722
130,1.075,-443.36603,-271.21451,1029.55103,-471.34442,-339.65375,960.6106,-450.01401,-260.92514,885.0191
131,1.083,-442.14758,-268.94556,1030.73828,-460.52377,-339.97867,960.18817,-437.80255,-261.17624,886.08936
132,1.092,-429.96631,-270.97131,1033.78784,-448.22009,-340.11673,962.02173,-425.41522,-261.89923,888.50134
133,1.1,-419.48724,-269.7399,1034.71143,-436.55453,-341.41086,961.84338,-412.88992,-261.00671,888.90057
134,1.108,-412.85159,-271.90411,1036.04053,-425.55374,-341.07571,962.73724,-399.75067,-261.85629,890.36554
135,1.117,-399.00507,-274.42325,1038.66199,-413.94705,-341.96097,964.33698,-386.52173,-261.97598,893.43976
136,1.125,-388.60721,-273.23486,1037.24243,-403.60632,-342.90384,965.18866,-373.90604,-261.76151,894.57648
137,1.133,-380.23947,-274.65143,1039.95227,-391.40439,-343.07111,965.79187,-361.5394,-261.99561,895.86395
138,1.142,-372.50558,-273.47183,1040.91846,-379.4476,-342.42328,966.66486,-349.49469,-262.39786,898.5022
139,1.15,-360.86935,-274.4024,1040.86572,-368.41409,-342.74973,968.21655,-337.40674,-260.78729,900.22717
140,1.158,-352.97464,-271.86606,1043.42627,-358.23004,-341.69083,969.33606,-324.92285,-260.7851,901.77692
141,1.167,-342.27011,-274.89944,1045.27637,-346.57944,-341.96298,969.82965,-312.56012,-260.03433,903.49451
142,1.175,-335.10501,-272.65698,1044.20129,-336.57349,-340.95776,970.90283,-301.18396,-260.0278,904.82336
143,1.183,-323.92606,-272.33261,1045.36389,-325.88895,-341.05191,971.62476,-290.08206,-259.2081,907.14722
144,1.192,-315.70883,-271.13892,1046.07898,-315.07938,-340.64334,973.65051,-279.25262,-259.0657,908.4079
145,1.2,-304.94122,-271.76663,1047.70227,-305.1265,-339.69836,973.13446,-267.375,-257.78598,909.73572
146,1.208,-298.44962,-271.33719,1049.59717,-296.63959,-338.32913,973.70831,-256.97516,-257.09906,911.8371
147,1.217,-289.76035,-269.82773,1049.13354,-286.26404,-338.40283,975.64008,-245.1427,-256.15799,912.88831
148,1.225,-279.5274,-269.79208,1048.47815,-276.02847,-337.34882,977.02576,-236.8098,-254.56505,914.19928
149,1.233,-272.73456,-269.07248,1050.32227,-266.33273,-337.28174,976.80261,-225.4572,-254.94017,916.19366
150,1.242,-265.36008,-267.6687,1050.98425,-258.46939,-335.38681,977.54181,-218.83104,-254.41844,917.0658
151,1.25,-256.49878,-268.91147,1051.70032,-249.7059,-334.91943,977.81152,-208.44875,-253.47523,917.92999
152,1.258,-249.11151,-266.89032,1052.02539,-243.35712,-334.7327,978.7124,-199.44934,-252.57935,919.35632
153,1.267,-241.76324,-264.74762,1052.04968,-233.21538,-332.98865,979.97369,-190.19028,-251.23264,919.49261
154,1.275,-234.75896,-264.08786,1052.65894,-226.18228,-332.08328,979.4527,-181.99443,-250.45952,920.61072
155,1.283,-227.8947,-262.83652,1052.79431,-216.93791,-331.54929,980.00916,-174.84181,-249.50418,921.10107
156,1.292,-220.89641,-261.86639,1053.09009,-210.95065,-329.79184,981.00507,-166.85849,-248.68874,921.66394
157,1.3,-215.48341,-259.17722,1053.08044,-205.26192,-327.47842,981.51038,-159.09111,-247.12532,922.07343
158,1.308,-209.26553,-258.64346,1052.9718,-198.92169,-325.78967,981.76422,-152.29391,-246.16032,922.47357
159,1.317,-204.19572,-256.25488,1052.53333,-192.7635,-326.00076,982.12427,-145.12424,-244.70787,923.43127
160,1.325,-197.70525,-254.44237,1052.46606,-186.36536,-324.32434,981.64954,-139.45778,-243.58427,923.9165
161,1.333,-192.86334,-252.00594,1052.00012,-180.97227,-322.45273,981.89178,-132.98328,-241.8929,925.0437
162,1.342,-188.13391,-251.23186,1052.35754,-176.03157,-320.98691,982.27216,-128.20351,-241.72331,924.72412
163,1.35,-183.86311,-250.42229,1052.2356,-171.65677,-320.09232,982.38953,-125.07429,-240.18849,924.92157
164,1.358,-178.88715,-249.87213,1052.85181,-168.37321,-318.5668,982.67029,-119.36565,-238.77502,925.28223
165,1.367,-175.2072,-246.52226,1053.01013,-164.54877,-317.13312,983.62964,-114.69198,-237.46701,925.76233
166,1.375,-171.44522,-245.52618,1053.47046,-160.78763,-315.95737,983.85547,-111.29796,-236.83635,926.61865
167,1.383,-169.50842,-241.88315,1053.74255,-158.50095,-313.23984,984.2074,-107.82966,-235.99532,926.54852
168,1.392,-165.41818,-241.87241,1054.45313,-156.65816,-312.50912,984.86292,-106.0838,-233.88876,927.27686
169,1.4,-163.17528,-240.41026,1055.14819,-154.08986,-311.59,985.76483,-102.65159,-232.22733,927.43304
170,1.408,-160.56326,-238.00356,1056.34863,-152.46379,-310.022,986.55695,-100.97279,-231.77861,928.42114
171,1.417,-159.59193,-236.33461,1056.20288,-151.62027,-308.11926,987.48969,-100.1179,-229.72725,928.57269
172,1.425,-156.86401,-233.92143,1056.64966,-150.19659,-306.49191,988.25909,-99.53864,-229.08476,929.27606
173,1.433,-154.98479,-233.51552,1058.90845,-148.89795,-305.12112,988.63171,-98.76038,-227.96526,929.61047
174,1.442,-153.60861,-231.89394,1060.52258,-147.83401,-303.74023,989.3205,-96.43993,-227.59096,929.71875
175,1.45,-153.02219,-229.62048,1060.78076,-147.50278,-302.30731,989.86969,-96.92052,-225.62407,930.03528
176,1.458,-150.41803,-227.85332,1061.51282,-146.89711,-300.81381,989.92584,-97.66182,-224.11801,929.85138
177,1.467,-148.59045,-225.47835,1060.77539,-147.18138,-300.15668,990.35028,-97.8562,-223.29341,929.89398
178,1.475,-148.20821,-224.6517,1061.68066,-147.01076,-298.00891,990.91315,-97.73375,-222.32936,929.66632
179,1.483,-146.57018,-224.43028,1061.56018,-146.10828,-296.89948,990.80841,-98.67635,-221.4108,929.28772
180,1.492,-145.82196,-223.10701,1061.42725,-146.11455,-296.5629,990.77875,-98.04703,-220.95503,928.67908
181,1.5,-145.01439,-222.99522,1061.61804,-146.1823,-295.11026,990.39325,-98.63782,-219.6769,927.65381
182,1.508,-142.63069,-222.11031,1061.08008,-146.32826,-293.69516,990.2865,-98.66666,-217.61633,926.18091
183,1.517,-141.90645,-220.65215,1060.28186,-146.1306,-292.16321,989.76904,-101.0836,-217.01413,925.00012
184,1.525,-140.79829,-220.21385,1060.09924,-146.51947,-291.27951,989.78265,-102.48993,-215.34029,923.85516
185,1.533,-140.57979,-218.85266,1059.56274,-146.06931,-290.35043,990.02136,-102.81713,-215.1893,923.32208
186,1.542,-139.56224,-216.42613,1059.39392,-146.65279,-289.3461,989.98615,-103.41828,-214.847,921.61957
187,1.55,-139.53728,-214.44283,1059.37305,-147.17795,-288.66672,989.55066,-106.99454,-214.23212,919.93427
188,1.558,-138.55389,-214.15834,1059.02637,-146.68309,-286.62408,989.28705,-107.79068,-212.99423,918.89105
189,1.567,-137.67366,-213.84531,1058.23474,-146.64313,-286.00302,989.03522,-109.2085,-211.56667,917.52618
