Frame#,Time,L.Forearm.x,L.Forearm.y,L.Forearm.z,L.Ulna.x,L.Ulna.y,L.Ulna.z,L.Radius.x,L.Radius.y,L.Radius.z
1,0,329.43686,274.06598,1046.30933,303.13083,319.95477,988.48041,380.23474,298.91376,972.90173
2,0.008,329.64682,274.61823,1045.92688,303.27386,320.27942,988.6925,380.28137,298.61438,972.84607
3,0.017,329.81644,274.63647,1045.67712,303.27386,320.27942,988.6925,380.23474,298.91376,972.90173
4,0.025,329.36057,274.2981,1045.8894,303.27386,320.27942,988.6925,379.81467,299.44141,972.84442
5,0.033,329.38171,274.70087,1045.43359,303.27386,320.27942,988.6925,379.91284,299.76382,972.63257
6,0.042,329.38171,274.70087,1045.43359,303.55505,320.71738,988.64642,379.91284,299.76382,972.63257
7,0.05,329.38171,274.70087,1045.43359,303.27386,320.27942,988.6925,379.73398,299.88815,972.70911
8,0.058,329.2121,274.68262,1045.68335,303.55505,320.71738,988.64642,379.73398,299.88815,972.70911
9,0.067,329.38171,274.70087,1045.43359,303.55505,320.71738,988.64642,379.91284,299.76382,972.63257
10,0.075,329.38171,274.70087,1045.43359,303.55505,320.71738,988.64642,380.02057,300.09946,972.5791
11,0.083,329.68002,275.12201,1045.54028,303.55505,320.71738,988.64642,379.73398,299.88815,972.70911
12,0.092,329.68002,275.12201,1045.54028,303.55505,320.71738,988.64642,379.84171,300.22375,972.65564
13,0.1,329.72296,275.55902,1045.95142,303.55505,320.71738,988.64642,379.84171,300.22375,972.65564
14,0.108,329.72296,275.55902,1045.95142,303.55505,320.71738,988.64642,380.02057,300.09946,972.5791
15,0.117,329.84,275.44174,1045.69653,303.55505,320.71738,988.64642,379.84171,300.22375,972.65564
16,0.125,329.84,275.44174,1045.69653,303.55505,320.71738,988.64642,380.02057,300.09946,972.5791
17,0.133,329.72296,275.55902,1045.95142,303.55505,320.71738,988.64642,379.974,300.3988,972.63477
18,0.142,330.15744,275.49451,1046.19482,303.55505,320.71738,988.64642,379.84171,300.22375,972.65564
19,0.15,329.55334,275.54077,1046.20105,303.55505,320.71738,988.64642,379.84171,300.22375,972.65564
20,0.158,329.55334,275.54077,1046.20105,303.55505,320.71738,988.64642,379.974,300.3988,972.63477
21,0.167,329.55334,275.54077,1046.20105,303.55505,320.71738,988.64642,379.73398,299.88815,972.70911
22,0.175,329.55334,275.54077,1046.20105,303.55505,320.71738,988.64642,379.73398,299.88815,972.70911
23,0.183,329.55334,275.54077,1046.20105,303.55505,320.71738,988.64642,379.73398,299.88815,972.70911
24,0.192,328.76016,275.6741,1046.38062,303.24106,321.56375,988.75122,379.52332,299.94824,972.71539
25,0.2,328.76016,275.6741,1046.38062,303.24106,321.56375,988.75122,379.74213,299.87595,972.87439
26,0.208,328.76016,275.6741,1046.38062,303.55505,320.71738,988.64642,379.73398,299.88815,972.70911
27,0.217,328.76016,275.6741,1046.38062,303.24106,321.56375,988.75122,379.63055,299.98737,972.93225
28,0.225,328.76016,275.6741,1046.38062,303.24106,321.56375,988.75122,379.61002,299.70078,972.89526
29,0.233,328.50107,275.52832,1046.53284,303.24106,321.56375,988.75122,379.52332,299.94824,972.71539
30,0.242,328.76016,275.6741,1046.38062,303.24106,321.56375,988.75122,379.60187,299.71298,972.72998
31,0.25,328.76016,275.6741,1046.38062,303.24106,321.56375,988.75122,379.60187,299.71298,972.72998
32,0.258,328.50107,275.52832,1046.53284,303.24106,321.56375,988.75122,379.7807,299.58865,972.65344
33,0.267,328.50107,275.52832,1046.53284,303.24106,321.56375,988.75122,379.39117,299.77307,972.73627
34,0.275,328.2822,275.22934,1046.51453,303.24106,321.56375,988.75122,379.39117,299.77307,972.73627
35,0.283,328.2822,275.22934,1046.51453,303.24106,321.56375,988.75122,379.39117,299.77307,972.73627
36,0.292,328.2822,275.22934,1046.51453,303.55505,320.71738,988.64642,379.65118,299.42621,972.89716
37,0.3,328.22589,274.93921,1046.31714,303.55505,320.71738,988.64642,379.99875,299.04031,972.83405
38,0.308,328.22589,274.93921,1046.31714,303.55505,320.71738,988.64642,379.60938,299.22464,972.91693
39,0.317,328.22589,274.93921,1046.31714,303.55505,320.71738,988.64642,379.81891,298.75699,972.98053
40,0.325,328.22589,274.93921,1046.31714,303.24106,321.56375,988.75122,379.81891,298.75699,972.98053
41,0.333,328.25095,274.65326,1046.03052,303.24106,321.56375,988.75122,379.81891,298.75699,972.98053
42,0.342,328.22589,274.93921,1046.31714,303.55505,320.71738,988.64642,379.89056,298.48236,972.94501
43,0.35,328.22589,274.93921,1046.31714,303.55505,320.71738,988.64642,379.81891,298.75699,972.98053
44,0.358,328.33154,274.83139,1046.24426,303.55505,320.71738,988.64642,379.81891,298.75699,972.98053
45,0.367,328.39011,274.50735,1045.93848,303.55505,320.71738,988.64642,379.89056,298.48236,972.94501
46,0.375,328.25095,274.65326,1046.03052,303.41199,320.39282,988.43433,379.89056,298.48236,972.94501
47,0.383,328.39011,274.50735,1045.93848,303.10666,320.40933,988.26965,379.89056,298.48236,972.94501
48,0.392,328.39011,274.50735,1045.93848,303.13083,319.95477,988.48041,379.63461,298.45065,972.85107
49,0.4,328.39011,274.50735,1045.93848,303.27386,320.27942,988.6925,379.63461,298.45065,972.85107
50,0.408,328.41507,274.04874,1045.98889,303.27386,320.27942,988.6925,379.72076,297.97174,972.95886
51,0.417,328.41507,274.04874,1045.98889,303.13083,319.95477,988.48041,379.98953,297.90833,972.96344
52,0.425,328.41507,274.04874,1045.98889,303.13083,319.95477,988.48041,379.72076,297.97174,972.95886
53,0.433,328.19873,273.79196,1045.8479,303.13083,319.95477,988.48041,379.53207,297.92401,972.86609
54,0.442,328.41507,274.04874,1045.98889,303.13083,319.95477,988.48041,379.72076,297.97174,972.95886
55,0.45,328.19873,273.79196,1045.8479,302.82547,319.97125,988.31567,379.98178,297.3046,972.80298
56,0.458,328.19873,273.79196,1045.8479,303.13083,319.95477,988.48041,380.62668,297.15237,972.81409
57,0.467,328.19873,273.79196,1045.8479,303.13083,319.95477,988.48041,379.79312,297.25684,972.71021
58,0.475,328.19873,273.79196,1045.8479,303.13083,319.95477,988.48041,379.98178,297.3046,972.80298
59,0.483,328.19873,273.79196,1045.8479,303.13083,319.95477,988.48041,379.79312,297.25684,972.71021
60,0.492,328.19873,273.79196,1045.8479,302.82547,319.97125,988.31567,379.79312,297.25684,972.71021
61,0.5,328.19873,273.79196,1045.8479,302.64322,319.91574,988.40198,379.18207,295.73535,972.93726
62,0.508,328.19873,273.79196,1045.8479,302.64322,319.91574,988.40198,379.18207,295.73535,972.93726
63,0.517,328.18854,273.49551,1045.93762,302.94861,319.89929,988.56677,379.23056,295.71216,973.14313
64,0.525,328.19873,273.79196,1045.8479,302.94861,319.89929,988.56677,379.43085,295.79498,973.2475
65,0.533,328.19873,273.79196,1045.8479,302.64322,319.91574,988.40198,379.12814,295.88034,973.34045
66,0.542,328.26105,273.37234,1046.04517,302.64322,319.91574,988.40198,379.32843,295.96313,973.44482
67,0.55,328.03461,273.43835,1046.34314,302.64322,319.91574,988.40198,379.03494,295.94183,973.43445
68,0.558,328.05496,273.62878,1046.16016,302.64322,319.91574,988.40198,378.9642,296.39655,973.39807
69,0.567,328.05496,273.62878,1046.16016,302.64322,319.91574,988.40198,379.07129,296.5408,973.59637
70,0.575,328.04651,273.87424,1046.37781,302.64322,319.91574,988.40198,378.69019,296.6933,973.5661
71,0.583,328.03461,273.43835,1046.34314,302.25635,320.35834,988.54926,378.69019,296.6933,973.5661
72,0.592,327.79111,273.52582,1046.7406,302.25635,320.35834,988.54926,378.89053,296.77603,973.67047
73,0.6,328.06082,273.96613,1046.03223,302.25635,320.35834,988.54926,378.22903,297.05746,973.69446
74,0.608,328.05237,274.21161,1046.24988,302.25635,320.35834,988.54926,377.93771,297.00589,973.7583
75,0.617,327.16055,274.44354,1046.45874,302.25635,320.35834,988.54926,377.93771,297.00589,973.7583
76,0.625,327.15457,274.10614,1046.58667,302.25635,320.35834,988.54926,377.93771,297.00589,973.7583
77,0.633,327.15457,274.10614,1046.58667,302.31357,320.49542,989.03815,378.08978,297.30478,973.8111
78,0.642,327.16055,274.44354,1046.45874,301.99957,321.34219,989.14294,377.71301,297.33197,973.84229
79,0.65,327.15234,274.68875,1046.67651,301.99957,321.34219,989.14294,377.71301,297.33197,973.84229
80,0.658,327.15234,274.68875,1046.67651,301.99957,321.34219,989.14294,377.59613,297.35129,974.01697
81,0.667,327.15234,274.68875,1046.67651,301.99957,321.34219,989.14294,377.75034,297.4407,974.12085
82,0.675,327.15234,274.68875,1046.67651,301.99957,321.34219,989.14294,377.40265,298.52075,974.04633
83,0.683,327.15234,274.68875,1046.67651,301.99957,321.34219,989.14294,377.12613,298.8147,974.04102
84,0.692,327.15234,274.68875,1046.67651,301.65903,321.4165,989.35535,377.51215,299.87616,973.85822
85,0.7,327.15234,274.68875,1046.67651,301.65903,321.4165,989.35535,377.51215,299.87616,973.85822
86,0.708,327.11047,275.19766,1046.58069,301.65903,321.4165,989.35535,377.51215,299.87616,973.85822
87,0.717,327.11047,275.19766,1046.58069,301.65903,321.4165,989.35535,377.09583,299.005,974.2113
88,0.725,327.11047,275.19766,1046.58069,301.65903,321.4165,989.35535,376.849,299.1814,973.97052
89,0.733,327.11252,275.1662,1046.61121,301.65903,321.4165,989.35535,376.72107,299.34601,974.07825
90,0.742,327.11252,275.1662,1046.61121,301.65903,321.4165,989.35535,376.72107,299.34601,974.07825
91,0.75,327.11252,275.1662,1046.61121,301.65903,321.4165,989.35535,376.71228,299.5087,974.2132
92,0.758,326.84937,275.00674,1047.07202,301.94669,321.42917,989.7085,376.71228,299.5087,974.2132
93,0.767,326.84937,275.00674,1047.07202,301.94669,321.42917,989.7085,377.2735,300.43973,974.32916
94,0.775,326.52594,274.67728,1047.09106,301.47684,321.36105,989.44165,377.15463,300.74249,974.24359
95,0.783,326.52594,274.67728,1047.09106,301.20175,321.56384,990.11987,376.70355,299.67126,974.34821
96,0.792,326.52594,274.67728,1047.09106,301.40625,321.47797,990.19592,376.80872,299.80481,974.48584
97,0.8,326.52594,274.67728,1047.09106,301.20175,321.56384,990.11987,376.42456,299.8381,974.49835
98,0.808,326.52594,274.67728,1047.09106,301.20175,321.56384,990.11987,376.42456,299.8381,974.49835
99,0.817,326.27045,274.69254,1047.39575,301.20175,321.56384,990.11987,376.68338,299.80078,974.50116
100,0.825,326.38724,274.53043,1047.55762,301.20175,321.56384,990.11987,376.27917,299.86252,974.70728
101,0.833,326.27045,274.69254,1047.39575,301.20175,321.56384,990.11987,376.49738,299.828,974.78674
102,0.842,326.27045,274.69254,1047.39575,300.5647,321.6402,990.07336,376.29562,299.88397,974.67474
103,0.85,326.19394,275.03558,1047.58374,300.77637,322.09015,990.04797,376.06967,299.7684,974.83179
104,0.858,326.19394,275.03558,1047.58374,300.13956,322.16623,990.00146,375.78537,299.75974,974.78333
105,0.867,326.13446,274.86508,1047.84985,300.13956,322.16623,990.00146,375.42465,299.86288,974.5285
106,0.875,325.05124,274.83841,1047.5603,300.13956,322.16623,990.00146,375.42465,299.86288,974.5285
107,0.883,325.46216,274.66644,1047.72681,300.13956,322.16623,990.00146,375.42465,299.86288,974.5285
108,0.892,325.05124,274.83841,1047.5603,300.27475,321.66299,990.08112,375.42465,299.86288,974.5285
109,0.9,325.26971,274.63904,1047.75806,300.13956,322.16623,990.00146,375.19138,299.94586,974.57159
110,0.908,325.03528,274.67511,1047.72595,300.13956,322.16623,990.00146,375.19138,299.94586,974.57159
111,0.917,325.05124,274.83841,1047.5603,300.13956,322.16623,990.00146,375.19138,299.94586,974.57159
112,0.925,325.05124,274.83841,1047.5603,300.13956,322.16623,990.00146,375.19138,299.94586,974.57159
113,0.933,324.94232,274.23749,1047.54724,299.48499,322.27231,990.14362,374.98999,299.99017,974.67401
114,0.942,324.09747,274.36902,1047.28259,299.19736,322.25943,989.79053,374.74377,299.90048,974.32965
115,0.95,324.09747,274.36902,1047.28259,299.27112,322.35117,990.07697,374.70679,299.69196,974.21906
116,0.958,324.09747,274.36902,1047.28259,299.48499,322.27231,990.14362,374.724,299.81174,974.64838
117,0.967,324.09747,274.36902,1047.28259,299.27112,322.35117,990.07697,374.56973,299.6069,974.67279
118,0.975,324.09747,274.36902,1047.28259,298.98352,322.3382,989.72382,374.63583,299.43518,974.47443
119,0.983,324.09747,274.36902,1047.28259,298.98352,322.3382,989.72382,374.33463,299.33456,974.50256
120,0.992,324.09747,274.36902,1047.28259,298.70309,322.36801,989.72235,374.33865,299.32196,974.45923
121,1,324.09747,274.36902,1047.28259,298.83792,321.86508,989.80194,374.03012,299.3075,974.49359
122,1.008,323.58411,273.55539,1047.50146,298.51227,321.48547,989.67651,373.93643,299.39398,974.43066
123,1.017,323.77097,273.37143,1047.32336,298.51227,321.48547,989.67651,373.91022,299.18329,974.4162
124,1.025,323.77097,273.37143,1047.32336,298.51227,321.48547,989.67651,373.81653,299.26974,974.35327
125,1.033,323.77097,273.37143,1047.32336,298.87039,321.38153,989.27545,373.71207,299.35159,974.29669
126,1.042,323.77097,273.37143,1047.32336,298.87039,321.38153,989.27545,373.8049,299.26474,974.36005
127,1.05,323.84155,273.22086,1047.08459,298.87039,321.38153,989.27545,373.61145,299.22159,974.14569
128,1.058,323.77097,273.37143,1047.32336,298.87039,321.38153,989.27545,373.61145,299.22159,974.14569
129,1.067,323.77097,273.37143,1047.32336,298.87039,321.38153,989.27545,373.71207,299.35159,974.29669
130,1.075,323.84155,273.22086,1047.08459,298.87039,321.38153,989.27545,373.71207,299.35159,974.29669
131,1.083,323.72733,272.93484,1046.91187,298.87039,321.38153,989.27545,373.71207,299.35159,974.29669
132,1.092,323.72733,272.93484,1046.91187,298.87039,321.38153,989.27545,373.71207,299.35159,974.29669
133,1.1,323.5033,272.87173,1046.98022,298.87039,321.38153,989.27545,373.6283,299.19803,973.75458
134,1.108,323.72733,272.93484,1046.91187,298.87039,321.38153,989.27545,373.72116,299.11118,973.81793
135,1.117,323.72733,272.93484,1046.91187,298.87039,321.38153,989.27545,373.72116,299.11118,973.81793
136,1.125,323.72733,272.93484,1046.91187,298.87039,321.38153,989.27545,373.6283,299.19803,973.75458
137,1.133,323.72733,272.93484,1046.91187,298.49982,321.08188,989.08228,373.6283,299.19803,973.75458
138,1.142,323.72733,272.93484,1046.91187,298.49982,321.08188,989.08228,373.70432,299.1347,974.20905
139,1.15,323.72733,272.93484,1046.91187,298.19446,321.09869,988.91766,373.72888,299.32806,973.90558
140,1.158,323.38757,273.05487,1046.79712,298.19446,321.09869,988.91766,373.6283,299.19803,973.75458
141,1.167,323.72733,272.93484,1046.91187,298.19446,321.09869,988.91766,373.6283,299.19803,973.75458
142,1.175,323.38757,273.05487,1046.79712,298.19446,321.09869,988.91766,373.6283,299.19803,973.75458
143,1.183,323.38757,273.05487,1046.79712,298.19446,321.09869,988.91766,373.21503,299.34729,973.4903
144,1.192,323.38757,273.05487,1046.79712,298.03375,321.05148,988.49457,373.57925,299.22433,973.57385
145,1.2,323.38757,273.05487,1046.79712,298.03375,321.05148,988.49457,373.57925,299.22433,973.57385
146,1.208,323.38757,273.05487,1046.79712,298.19446,321.09869,988.91766,373.57925,299.22433,973.57385
147,1.217,323.38757,273.05487,1046.79712,298.19446,321.09869,988.91766,373.21503,299.34729,973.4903
148,1.225,323.38757,273.05487,1046.79712,298.19446,321.09869,988.91766,373.57925,299.22433,973.57385
149,1.233,323.38757,273.05487,1046.79712,298.19446,321.09869,988.91766,373.57925,299.22433,973.57385
150,1.242,323.38757,273.05487,1046.79712,298.19446,321.09869,988.91766,373.57925,299.22433,973.57385
151,1.25,323.38757,273.05487,1046.79712,298.03375,321.05148,988.49457,373.6283,299.19803,973.75458
152,1.258,323.38757,273.05487,1046.79712,298.19446,321.09869,988.91766,373.6283,299.19803,973.75458
153,1.267,323.38757,273.05487,1046.79712,298.19446,321.09869,988.91766,373.6283,299.19803,973.75458
154,1.275,323.38757,273.05487,1046.79712,298.19446,321.09869,988.91766,373.6283,299.19803,973.75458
155,1.283,323.2413,272.79654,1047.0686,298.19446,321.09869,988.91766,373.37753,299.02322,973.77124
156,1.292,323.30536,272.67795,1047.1875,298.19446,321.09869,988.91766,373.75201,298.84338,973.8653
157,1.3,323.48456,272.58508,1047.27808,298.19446,321.09869,988.91766,373.75201,298.84338,973.8653
158,1.308,323.48456,272.58508,1047.27808,297.80865,320.59299,989.0719,373.72043,298.7803,973.92932
159,1.317,323.48456,272.58508,1047.27808,297.80865,320.59299,989.0719,373.72043,298.7803,973.92932
160,1.325,323.48456,272.58508,1047.27808,297.80865,320.59299,989.0719,373.83624,298.69751,973.98492
161,1.333,323.48456,272.58508,1047.27808,297.80865,320.59299,989.0719,373.72043,298.7803,973.92932
162,1.342,323.48456,272.58508,1047.27808,297.80865,320.59299,989.0719,373.83624,298.69751,973.98492
163,1.35,323.48456,272.58508,1047.27808,297.80865,320.59299,989.0719,373.89096,298.51303,973.94751
164,1.358,323.48456,272.58508,1047.27808,297.80865,320.59299,989.0719,373.89096,298.51303,973.94751
165,1.367,323.48456,272.58508,1047.27808,297.80865,320.59299,989.0719,373.93634,298.41879,974.02649
166,1.375,323.48456,272.58508,1047.27808,297.80865,320.59299,989.0719,373.33331,298.37173,973.84576
167,1.383,323.28961,272.38889,1047.09839,297.48853,319.99249,988.84088,373.17044,298.10947,973.79309
168,1.392,323.28961,272.38889,1047.09839,297.48853,319.99249,988.84088,373.17044,298.10947,973.79309
169,1.4,323.11713,272.34415,1047.14734,297.48853,319.99249,988.84088,373.20596,297.84839,973.83014
170,1.408,323.05161,272.17087,1047.13196,297.48853,319.99249,988.84088,373.20596,297.84839,973.83014
171,1.417,323.05161,272.17087,1047.13196,297.80865,320.59299,989.0719,373.09229,297.91684,973.78729
172,1.425,323.05161,272.17087,1047.13196,297.48853,319.99249,988.84088,373.09229,297.91684,973.78729
173,1.433,323.05161,272.17087,1047.13196,297.48853,319.99249,988.84088,373.09229,297.91684,973.78729
174,1.442,322.44693,272.30505,1047.30847,297.48853,319.99249,988.84088,373.09229,297.91684,973.78729
175,1.45,322.44693,272.30505,1047.30847,297.2789,319.76389,989.0144,373.12347,297.64896,973.83478
176,1.458,322.33386,272.55865,1047.24597,297.2789,319.76389,989.0144,373.09229,297.91684,973.78729
177,1.467,322.33386,272.55865,1047.24597,297.2789,319.76389,989.0144,372.96564,297.73639,973.78247
178,1.475,322.12537,272.4509,1047.38928,297.2789,319.76389,989.0144,372.96564,297.73639,973.78247
179,1.483,322.12537,272.4509,1047.38928,297.2789,319.76389,989.0144,372.93445,298.00427,973.73505
180,1.492,322.12537,272.4509,1047.38928,297.2789,319.76389,989.0144,373.12347,297.64896,973.83478
181,1.5,322.12537,272.4509,1047.38928,296.93832,319.83856,989.22699,372.85052,297.56522,973.78772
182,1.508,322.12537,272.4509,1047.38928,296.93832,319.83856,989.22699,372.81934,297.83307,973.74023
183,1.517,322.12537,272.4509,1047.38928,296.93832,319.83856,989.22699,372.8797,298.18878,973.7724
184,1.525,322.12537,272.4509,1047.38928,296.93832,319.83856,989.22699,372.81934,297.83307,973.74023
185,1.533,322.12537,272.4509,1047.38928,296.93832,319.83856,989.22699,372.52026,298.01147,974.05316
186,1.542,322.12537,272.4509,1047.38928,296.75604,319.78308,989.31342,372.76715,298.21667,973.92468
187,1.55,322.12537,272.4509,1047.38928,296.93832,319.83856,989.22699,372.63931,298.267,973.76813
188,1.558,322.12537,272.4509,1047.38928,296.93832,319.83856,989.22699,372.5101,298.30234,973.75903
189,1.567,322.12537,272.4509,1047.38928,296.93832,319.83856,989.22699,372.76376,298.30627,973.84235
190,1.575,322.12537,272.4509,1047.38928,296.93832,319.83856,989.22699,372.49704,298.38773,973.68231
191,1.583,322.12537,272.4509,1047.38928,297.14798,320.06723,989.05347,372.33881,298.43842,973.71698
192,1.592,322.12537,272.4509,1047.38928,296.93832,319.83856,989.22699,372.5813,298.54108,973.72327
193,1.6,322.12537,272.4509,1047.38928,296.93832,319.83856,989.22699,372.55853,298.62234,973.65216
194,1.608,322.12537,272.4509,1047.38928,296.89969,320.10706,989.52527,372.61322,298.4379,973.61475
195,1.617,322.12537,272.4509,1047.38928,297.46817,320.66766,989.28442,372.30212,298.63065,973.74396
196,1.625,322.12537,272.4509,1047.38928,297.46817,320.66766,989.28442,372.76715,298.21667,973.92468
197,1.633,322.12537,272.4509,1047.38928,297.28586,320.61227,989.37091,372.58008,298.43396,973.98328
198,1.642,322.12537,272.4509,1047.38928,297.46817,320.66766,989.28442,372.71246,298.40115,973.9621
199,1.65,322.12537,272.4509,1047.38928,296.75604,319.78308,989.31342,372.71246,298.40115,973.9621
200,1.658,322.12537,272.4509,1047.38928,297.08197,320.16254,989.43878,372.91104,298.27521,974.0166
