Frame#,Time,L.Forearm.x,L.Forearm.y,L.Forearm.z,L.Ulna.x,L.Ulna.y,L.Ulna.z,L.Radius.x,L.Radius.y,L.Radius.z
1,0,40.1558,276.62482,718.36951,68.42162,256.37418,624.25665,146.28287,212.68961,665.80597
2,0.008,40.1558,276.62482,718.36951,68.42162,256.37418,624.25665,146.28287,212.68961,665.80597
3,0.017,40.1558,276.62482,718.36951,68.36636,256.45993,624.5639,146.28287,212.68961,665.80597
4,0.025,40.1558,276.62482,718.36951,68.36636,256.45993,624.5639,146.57248,212.56081,666.47119
5,0.033,40.1558,276.62482,718.36951,68.36636,256.45993,624.5639,146.53015,212.51041,666.18103
6,0.042,40.26534,276.4426,718.48175,68.36636,256.45993,624.5639,147.14844,211.94469,666.68317
7,0.05,40.26534,276.4426,718.48175,68.36636,256.45993,624.5639,147.14844,211.94469,666.68317
8,0.058,40.45308,275.99338,718.51843,68.36636,256.45993,624.5639,147.10614,211.8943,666.39313
9,0.067,40.67722,276.20691,718.62451,68.36636,256.45993,624.5639,147.14844,211.94469,666.68317
10,0.075,40.67722,276.20691,718.62451,68.36636,256.45993,624.5639,147.14844,211.94469,666.68317
11,0.083,40.67722,276.20691,718.62451,68.36636,256.45993,624.5639,147.14844,211.94469,666.68317
12,0.092,40.80727,276.25064,718.86194,68.36636,256.45993,624.5639,147.14844,211.94469,666.68317
13,0.1,40.69925,276.21417,718.87567,68.36636,256.45993,624.5639,147.14844,211.94469,666.68317
14,0.108,41.00912,276.33948,719.24213,68.36636,256.45993,624.5639,147.14844,211.94469,666.68317
15,0.117,41.00716,276.13138,719.0943,68.36636,256.45993,624.5639,147.14844,211.94469,666.68317
16,0.125,41.06365,276.35886,719.51031,68.45659,255.82916,624.3114,147.14844,211.94469,666.68317
17,0.133,41.00912,276.33948,719.24213,68.36636,256.45993,624.5639,147.14844,211.94469,666.68317
18,0.142,41.06365,276.35886,719.51031,68.36636,256.45993,624.5639,147.14844,211.94469,666.68317
19,0.15,41.06365,276.35886,719.51031,68.36636,256.45993,624.5639,147.18123,211.75728,666.8172
20,0.158,41.08725,276.19025,719.64563,68.36636,256.45993,624.5639,147.18123,211.75728,666.8172
21,0.167,41.08725,276.19025,719.64563,68.36636,256.45993,624.5639,147.18123,211.75728,666.8172
22,0.175,41.08725,276.19025,719.64563,68.45659,255.82916,624.3114,147.18123,211.75728,666.8172
23,0.183,41.08725,276.19025,719.64563,68.45659,255.82916,624.3114,147.46706,211.81197,666.79254
24,0.192,41.3597,276.00977,719.80756,68.45659,255.82916,624.3114,147.18123,211.75728,666.8172
25,0.2,41.3597,276.00977,719.80756,68.45659,255.82916,624.3114,147.18123,211.75728,666.8172
26,0.208,41.3597,276.00977,719.80756,68.57933,255.12457,624.50989,147.18123,211.75728,666.8172
27,0.217,41.41439,276.02878,720.07568,68.59071,255.66594,624.86414,147.18123,211.75728,666.8172
28,0.225,41.41439,276.02878,720.07568,68.69179,255.08626,624.94794,147.18123,211.75728,666.8172
29,0.233,41.41439,276.02878,720.07568,68.53012,255.04112,625.03381,147.46706,211.81197,666.79254
30,0.242,41.40512,276.28076,720.27661,69.29516,256.08295,625.33295,147.46706,211.81197,666.79254
31,0.25,41.60722,276.18732,720.27557,69.05087,256.12787,625.1178,147.46706,211.81197,666.79254
32,0.258,41.60722,276.18732,720.27557,68.44154,254.95697,625.13831,147.18123,211.75728,666.8172
33,0.267,41.60722,276.18732,720.27557,68.44154,254.95697,625.13831,147.18123,211.75728,666.8172
34,0.275,41.60722,276.18732,720.27557,68.44154,254.95697,625.13831,147.46706,211.81197,666.79254
35,0.283,41.60722,276.18732,720.27557,68.44154,254.95697,625.13831,147.46706,211.81197,666.79254
36,0.292,41.48743,276.19931,720.50983,68.53012,255.04112,625.03381,147.46706,211.81197,666.79254
37,0.3,41.60722,276.18732,720.27557,68.86277,255.53,625.33716,147.65733,211.75102,666.776
38,0.308,41.48743,276.19931,720.50983,69.29516,256.08295,625.33295,147.46706,211.81197,666.79254
39,0.317,41.84832,275.94,720.50214,69.29516,256.08295,625.33295,147.65733,211.75102,666.776
40,0.325,42.00091,276.15231,720.64063,69.29516,256.08295,625.33295,147.65733,211.75102,666.776
41,0.333,42.00091,276.15231,720.64063,68.86277,255.53,625.33716,147.65733,211.75102,666.776
42,0.342,42.00091,276.15231,720.64063,68.86277,255.53,625.33716,147.65733,211.75102,666.776
43,0.35,42.09241,275.96939,720.81549,69.29516,256.08295,625.33295,147.65733,211.75102,666.776
44,0.358,42.17745,276.04874,720.88831,69.72066,255.92378,625.32648,147.65733,211.75102,666.776
45,0.367,42.26898,275.86572,721.06317,69.72066,255.92378,625.32648,147.65733,211.75102,666.776
46,0.375,42.46873,276.04254,721.16473,69.72066,255.92378,625.32648,147.65733,211.75102,666.776
47,0.383,42.46873,276.04254,721.16473,69.29516,256.08295,625.33295,147.84984,211.66031,666.78198
48,0.392,42.46873,276.04254,721.16473,69.16566,255.98318,625.71484,147.84984,211.66031,666.78198
49,0.4,42.46873,276.04254,721.16473,69.59118,255.82404,625.70837,147.84984,211.66031,666.78198
50,0.408,42.62476,276.28195,721.19489,69.59118,255.82404,625.70837,147.84984,211.66031,666.78198
51,0.417,42.46873,276.04254,721.16473,69.59118,255.82404,625.70837,147.84984,211.66031,666.78198
52,0.425,42.62476,276.28195,721.19489,69.59118,255.82404,625.70837,147.84984,211.66031,666.78198
53,0.433,42.62476,276.28195,721.19489,69.59118,255.82404,625.70837,147.84984,211.66031,666.78198
54,0.442,42.62476,276.28195,721.19489,69.59118,255.82404,625.70837,147.90279,211.40166,666.67389
55,0.45,42.62476,276.28195,721.19489,69.59118,255.82404,625.70837,147.84984,211.66031,666.78198
56,0.458,42.62476,276.28195,721.19489,69.59118,255.82404,625.70837,147.84984,211.66031,666.78198
57,0.467,42.62476,276.28195,721.19489,69.59118,255.82404,625.70837,147.84984,211.66031,666.78198
58,0.475,42.62476,276.28195,721.19489,69.59118,255.82404,625.70837,147.84984,211.66031,666.78198
59,0.483,42.62476,276.28195,721.19489,69.59118,255.82404,625.70837,147.84984,211.66031,666.78198
60,0.492,42.62476,276.28195,721.19489,69.59118,255.82404,625.70837,147.84984,211.66031,666.78198
61,0.5,42.62476,276.28195,721.19489,69.59118,255.82404,625.70837,147.84984,211.66031,666.78198
62,0.508,42.62476,276.28195,721.19489,69.402,255.95078,625.97388,147.84984,211.66031,666.78198
63,0.517,42.57339,276.49936,721.28711,69.59118,255.82404,625.70837,147.84984,211.66031,666.78198
64,0.525,42.62476,276.28195,721.19489,69.402,255.95078,625.97388,147.84984,211.66031,666.78198
65,0.533,42.57339,276.49936,721.28711,69.59118,255.82404,625.70837,147.84984,211.66031,666.78198
66,0.542,42.74725,276.33554,721.5304,69.402,255.95078,625.97388,147.84984,211.66031,666.78198
67,0.55,42.74725,276.33554,721.5304,69.62974,256.04678,626.12714,147.84984,211.66031,666.78198
68,0.558,42.74725,276.33554,721.5304,69.62974,256.04678,626.12714,147.84984,211.66031,666.78198
69,0.567,42.92474,276.64307,721.67316,69.402,255.95078,625.97388,147.84984,211.66031,666.78198
70,0.575,42.74725,276.33554,721.5304,69.62974,256.04678,626.12714,147.84984,211.66031,666.78198
71,0.583,42.61158,276.45319,721.75122,69.62974,256.04678,626.12714,147.84984,211.66031,666.78198
72,0.592,42.74725,276.33554,721.5304,69.62974,256.04678,626.12714,148.00989,211.9854,666.96228
73,0.6,42.61158,276.45319,721.75122,69.62974,256.04678,626.12714,148.33408,211.35648,666.93469
74,0.608,42.61158,276.45319,721.75122,69.56317,257.69235,628.14734,148.56207,211.66135,667.42761
75,0.617,42.78909,276.76068,721.89392,69.71675,257.2999,627.63617,148.00989,211.9854,666.96228
76,0.625,43.06272,276.80054,721.87311,69.71675,257.2999,627.63617,148.18842,211.90013,667.36786
77,0.633,42.78909,276.76068,721.89392,69.56317,257.69235,628.14734,148.40215,211.33633,667.24738
78,0.642,42.78909,276.76068,721.89392,69.56317,257.69235,628.14734,148.56207,211.66135,667.42761
79,0.65,42.78909,276.76068,721.89392,69.56317,257.69235,628.14734,148.56207,211.66135,667.42761
80,0.658,42.78909,276.76068,721.89392,69.56317,257.69235,628.14734,148.56207,211.66135,667.42761
81,0.667,42.78909,276.76068,721.89392,69.77862,257.70541,628.61096,148.56207,211.66135,667.42761
82,0.675,42.78909,276.76068,721.89392,69.77862,257.70541,628.61096,148.40215,211.33633,667.24738
83,0.683,43.21485,277.11252,722.33844,69.77862,257.70541,628.61096,148.18842,211.90013,667.36786
84,0.692,42.78909,276.76068,721.89392,69.77862,257.70541,628.61096,148.56207,211.66135,667.42761
85,0.7,42.97575,276.66116,722.25854,69.77862,257.70541,628.61096,148.40215,211.33633,667.24738
86,0.708,43.14057,276.69919,722.39526,69.77862,257.70541,628.61096,148.02841,211.57509,667.18762
87,0.717,43.14057,276.69919,722.39526,69.77862,257.70541,628.61096,148.02841,211.57509,667.18762
88,0.725,42.97575,276.66116,722.25854,69.77862,257.70541,628.61096,148.02841,211.57509,667.18762
89,0.733,42.97575,276.66116,722.25854,69.77862,257.70541,628.61096,148.02841,211.57509,667.18762
90,0.742,42.97575,276.66116,722.25854,69.77862,257.70541,628.61096,148.02841,211.57509,667.18762
91,0.75,43.14057,276.69919,722.39526,69.77862,257.70541,628.61096,148.02841,211.57509,667.18762
92,0.758,43.14057,276.69919,722.39526,69.77862,257.70541,628.61096,148.18842,211.90013,667.36786
93,0.767,43.14057,276.69919,722.39526,69.77862,257.70541,628.61096,148.18842,211.90013,667.36786
94,0.775,43.14057,276.69919,722.39526,69.77862,257.70541,628.61096,148.18842,211.90013,667.36786
95,0.783,43.14057,276.69919,722.39526,69.68308,257.50803,628.82422,148.02841,211.57509,667.18762
96,0.792,43.14057,276.69919,722.39526,69.77862,257.70541,628.61096,148.02841,211.57509,667.18762
97,0.8,43.14057,276.69919,722.39526,69.77862,257.70541,628.61096,148.18842,211.90013,667.36786
98,0.808,42.98133,276.87274,722.56311,69.68308,257.50803,628.82422,148.18842,211.90013,667.36786
99,0.817,43.14057,276.69919,722.39526,69.77862,257.70541,628.61096,148.02841,211.57509,667.18762
100,0.825,42.98133,276.87274,722.56311,69.68308,257.50803,628.82422,148.02841,211.57509,667.18762
101,0.833,43.14057,276.69919,722.39526,69.77862,257.70541,628.61096,148.18842,211.90013,667.36786
102,0.842,43.1437,276.55423,722.51831,69.609,257.23599,628.30182,147.84984,211.66031,666.78198
103,0.85,42.98446,276.72781,722.6861,69.68308,257.50803,628.82422,148.00989,211.9854,666.96228
104,0.858,43.1437,276.55423,722.51831,69.70455,257.43338,628.08862,147.84984,211.66031,666.78198
105,0.867,43.1437,276.55423,722.51831,69.70455,257.43338,628.08862,148.00989,211.9854,666.96228
106,0.875,43.37965,277.15051,722.47522,69.70455,257.43338,628.08862,148.00989,211.9854,666.96228
107,0.883,43.14057,276.69919,722.39526,69.70455,257.43338,628.08862,148.49402,211.68152,667.11499
108,0.892,43.19304,277.25015,722.11072,69.48914,257.41998,627.62488,147.84984,211.66031,666.78198
109,0.9,43.19304,277.25015,722.11072,69.48914,257.41998,627.62488,148.00989,211.9854,666.96228
110,0.908,43.19304,277.25015,722.11072,69.48914,257.41998,627.62488,148.00989,211.9854,666.96228
111,0.917,43.19304,277.25015,722.11072,69.48914,257.41998,627.62488,148.49402,211.68152,667.11499
112,0.925,43.32865,277.13257,721.89001,69.48914,257.41998,627.62488,148.49402,211.68152,667.11499
113,0.933,43.16386,277.09445,721.75317,69.48914,257.41998,627.62488,148.49402,211.68152,667.11499
114,0.942,43.16386,277.09445,721.75317,69.48914,257.41998,627.62488,148.49402,211.68152,667.11499
115,0.95,43.16386,277.09445,721.75317,69.48914,257.41998,627.62488,148.49402,211.68152,667.11499
116,0.958,42.92474,276.64307,721.67316,69.48914,257.41998,627.62488,148.33408,211.35648,666.93469
117,0.967,42.92474,276.64307,721.67316,69.48914,257.41998,627.62488,147.84984,211.66031,666.78198
118,0.975,42.92474,276.64307,721.67316,69.48914,257.41998,627.62488,147.84984,211.66031,666.78198
119,0.983,42.92474,276.64307,721.67316,69.48914,257.41998,627.62488,147.84984,211.66031,666.78198
120,0.992,42.92474,276.64307,721.67316,69.48914,257.41998,627.62488,147.84984,211.66031,666.78198
121,1,42.92474,276.64307,721.67316,69.48914,257.41998,627.62488,147.84984,211.66031,666.78198
122,1.008,42.92474,276.64307,721.67316,69.48914,257.41998,627.62488,147.84984,211.66031,666.78198
123,1.017,42.74725,276.33554,721.5304,69.48914,257.41998,627.62488,147.84984,211.66031,666.78198
124,1.025,42.74725,276.33554,721.5304,69.26461,257.29373,627.43921,147.65733,211.75102,666.776
125,1.033,42.74725,276.33554,721.5304,68.78432,257.55447,627.40906,147.65733,211.75102,666.776
126,1.042,42.74725,276.33554,721.5304,68.78432,257.55447,627.40906,147.65733,211.75102,666.776
127,1.05,42.74725,276.33554,721.5304,68.78432,257.55447,627.40906,147.65733,211.75102,666.776
128,1.058,42.74725,276.33554,721.5304,68.61703,255.69313,625.86414,147.18123,211.75728,666.8172
129,1.067,42.61158,276.45319,721.75122,68.43193,255.70111,625.90515,147.18123,211.75728,666.8172
130,1.075,42.61158,276.45319,721.75122,68.9371,256.11542,625.93713,147.18123,211.75728,666.8172
131,1.083,42.43774,276.61703,721.50787,68.75201,256.12341,625.97815,147.18123,211.75728,666.8172
132,1.092,42.43774,276.61703,721.50787,68.75201,256.12341,625.97815,147.9389,213.62424,666.40887
133,1.1,42.28172,276.37766,721.47778,68.75201,256.12341,625.97815,147.18123,211.75728,666.8172
134,1.108,42.28172,276.37766,721.47778,68.43193,255.70111,625.90515,147.18123,211.75728,666.8172
135,1.117,42.43774,276.61703,721.50787,68.11173,255.27902,625.83221,147.18123,211.75728,666.8172
136,1.125,42.28172,276.37766,721.47778,68.11173,255.27902,625.83221,147.18123,211.75728,666.8172
137,1.133,42.28172,276.37766,721.47778,68.61703,255.69313,625.86414,147.23418,211.49863,666.70911
138,1.142,42.28172,276.37766,721.47778,68.43193,255.70111,625.90515,147.23418,211.49863,666.70911
139,1.15,42.33307,276.16028,721.38562,68.43193,255.70111,625.90515,147.23418,211.49863,666.70911
140,1.158,42.28172,276.37766,721.47778,68.43193,255.70111,625.90515,147.23418,211.49863,666.70911
141,1.167,42.33307,276.16028,721.38562,68.29684,255.27106,625.7912,147.23418,211.49863,666.70911
142,1.175,42.33307,276.16028,721.38562,68.29684,255.27106,625.7912,147.23418,211.49863,666.70911
143,1.183,42.33307,276.16028,721.38562,68.29684,255.27106,625.7912,147.42447,211.43768,666.69263
144,1.192,42.33307,276.16028,721.38562,68.29684,255.27106,625.7912,148.06503,213.00418,666.5285
145,1.2,42.42448,275.97748,721.56055,68.29684,255.27106,625.7912,147.42447,211.43768,666.69263
146,1.208,42.33307,276.16028,721.38562,69.08198,255.52847,625.90094,148.06503,213.00418,666.5285
147,1.217,42.33307,276.16028,721.38562,69.08198,255.52847,625.90094,148.45145,213.31761,666.28717
148,1.225,42.42448,275.97748,721.56055,69.08198,255.52847,625.90094,148.45145,213.31761,666.28717
149,1.233,42.56015,275.85974,721.33966,69.08198,255.52847,625.90094,148.06967,211.18327,666.48541
150,1.242,42.56015,275.85974,721.33966,69.08198,255.52847,625.90094,148.06967,211.18327,666.48541
151,1.25,42.56015,275.85974,721.33966,69.08198,255.52847,625.90094,148.06967,211.18327,666.48541
152,1.258,42.79863,276.11813,721.43823,69.402,255.95078,625.97388,148.06967,211.18327,666.48541
153,1.267,42.79863,276.11813,721.43823,69.8117,255.7486,625.72321,148.55397,210.87936,666.63818
154,1.275,42.79863,276.11813,721.43823,69.8117,255.7486,625.72321,148.55397,210.87936,666.63818
155,1.283,43.22683,276.1582,721.35516,69.8117,255.7486,625.72321,148.55397,210.87936,666.63818
156,1.292,43.22683,276.1582,721.35516,70.16225,255.92967,625.76208,148.55397,210.87936,666.63818
157,1.3,42.95321,276.11841,721.37598,70.31461,255.98672,625.66718,148.55397,210.87936,666.63818
158,1.308,43.05297,276.32205,721.11182,70.16225,255.92967,625.76208,148.55397,210.87936,666.63818
159,1.317,43.34661,276.14624,721.12097,70.16225,255.92967,625.76208,148.8661,210.66713,666.51825
160,1.325,43.34661,276.14624,721.12097,70.16225,255.92967,625.76208,149.09413,210.53165,666.37433
161,1.333,43.34661,276.14624,721.12097,70.47083,255.4565,625.60248,148.8661,210.66713,666.51825
162,1.342,43.34661,276.14624,721.12097,70.47083,255.4565,625.60248,149.09413,210.53165,666.37433
163,1.35,43.34661,276.14624,721.12097,70.47083,255.4565,625.60248,149.09413,210.53165,666.37433
164,1.358,43.34661,276.14624,721.12097,70.47083,255.4565,625.60248,148.8661,210.66713,666.51825
165,1.367,43.48299,275.92978,720.92383,70.62321,255.51357,625.50757,148.8661,210.66713,666.51825
166,1.375,43.48299,275.92978,720.92383,70.47083,255.4565,625.60248,149.09413,210.53165,666.37433
167,1.383,43.48299,275.92978,720.92383,70.62321,255.51357,625.50757,149.09413,210.53165,666.37433
168,1.392,43.48299,275.92978,720.92383,70.62321,255.51357,625.50757,149.09413,210.53165,666.37433
169,1.4,43.48299,275.92978,720.92383,70.47083,255.4565,625.60248,148.8661,210.66713,666.51825
170,1.408,43.48299,275.92978,720.92383,70.47083,255.4565,625.60248,148.8661,210.66713,666.51825
171,1.417,43.48299,275.92978,720.92383,70.24308,255.36044,625.44916,148.8661,210.66713,666.51825
172,1.425,43.24446,275.67136,720.82526,70.12025,255.27539,625.5636,148.8661,210.66713,666.51825
173,1.433,43.24446,275.67136,720.82526,70.12025,255.27539,625.5636,148.8661,210.66713,666.51825
174,1.442,43.1247,275.68329,721.05945,70.24978,255.37512,625.18158,148.8661,210.66713,666.51825
175,1.45,43.24446,275.67136,720.82526,70.24978,255.37512,625.18158,148.8661,210.66713,666.51825
176,1.458,42.74799,275.66083,720.94464,70.24978,255.37512,625.18158,148.8661,210.66713,666.51825
177,1.467,42.46817,275.37366,720.97314,69.81742,254.82198,625.18579,148.8661,210.66713,666.51825
178,1.475,42.21726,275.21866,720.89899,69.39625,254.2487,624.98682,148.66838,209.87807,666.01355
179,1.483,42.12581,275.40143,720.724,69.81742,254.82198,625.18579,148.06967,211.18327,666.48541
180,1.492,42.12581,275.40143,720.724,69.39625,254.2487,624.98682,148.03648,210.82649,666.24463
181,1.5,42.12581,275.40143,720.724,69.39625,254.2487,624.98682,147.52258,210.12691,665.8717
182,1.508,42.12581,275.40143,720.724,69.39625,254.2487,624.98682,147.52258,210.12691,665.8717
183,1.517,42.24555,275.38947,720.48969,69.17567,254.3242,624.97205,147.64127,210.60065,666.17438
184,1.525,42.12581,275.40143,720.724,69.17567,254.3242,624.97205,147.16994,209.89281,665.68536
185,1.533,41.94919,275.50507,720.4762,69.23447,254.07269,625.26599,146.8604,209.78316,665.67743
186,1.542,41.94919,275.50507,720.4762,68.92598,254.54625,625.42578,147.02045,210.10793,665.85779
187,1.55,41.90312,274.91403,720.84344,68.86716,254.79776,625.13177,147.16994,209.89281,665.68536
188,1.558,41.94919,275.50507,720.4762,68.79415,255.67616,626.37659,146.8604,209.78316,665.67743
189,1.567,41.94919,275.50507,720.4762,68.86716,254.79776,625.13177,146.8604,209.78316,665.67743
190,1.575,41.94919,275.50507,720.4762,69.28833,255.37082,625.33069,146.66997,209.8441,665.69391
191,1.583,41.94919,275.50507,720.4762,68.86716,254.79776,625.13177,146.66997,209.8441,665.69391
192,1.592,41.36537,275.27707,720.60333,68.44154,254.95697,625.13831,146.66997,209.8441,665.69391
193,1.6,41.36537,275.27707,720.60333,68.86716,254.79776,625.13177,146.66997,209.8441,665.69391
194,1.608,41.36537,275.27707,720.60333,68.44154,254.95697,625.13831,146.89351,210.14021,665.91797
195,1.617,41.27388,275.4599,720.42841,68.86277,255.53,625.33716,147.44868,210.69138,666.1684
196,1.625,41.27388,275.4599,720.42841,68.95133,255.61411,625.23273,146.81599,210.26582,665.95447
197,1.633,41.61651,275.93533,720.07465,68.53012,255.04112,625.03381,147.21718,210.90057,666.3075
198,1.642,41.49674,275.9473,720.30896,69.11737,254.927,624.94141,146.66997,209.8441,665.69391
199,1.65,41.03515,275.20209,720.32996,68.43797,256.03421,626.27667,146.70309,210.20114,665.93445
200,1.658,41.39368,275.44791,720.19409,68.66199,255.03464,624.81104,146.66997,209.8441,665.69391
201,1.667,41.15493,275.19009,720.09564,68.82365,255.07974,624.72516,146.66997,209.8441,665.69391
202,1.675,41.17566,275.77097,719.97723,68.73184,256.04932,625.90802,146.66997,209.8441,665.69391
203,1.683,40.95085,275.07535,719.94891,68.88252,254.82835,625.01917,146.66997,209.8441,665.69391
204,1.692,40.95085,275.07535,719.94891,69.525,257.56931,626.19434,146.66997,209.8441,665.69391
205,1.7,40.95085,275.07535,719.94891,68.48166,256.11722,625.65631,146.66997,209.8441,665.69391
206,1.708,40.95085,275.07535,719.94891,68.61659,254.99832,624.68921,146.66997,209.8441,665.69391
