Frame#,Time,R.Forearm.x,R.Forearm.y,R.Forearm.z,R.Ulna.x,R.Ulna.y,R.Ulna.z,R.Radius.x,R.Radius.y,R.Radius.z
1,0,-1045.73645,-118.94927,989.11371,-1063.46545,-162.26018,888.66498,-1003.82556,-119.48204,859.93738
2,0.008,-1037.77393,-120.29926,989.88702,-1054.95532,-162.92995,889.68262,-993.60327,-120.74155,860.25757
3,0.017,-1030.32178,-120.83835,990.82428,-1045.64185,-165.21803,889.33167,-985.08118,-120.3908,861.31732
4,0.025,-1021.54413,-121.3219,991.22711,-1036.67883,-164.62082,890.84875,-977.72028,-121.95744,862.38007
5,0.033,-1013.66473,-121.27734,990.48535,-1029.21301,-166.57477,891.16302,-966.38409,-121.87962,863.39429
6,0.042,-1005.47992,-122.6498,992.14063,-1018.95929,-165.03329,891.40887,-959.60187,-122.90873,863.69373
7,0.05,-997.67053,-122.39715,991.80072,-1012.74988,-166.71916,892.76044,-950.03351,-122.69803,864.75519
8,0.058,-989.34192,-122.5191,991.88806,-1001.85645,-164.94551,891.75983,-943.51379,-124.21545,864.93976
9,0.067,-982.12708,-123.12524,991.96069,-994.26825,-167.06339,892.27533,-933.17334,-122.45706,865.64423
10,0.075,-975.19403,-123.09468,992.15063,-985.49945,-166.45775,891.83716,-925.68066,-123.79996,866.03784
11,0.083,-966.95447,-123.29106,993.10583,-977.31183,-167.19112,891.85004,-916.30627,-124.46053,866.29047
12,0.092,-958.97394,-122.6863,991.90906,-969.48566,-167.4437,892.75513,-908.19708,-123.81032,866.323
13,0.1,-953.00299,-124.08328,991.63037,-960.89026,-167.00801,892.271,-900.85638,-124.0658,866.03064
14,0.108,-943.22546,-121.88878,991.89398,-953.6427,-168.4101,892.19958,-891.99487,-124.39078,867.14404
15,0.117,-937.01294,-123.71777,991.8717,-945.04089,-166.93697,891.43457,-882.87646,-125.08593,867.03784
16,0.125,-928.82391,-121.17023,990.39795,-937.1272,-169.16599,891.50995,-875.42645,-122.87627,866.49048
17,0.133,-920.5437,-121.18841,990.69385,-929.45343,-166.78685,890.73151,-867.43073,-124.5977,867.67987
18,0.142,-915.2301,-122.81138,991.08118,-920.42896,-166.75883,890.83917,-860.15338,-122.76914,867.0387
19,0.15,-907.78577,-123.01014,990.22778,-913.73102,-167.80719,890.83051,-853.46613,-123.08018,866.58716
20,0.158,-899.17328,-119.70947,989.97931,-906.7597,-167.52182,891.22443,-844.76776,-121.54881,865.63885
21,0.167,-893.27423,-123.23264,989.19415,-896.81201,-166.60249,887.9024,-837.15741,-120.725,864.87628
22,0.175,-886.09192,-120.08176,988.30676,-890.78241,-165.27519,888.24835,-831.09845,-121.75283,864.14093
23,0.183,-877.56421,-117.77383,987.23535,-882.86853,-164.25011,887.80444,-822.39691,-120.97093,863.18231
24,0.192,-871.55249,-118.62337,986.60596,-876.05359,-163.86169,887.23474,-815.15552,-119.33955,862.76868
25,0.2,-864.46875,-117.26046,986.39758,-868.38538,-163.073,886.31927,-809.34106,-119.69485,861.60742
26,0.208,-856.79474,-116.95406,985.43646,-861.703,-163.71242,885.43237,-800.74414,-117.00418,860.65759
27,0.217,-849.87457,-115.87261,983.23474,-855.55817,-162.10365,883.51013,-795.4809,-117.12473,859.7016
28,0.225,-842.49207,-114.12651,982.28131,-847.74994,-160.95621,883.14392,-788.40253,-114.77448,859.68292
29,0.233,-836.36292,-114.68774,981.67731,-841.92059,-159.99219,882.12781,-781.09723,-112.70805,858.38293
30,0.242,-828.63239,-112.5211,980.97253,-833.56549,-157.89584,880.66803,-774.91162,-114.15949,857.02148
31,0.25,-823.93237,-114.89921,980.84473,-829.15167,-157.85429,880.11072,-767.8277,-113.17139,854.97388
32,0.258,-816.51721,-111.76807,979.80151,-821.89563,-154.67432,878.9071,-760.84845,-114.07116,854.49396
33,0.267,-810.34332,-108.59864,978.30817,-817.17224,-154.65317,878.87274,-752.8869,-110.74752,853.74042
34,0.275,-804.02991,-107.66262,978.06061,-810.27405,-152.07088,877.29181,-748.18341,-111.15246,852.81677
35,0.283,-796.2406,-105.69879,977.38098,-805.4707,-152.80771,877.61694,-742.92084,-109.99801,851.15765
36,0.292,-790.06647,-103.08132,976.05444,-799.58643,-149.96036,876.30872,-736.47766,-107.10254,849.80426
37,0.3,-783.86914,-102.41141,976.23816,-793.86365,-147.69901,876.09247,-731.22351,-106.8632,849.65234
38,0.308,-776.41309,-98.9884,977.95978,-787.99243,-146.10207,876.81958,-725.3631,-106.14174,849.43359
39,0.317,-768.04572,-96.66443,978.06812,-782.1532,-144.21912,876.36951,-720.76141,-103.41114,848.81049
40,0.325,-765.63159,-96.13881,976.89374,-776.28497,-142.69601,876.64008,-715.31824,-101.469,850.15796
41,0.333,-758.23956,-93.17754,976.87311,-772.19312,-141.07567,877.15485,-709.57574,-99.40765,850.35535
42,0.342,-751.13702,-90.48489,976.33368,-766.58112,-139.62265,878.79498,-705.76666,-98.07085,850.00641
43,0.35,-745.67035,-90.57407,978.20959,-759.94122,-135.75354,878.86139,-700.28156,-95.08733,850.28235
44,0.358,-738.79742,-87.65137,979.69678,-756.38104,-135.27213,880.47925,-694.46136,-93.64163,849.99841
45,0.367,-732.71228,-85.22932,979.98328,-751.9671,-133.96542,882.90765,-690.10626,-91.80629,850.83868
46,0.375,-727.69855,-84.79141,981.40369,-746.45251,-131.43735,883.8764,-686.29694,-91.38384,852.5611
47,0.383,-720.63361,-82.64174,981.6286,-740.74988,-129.54242,884.2818,-679.5351,-88.61057,853.0575
48,0.392,-715.62506,-81.24337,983.12476,-737.09912,-127.33968,885.57703,-675.43268,-87.06897,853.68341
49,0.4,-709.77075,-79.67531,984.09625,-731.34943,-125.66251,886.62128,-671.35028,-85.52186,854.08301
50,0.408,-704.56189,-79.21944,986.36511,-726.02185,-124.26154,887.2226,-666.14465,-83.9026,854.74847
51,0.417,-699.17664,-76.47805,986.72137,-723.04156,-122.30108,887.6701,-661.18561,-83.45368,855.62286
52,0.425,-693.64423,-74.60391,986.07489,-717.77582,-120.36141,888.59058,-656.4519,-81.60602,856.56158
53,0.433,-689.85156,-73.79671,987.08063,-712.47583,-118.75828,888.78589,-651.3988,-80.50938,857.27802
54,0.442,-683.31671,-71.26058,988.17133,-707.9259,-116.78289,889.31232,-647.63379,-79.06301,858.3714
55,0.45,-679.08618,-70.55456,988.20862,-703.60181,-115.28325,889.61243,-641.98883,-78.52789,857.97772
56,0.458,-674.42188,-68.0478,988.97479,-698.68744,-113.5969,890.7702,-636.53766,-76.98563,858.65234
57,0.467,-669.84955,-69.24925,989.27582,-692.72479,-111.42824,890.51434,-632.41998,-75.94915,860.04645
58,0.475,-663.06952,-65.57825,989.21722,-689.2793,-109.34161,890.2146,-627.58771,-74.007,859.08936
59,0.483,-659.2381,-66.6585,990.50891,-684.68066,-108.83812,891.02307,-622.315,-73.40297,859.44763
60,0.492,-653.54974,-63.30309,991.12286,-679.41559,-107.59669,891.91925,-616.93158,-72.43222,859.57788
61,0.5,-648.59839,-64.89119,991.80414,-675.30292,-106.32795,892.31964,-611.67163,-71.74993,860.2345
62,0.508,-641.58643,-61.74399,991.26947,-669.97321,-105.03279,892.75592,-607.44855,-69.2476,860.94464
63,0.517,-638.22021,-62.00318,991.59796,-665.13934,-102.93364,892.02026,-602.58984,-68.89114,860.8075
64,0.525,-631.85889,-59.72064,991.28394,-660.09198,-102.5342,893.42651,-596.66327,-67.85983,860.88721
65,0.533,-628.53546,-59.08447,992.78705,-653.99432,-101.50032,893.43658,-591.60303,-65.53378,860.77295
66,0.542,-621.41309,-57.18457,992.45569,-650.31616,-100.26108,894.00427,-588.47736,-65.43345,861.72595
67,0.55,-616.74377,-56.75885,992.41638,-645.55969,-97.87058,893.99548,-581.70319,-63.15858,861.80542
68,0.558,-610.71393,-55.46162,993.07306,-641.2113,-98.42964,894.22021,-576.79657,-63.1055,861.52887
69,0.567,-605.38922,-56.38908,993.54944,-635.92792,-97.35229,894.4859,-571.01544,-62.48574,861.21606
70,0.575,-599.54022,-54.31231,993.7785,-629.70721,-97.04712,894.12439,-567.62054,-60.90705,861.3147
71,0.583,-595.46198,-52.40262,993.8811,-625.79486,-95.79163,894.82587,-561.41779,-60.80509,860.96637
72,0.592,-589.71497,-50.75687,992.98816,-620.82562,-94.05209,895.17932,-555.28302,-60.53923,862.32251
73,0.6,-583.91272,-50.34235,993.90778,-615.61682,-93.32148,894.71155,-549.05951,-58.99006,863.21423
74,0.608,-578.37421,-49.72031,993.92535,-609.20947,-93.08479,893.73749,-544.98389,-58.59883,861.28979
75,0.617,-572.76013,-49.36038,992.39539,-603.3172,-91.8565,893.45563,-541.16217,-56.27934,859.38135
76,0.625,-567.10321,-49.62505,991.70123,-598.07233,-91.07945,893.50763,-536.0589,-55.91016,858.92371
77,0.633,-560.76978,-51.09651,990.9632,-592.38184,-89.44687,892.28662,-529.24176,-55.42026,857.69708
78,0.642,-554.18164,-50.80412,990.72266,-588.57935,-89.88974,891.66376,-524.01129,-56.02039,857.34979
79,0.65,-547.39856,-48.79974,990.06738,-581.64307,-87.82323,890.28839,-517.46576,-56.3635,856.14667
80,0.658,-542.42822,-48.65192,988.50964,-576.37549,-88.16738,890.05798,-512.10211,-56.35408,855.99554
81,0.667,-537.50964,-48.43541,988.3844,-570.08679,-87.61964,888.59167,-506.2218,-54.91884,855.33032
82,0.675,-531.57617,-47.80301,986.60144,-564.63104,-89.40956,888.65094,-499.74817,-54.95273,853.58209
83,0.683,-524.91736,-46.17779,985.1731,-558.18781,-87.71034,887.74316,-493.95749,-53.71029,853.37024
84,0.692,-519.14764,-48.46347,984.76959,-552.94373,-87.74731,886.25458,-487.1947,-54.1786,852.93652
85,0.7,-511.31274,-48.20285,983.33844,-546.06073,-86.83522,885.57709,-482.05881,-52.51345,851.51447
86,0.708,-504.85248,-47.51508,981.49152,-539.55786,-88.17786,884.76715,-475.26053,-55.3219,850.09839
87,0.717,-498.96738,-47.0653,981.26349,-533.20422,-86.67805,883.2818,-468.71875,-54.08237,849.23669
88,0.725,-490.72647,-47.01957,980.29327,-526.55084,-85.81235,881.57422,-461.69461,-54.10758,846.69604
89,0.733,-485.60602,-47.25569,978.77844,-519.92578,-86.7912,880.51019,-455.25525,-53.755,845.46002
90,0.742,-477.8717,-48.76246,978.22717,-512.91364,-86.10905,879.21863,-449.16693,-54.32053,845.23401
91,0.75,-471.28021,-48.75214,976.36047,-505.90305,-87.71291,878.06256,-441.68991,-53.89067,842.58588
92,0.758,-465.01801,-48.17702,974.20313,-497.64951,-88.03889,876.7616,-435.46768,-54.56048,841.59717
93,0.767,-455.86255,-50.46974,972.92401,-490.37292,-88.57209,875.95251,-428.32339,-54.04832,839.6781
94,0.775,-449.39108,-49.02312,972.08337,-484.01685,-87.45874,873.01428,-421.33331,-53.02459,838.48828
95,0.783,-442.72595,-49.53486,970.31122,-477.02335,-87.91998,871.82074,-414.09436,-53.67549,837.72876
96,0.792,-434.00043,-49.74216,968.6839,-469.22458,-88.54089,869.58453,-404.57898,-55.27398,835.98145
97,0.8,-426.3826,-52.72363,968.31622,-461.36771,-88.77228,868.61029,-398.95108,-54.75185,833.82855
98,0.808,-419.47168,-51.15353,965.67542,-453.85284,-90.61958,867.37775,-390.94019,-53.75333,832.14227
99,0.817,-410.71359,-54.36531,964.65778,-446.50308,-90.03712,864.5719,-384.17093,-56.64034,830.71985
100,0.825,-402.55939,-54.02823,962.69489,-438.02109,-91.32367,863.49768,-375.72482,-56.14159,828.57086
101,0.833,-395.84946,-54.47055,960.93329,-430.31454,-93.26283,861.84155,-367.22311,-56.78132,828.19092
102,0.842,-386.98059,-56.0464,960.27637,-421.22488,-94.27261,860.92877,-359.56369,-58.95478,826.98657
103,0.85,-379.35593,-57.29758,958.35773,-413.45007,-94.54501,860.01465,-351.24075,-58.95091,825.16217
104,0.858,-370.37085,-57.12934,957.98053,-405.01266,-95.69791,858.71649,-341.5834,-59.69653,824.39081
105,0.867,-361.45074,-59.83008,957.85187,-395.72958,-96.43335,858.21356,-334.81015,-61.06198,823.62982
106,0.875,-353.31439,-58.91836,956.74774,-388.08328,-97.81906,857.36688,-325.29501,-61.41045,822.84674
107,0.883,-346.01749,-61.78093,956.39514,-378.99506,-98.56953,856.61475,-315.55209,-61.67567,822.29242
108,0.892,-336.34439,-62.68393,956.97351,-371.97064,-100.79806,856.84644,-308.45593,-63.04825,821.75055
109,0.9,-327.53262,-63.7605,956.37714,-363.03452,-100.13718,857.41962,-298.75964,-65.92504,823.25299
110,0.908,-317.65256,-64.76414,956.94885,-353.74353,-102.634,858.60889,-290.71808,-65.53577,823.27856
111,0.917,-309.91022,-66.17036,957.64752,-343.99014,-104.23711,858.16968,-281.84753,-67.46524,824.56366
112,0.925,-301.66541,-66.74731,959.06635,-334.83194,-104.23799,858.9931,-273.17273,-67.74052,825.69965
113,0.933,-292.02423,-70.40115,961.39746,-325.71683,-106.27217,860.89551,-263.81973,-70.41261,827.01691
114,0.942,-283.09796,-70.28208,962.03149,-316.66605,-107.53971,862.17853,-253.90514,-70.79417,827.88116
115,0.95,-274.74167,-72.48514,962.99976,-307.18527,-110.50504,864.72571,-244.435,-73.87504,829.32776
116,0.958,-265.05582,-74.28964,964.7204,-299.58615,-109.83568,864.06482,-236.74947,-73.92737,830.03516
117,0.967,-256.51532,-75.96463,966.19061,-289.19431,-112.99344,865.37604,-225.66026,-74.3457,832.26666
118,0.975,-247.73732,-77.13612,967.18268,-279.3627,-115.63949,867.54138,-216.511,-78.2048,833.57477
119,0.983,-238.80267,-79.31536,967.89465,-269.12756,-115.51648,867.53674,-207.13589,-78.73257,835.2168
120,0.992,-229.16139,-80.59914,968.71765,-260.21939,-117.40656,868.01031,-197.524,-80.26725,835.93384
121,1,-220.52507,-82.63514,969.73224,-250.41432,-118.61078,868.94403,-188.87384,-81.84348,836.27173
122,1.008,-210.54485,-84.97827,971.45728,-240.37337,-122.19162,870.0542,-178.32413,-83.07881,837.68286
123,1.017,-201.57356,-85.94987,971.34528,-230.41338,-125.46135,869.80212,-167.35187,-85.33158,838.68903
124,1.025,-191.75612,-87.66913,970.85724,-220.17186,-125.9506,870.8504,-158.62346,-86.02251,839.19006
125,1.033,-182.422,-90.25946,972.44244,-208.61633,-127.89879,871.54755,-147.68607,-87.85339,840.30377
126,1.042,-172.97818,-91.96033,972.29761,-198.93561,-129.85915,871.29797,-137.30667,-89.20227,840.78827
127,1.05,-162.44785,-94.38207,973.40265,-189.20888,-130.98013,871.29431,-128.31639,-90.15878,841.2627
128,1.058,-153.3503,-94.75729,974.6925,-178.07878,-135.31755,873.17206,-118.18231,-92.56504,841.81488
129,1.067,-143.35599,-97.32245,974.49426,-168.09995,-136.04373,872.81097,-107.17279,-93.30676,843.52661
130,1.075,-133.42076,-98.56168,975.15283,-157.7025,-136.80078,873.63623,-97.24745,-95.26627,843.42957
131,1.083,-121.03294,-100.62816,975.57416,-145.49001,-138.98752,874.41132,-87.14581,-96.09781,844.53638
132,1.092,-112.41834,-101.75568,975.80328,-133.37959,-143.12808,875.74854,-75.55384,-96.48933,845.62579
133,1.1,-104.25801,-101.35072,977.00031,-124.31346,-143.91653,876.63922,-66.14631,-98.14496,845.90472
134,1.108,-95.2043,-103.38522,976.86761,-114.83128,-144.84464,876.18842,-55.60323,-99.71955,847.54871
135,1.117,-87.23,-103.87246,976.9848,-103.52222,-146.55679,877.79218,-45.52959,-101.21439,848.37555
136,1.125,-78.714,-104.78873,978.47058,-94.85674,-147.54454,878.58484,-35.76653,-102.78978,849.92212
137,1.133,-69.56824,-106.07586,978.70441,-85.01174,-148.99237,879.62207,-25.13476,-103.63467,851.06421
138,1.142,-60.87704,-107.90025,979.58502,-75.47807,-149.08722,879.80615,-15.76962,-104.69468,851.99585
139,1.15,-48.89204,-108.78011,981.83594,-65.0023,-150.59621,881.09406,-5.73351,-106.59438,853.05035
140,1.158,-40.07189,-110.87876,981.91022,-54.31964,-152.71263,881.30695,3.63962,-108.23386,853.69067
141,1.167,-30.70394,-111.52612,983.96985,-46.01557,-153.22685,882.27789,15.62051,-108.17508,856.88257
142,1.175,-22.50897,-113.71771,984.40967,-33.80062,-156.78035,883.80493,25.98356,-110.25779,856.84167
143,1.183,-12.9433,-113.81927,984.44159,-26.38042,-155.54117,883.80457,34.7055,-110.9756,857.73535
144,1.192,-3.79068,-114.57689,986.22321,-15.80727,-157.79288,884.35803,44.87152,-112.65927,859.35437
145,1.2,5.8309,-116.79465,986.91913,-5.56668,-158.15753,884.84198,54.65078,-114.28259,859.72339
146,1.208,14.54252,-117.65105,987.21832,4.15363,-159.22699,884.19281,65.13925,-115.44181,861.03204
147,1.217,23.60603,-118.83535,987.5954,14.07728,-161.91342,885.94061,74.70528,-115.54928,861.27435
148,1.225,33.25687,-118.54445,987.854,24.19165,-161.27887,886.91608,84.35175,-116.30059,861.82739
149,1.233,40.495,-119.74973,987.29376,33.70848,-163.22519,886.80438,93.79647,-117.74488,862.888
150,1.242,49.30392,-120.18584,989.15216,44.90737,-163.09941,886.72034,103.37542,-118.92304,863.39453
151,1.25,58.65985,-120.52427,988.86462,52.28089,-164.69797,886.6853,113.68548,-118.79112,863.88092
152,1.258,66.69261,-120.85316,988.53955,62.89053,-164.26297,887.26868,123.01524,-119.91508,864.71497
153,1.267,75.11023,-121.91203,988.60284,71.21632,-166.05231,886.89423,131.62312,-120.55577,865.00012
154,1.275,83.6134,-122.8633,988.67987,80.44913,-166.42975,887.5462,141.06262,-121.15392,865.37805
155,1.283,90.9483,-122.05356,988.25946,89.39924,-167.23056,887.79102,150.13092,-120.77959,865.86322
156,1.292,100.18833,-122.812,988.99066,98.85601,-167.20749,888.14545,158.8708,-121.64937,865.94708
157,1.3,108.40553,-123.18989,988.88293,107.23409,-168.42233,887.09729,167.8329,-121.627,866.26807
158,1.308,116.22909,-123.54037,987.82007,115.50761,-167.78806,886.99829,176.50215,-122.45122,866.2384
159,1.317,124.13213,-123.9583,987.8949,124.44666,-168.33839,887.18488,185.54608,-122.26328,866.46954
160,1.325,131.75011,-123.62812,987.60565,132.21576,-169.97362,887.19061,193.54521,-122.38056,866.39954
161,1.333,139.32829,-124.23114,987.1676,140.71935,-169.90851,887.10571,201.19086,-123.23266,866.42456
162,1.342,147.35188,-123.79759,987.23877,148.86671,-169.32991,886.46649,209.30879,-123.18604,865.88287
163,1.35,155.53528,-124.03534,985.98651,156.50122,-169.38161,885.35376,217.8325,-122.65405,865.23492
164,1.358,161.42416,-124.35829,985.4046,165.3136,-169.30002,884.94757,225.60915,-123.25674,865.64545
165,1.367,170.19305,-124.60192,985.82813,172.86812,-168.78412,884.383,232.63713,-122.40517,864.65515
166,1.375,178.0878,-123.70527,984.34174,179.53474,-169.61647,883.71808,239.87183,-121.76786,864.34296
167,1.383,185.69276,-123.6496,984.12872,186.6881,-169.2112,883.18195,248.09869,-123.12691,863.0647
168,1.392,192.57227,-123.2481,983.58026,194.19673,-168.73665,882.62311,255.08875,-122.35134,862.83557
169,1.4,199.36217,-122.00246,982.78632,200.52747,-168.70818,881.98151,262.67349,-121.61722,862.38965
170,1.408,206.67197,-122.63991,981.40564,207.741,-166.77811,880.98438,268.67041,-121.95235,860.94739
171,1.417,213.33676,-122.93085,980.62604,214.10738,-167.39061,879.8396,275.38824,-121.78505,860.30115
172,1.425,221.16055,-121.31191,979.54749,220.19901,-167.55168,879.38989,281.50967,-121.74118,858.78943
173,1.433,227.20592,-120.70984,978.39465,227.42949,-166.38747,878.93341,289.22296,-121.2401,857.14215
174,1.442,235.30232,-119.58518,977.57941,233.79341,-165.10258,878.0415,295.00485,-121.1076,856.17358
175,1.45,242.85431,-119.21614,977.36182,238.98756,-163.22295,875.375,301.4924,-120.93396,855.01819
176,1.458,249.5907,-117.67769,977.10333,244.78966,-163.62103,875.49799,307.95343,-120.30907,853.75995
177,1.467,256.67642,-117.07858,975.66217,252.11917,-164.01877,875.55688,313.25208,-119.43393,853.18933
178,1.475,262.45419,-116.94553,975.61462,257.30594,-162.16232,875.47705,320.45285,-118.49861,851.84442
179,1.483,270.03354,-114.71597,974.9707,263.81561,-161.50444,876.75104,324.74637,-118.32327,850.8006
180,1.492,277.34598,-113.17806,975.73541,269.03922,-161.53754,876.83911,329.73642,-117.35412,850.46765
181,1.5,284.04568,-111.71346,976.89209,273.42657,-158.51755,875.76776,335.51953,-115.88879,850.38074
182,1.508,288.61862,-110.29079,976.86011,279.81281,-158.13489,877.42938,339.69873,-114.83302,849.90308
183,1.517,295.91608,-109.43263,976.92194,283.44775,-156.98395,878.39941,344.35117,-113.57865,850.19489
184,1.525,302.03592,-107.31244,978.25116,288.20801,-155.85445,877.83643,349.71808,-113.04591,851.10498
185,1.533,308.01978,-107.46001,979.21606,292.82303,-154.64319,879.52356,354.39822,-111.48841,850.35181
186,1.542,314.09534,-106.05488,979.63696,297.96179,-154.01945,880.96289,358.91068,-110.02814,850.4411
187,1.55,319.0293,-105.46372,980.84656,301.23013,-152.07515,880.6214,363.05817,-109.43222,850.04333
188,1.558,324.74948,-105.55885,980.80927,307.90829,-151.48315,881.21033,367.37027,-108.44118,850.95856
189,1.567,329.02814,-104.69247,980.66388,311.51373,-149.90855,881.58838,372.2916,-107.88987,851.37128
190,1.575,336.2081,-104.105,981.39221,316.55328,-149.83215,882.28528,376.72552,-107.64613,852.13123
191,1.583,340.16904,-102.71364,981.31793,320.29083,-148.49432,882.38989,381.53207,-107.34875,851.75818
192,1.592,345.31741,-102.68276,981.98248,324.79422,-148.73381,882.77136,386.04199,-107.20499,850.85791
193,1.6,350.94336,-101.64297,981.59167,329.03409,-146.6478,882.60773,390.32739,-105.53286,850.64471
194,1.608,355.59131,-101.21404,982.29059,333.991,-146.02643,882.92255,394.56302,-105.11617,850.48608
195,1.617,361.13129,-101.25853,983.0036,337.72861,-144.37694,882.70685,399.3884,-104.34969,851.15637
