Frame#,Time,R.Forearm.x,R.Forearm.y,R.Forearm.z,R.Ulna.x,R.Ulna.y,R.Ulna.z,R.Radius.x,R.Radius.y,R.Radius.z
1,0,-73.18614,-216.14665,696.23584,-14.3225,-198.57098,569.36328,58.57592,-146.39104,642.44208
2,0.008,-73.43713,-215.87836,696.46466,-14.51759,-198.98238,569.43854,57.09822,-145.40643,642.22119
3,0.017,-73.48872,-215.67807,696.53174,-14.42463,-199.64726,569.94525,57.09822,-145.40643,642.22119
4,0.025,-73.46982,-215.49643,696.65149,-13.76843,-200.09883,570.80273,56.58154,-145.57475,642.27655
5,0.033,-73.78516,-215.41846,696.63696,-14.09896,-199.55865,570.39398,56.21529,-145.54457,642.55707
6,0.042,-73.93161,-215.26686,696.59546,-14.09896,-199.55865,570.39398,55.80884,-145.23721,642.78369
7,0.05,-74.03825,-215.13663,696.49298,-14.81615,-198.92496,570.70728,56.18916,-145.5822,642.8573
8,0.058,-74.05713,-215.31831,696.37317,-15.13141,-198.61954,569.93481,56.78978,-145.94785,643.09674
9,0.067,-74.25336,-215.24623,696.20569,-15.72857,-198.54179,570.36908,56.07693,-145.55122,643.03088
10,0.075,-74.05713,-215.31831,696.37317,-15.5752,-197.87088,570.06805,56.78477,-146.0386,643.15631
11,0.083,-74.1859,-216.01852,695.98132,-15.74836,-198.38916,569.87146,55.90392,-145.53973,643.02808
12,0.092,-74.23575,-216.40637,695.74017,-15.88742,-198.62125,569.73773,56.19206,-145.9395,642.6264
13,0.1,-74.52866,-216.85823,695.71155,-16.10785,-198.47922,569.46869,58.65146,-145.82004,643.73712
14,0.108,-74.60361,-217.0356,695.88782,-16.37046,-198.58066,569.10559,58.65146,-145.82004,643.73712
15,0.117,-74.85932,-216.71283,695.63263,-16.7598,-198.44534,569.06665,58.85544,-145.82037,643.71692
16,0.125,-74.57899,-216.91701,695.77411,-16.7598,-198.44534,569.06665,58.48846,-143.65881,642.92499
17,0.133,-74.57899,-216.91701,695.77411,-16.37046,-198.58066,569.10559,58.82529,-144.10135,642.7724
18,0.142,-74.12514,-216.96584,695.49139,-16.37046,-198.58066,569.10559,59.12357,-143.95065,642.74072
19,0.15,-73.53522,-217.8327,695.45099,-15.85859,-198.64697,568.73334,59.18005,-143.76379,642.5694
20,0.158,-73.53522,-217.8327,695.45099,-15.5529,-198.80016,568.94037,59.55044,-143.67125,642.47803
21,0.167,-72.83077,-217.88049,695.6922,-15.40123,-198.8412,569.06531,59.40831,-143.46982,642.15729
22,0.175,-72.20208,-217.55655,695.53009,-15.15632,-198.35443,569.06433,59.52425,-141.97511,641.70074
23,0.183,-72.45358,-217.64473,695.75842,-14.98376,-198.03636,569.13818,58.76978,-146.47215,642.32727
24,0.192,-72.44049,-216.69608,695.74451,-14.98376,-198.03636,569.13818,58.57592,-146.39104,642.44208
25,0.2,-72.39486,-216.4856,695.83453,-14.34637,-198.33315,569.6698,58.5571,-146.43065,642.72894
26,0.208,-72.81229,-215.98006,696.35736,-14.09038,-199.00407,570.00378,58.73989,-146.09172,642.93512
27,0.217,-72.8783,-215.77362,696.42108,-13.48099,-199.2822,570.31165,57.76128,-145.52322,642.70605
28,0.225,-72.36174,-215.43489,697.20258,-13.23452,-199.32695,570.65363,57.76128,-145.52322,642.70605
29,0.233,-72.77135,-215.44293,697.64264,-13.24802,-199.65831,571.21967,57.51358,-145.11479,642.67273
30,0.242,-72.60867,-215.64142,698.33142,-13.24314,-199.73846,571.51642,57.86249,-145.53398,642.42761
31,0.25,-72.60867,-215.64142,698.33142,-13.25221,-199.18576,571.51501,57.85473,-145.00746,642.33154
32,0.258,-72.60867,-215.64142,698.33142,-13.61406,-198.76309,571.38135,57.26806,-144.67624,643.01599
33,0.267,-72.77135,-215.44293,697.64264,-13.65544,-198.50377,571.15552,57.4531,-144.71852,642.91479
34,0.275,-72.77135,-215.44293,697.64264,-14.37321,-198.34647,571.02655,57.48244,-145.31155,643.03247
35,0.283,-72.87167,-215.33885,697.15887,-14.37321,-198.34647,571.02655,57.73011,-145.71996,643.06573
36,0.292,-72.86289,-215.59465,696.54388,-14.96215,-197.85672,570.59778,57.74973,-146.20477,643.15033
37,0.3,-72.81229,-215.98006,696.35736,-15.3355,-197.56967,569.96741,57.74973,-146.20477,643.15033
38,0.308,-72.81229,-215.98006,696.35736,-15.02848,-197.74197,570.24524,59.22335,-147.48627,643.76477
39,0.317,-72.52289,-216.2394,696.09924,-15.03685,-197.6087,569.75018,59.43064,-147.2659,643.86365
40,0.325,-72.39629,-216.31271,695.99054,-15.3355,-197.56967,569.96741,60.05635,-145.65135,643.83856
41,0.333,-72.22629,-216.51183,695.74158,-15.03685,-197.6087,569.75018,58.62522,-142.4229,642.69928
42,0.342,-71.99969,-216.61218,695.92987,-14.95606,-198.05511,569.36176,58.54341,-142.1456,642.3526
43,0.35,-71.90531,-216.53745,695.79803,-14.95606,-198.05511,569.36176,58.79807,-142.5815,641.79102
44,0.358,-71.16872,-217.64932,696.09039,-14.53296,-198.18976,569.35468,60.377,-142.61778,642.22388
45,0.367,-71.02186,-217.67462,696.20599,-14.53296,-198.18976,569.35468,59.14504,-144.12209,642.37915
46,0.375,-70.66439,-217.45215,696.35535,-13.99062,-198.06863,569.66528,57.02434,-142.55867,641.34998
47,0.383,-70.28031,-217.39188,696.47357,-12.90421,-197.911,570.42004,56.68019,-140.78967,640.9173
48,0.392,-69.3632,-216.12587,696.44049,-12.31303,-198.31909,570.45844,56.87885,-140.55571,640.32013
49,0.4,-69.0141,-215.31683,697.06824,-11.58775,-198.29152,571.04071,57.70708,-140.65067,641.07568
50,0.408,-69.50464,-214.15044,697.59375,-11.58775,-198.29152,571.04071,57.69122,-140.45366,641.13055
51,0.417,-69.21824,-214.08913,698.0094,-11.58775,-198.29152,571.04071,58.58986,-141.52554,641.34186
52,0.425,-69.32968,-213.68497,698.14905,-11.17565,-198.8036,571.76953,58.89786,-142.00957,642.40735
53,0.433,-69.78957,-213.08548,698.20398,-11.36181,-199.18449,571.80963,59.01089,-142.53177,642.54608
54,0.442,-69.95813,-213.05919,698.297,-11.17565,-198.8036,571.76953,58.78127,-142.09763,642.11407
55,0.45,-69.95813,-213.05919,698.297,-11.17565,-198.8036,571.76953,58.7548,-140.92603,642.03412
56,0.458,-69.95813,-213.05919,698.297,-11.40249,-198.76971,571.89252,58.36536,-140.67551,641.91248
57,0.467,-70.25818,-212.94067,698.1087,-11.04219,-197.66951,572.28503,58.58132,-140.87726,642.39905
58,0.475,-70.25818,-212.94067,698.1087,-11.41994,-197.74493,571.96155,58.36536,-140.67551,641.91248
59,0.483,-70.25818,-212.94067,698.1087,-11.57282,-197.62732,571.49762,57.91697,-140.50519,641.84448
60,0.492,-70.25818,-212.94067,698.1087,-11.93472,-197.20464,571.36395,58.21774,-141.04991,642.20868
61,0.5,-70.44534,-213.26353,698.21625,-12.30061,-197.03745,571.17908,58.69937,-142.24663,642.54065
62,0.508,-70.45226,-213.70802,697.9873,-12.64917,-196.28348,570.47913,58.52917,-142.77728,642.0462
63,0.517,-70.26453,-213.70461,697.78705,-13.07245,-196.14853,570.48633,58.20311,-142.52597,641.87476
64,0.525,-70.12335,-213.56638,697.01099,-13.07245,-196.14853,570.48633,59.6784,-143.88725,642.54462
65,0.533,-69.99682,-213.63988,696.90234,-13.31483,-194.79567,569.88837,59.72129,-144.82594,642.5318
66,0.542,-69.99682,-213.63988,696.90234,-13.10248,-194.79286,569.62659,60.00866,-145.6102,642.35736
67,0.55,-69.90188,-214.16791,696.34473,-13.31483,-194.79567,569.88837,59.89757,-145.02219,642.38635
68,0.558,-69.46916,-214.46791,696.30078,-13.87605,-197.21068,569.97858,60.03625,-144.93874,642.26959
69,0.567,-69.1808,-214.50928,696.1842,-13.1269,-197.25754,570.42041,60.05405,-144.63681,642.02075
70,0.575,-69.00788,-214.67892,696.23798,-13.1269,-197.25754,570.42041,58.78384,-143.72232,641.30634
71,0.583,-68.69831,-215.54243,696.47375,-13.26635,-197.48921,570.28674,60.05405,-144.63681,642.02075
72,0.592,-68.49081,-215.1122,696.34113,-12.48218,-197.68163,570.82306,60.13955,-145.54031,642.56683
73,0.6,-69.04021,-214.29648,696.99249,-11.89339,-198.13835,570.83374,61.07866,-146.34438,642.98938
74,0.608,-69.21824,-214.08913,698.0094,-11.5826,-198.37738,571.35895,60.14796,-145.5081,642.22687
75,0.617,-69.21824,-214.08913,698.0094,-11.54132,-198.63672,571.58484,58.459,-143.99268,641.81818
76,0.625,-69.97312,-213.92448,698.36627,-11.72742,-199.01765,571.625,58.97426,-143.58736,642.59436
77,0.633,-70.238,-214.13853,698.62482,-11.36181,-199.18449,571.80963,58.68966,-142.44221,642.80011
78,0.642,-70.238,-214.13853,698.62482,-11.36181,-199.18449,571.80963,58.78366,-142.03455,642.90808
79,0.65,-70.75432,-213.49918,698.57184,-11.86456,-199.0255,573.03174,58.32804,-141.49185,642.56055
80,0.658,-70.99107,-213.6033,698.60022,-11.61376,-199.07892,572.74335,58.78592,-139.57343,642.63464
81,0.667,-71.22224,-214.59753,698.77899,-11.61376,-199.07892,572.74335,58.84681,-139.82095,643.57611
82,0.675,-71.22224,-214.59753,698.77899,-11.9193,-198.92551,572.5365,58.74657,-140.19417,643.52063
83,0.683,-71.46275,-214.18561,698.75281,-12.57393,-198.7997,572.45428,58.71211,-140.50987,643.3299
84,0.692,-71.45896,-214.70174,698.80743,-12.94027,-198.62506,571.95508,58.71211,-140.50987,643.3299
85,0.7,-71.45896,-214.70174,698.80743,-13.8948,-197.683,571.29358,58.96502,-141.52577,643.4339
86,0.708,-71.72214,-215.17804,698.79352,-14.37321,-198.34647,571.02655,58.749,-141.4682,643.23932
87,0.717,-72.01849,-215.61188,698.60315,-14.37321,-198.34647,571.02655,58.41214,-142.05231,643.30225
88,0.725,-72.23861,-215.62787,697.87408,-15.32838,-197.68413,570.39166,58.22261,-142.79852,643.27112
89,0.733,-72.27143,-215.5656,697.65118,-15.32314,-197.77025,570.7099,58.41802,-144.30225,643.84027
90,0.742,-72.08016,-216.13551,697.02246,-15.63421,-197.53093,570.18463,59.78019,-145.13976,643.84442
91,0.75,-72.48697,-216.0544,696.71698,-15.63421,-197.53093,570.18463,60.05397,-145.34392,643.95978
92,0.758,-72.30862,-216.11456,696.40985,-15.63421,-197.53093,570.18463,60.18716,-145.10522,643.75403
93,0.767,-72.08195,-216.21507,696.59808,-15.63421,-197.53093,570.18463,58.35786,-141.17755,642.27997
94,0.775,-72.07502,-216.15077,696.41852,-15.63421,-197.53093,570.18463,59.74073,-140.87143,641.89978
95,0.783,-72.04366,-216.32336,696.34406,-15.32838,-197.68413,570.39166,58.98453,-142.97003,642.68427
96,0.792,-71.69228,-216.1591,696.74255,-14.96215,-197.85672,570.59778,58.67413,-142.70169,641.99463
97,0.8,-71.63358,-216.08398,697.20367,-14.37321,-198.34647,571.02655,58.85368,-142.60077,642.38959
98,0.808,-71.84754,-215.51559,698.0036,-14.01756,-198.082,571.02228,58.65687,-141.15845,642.02374
99,0.817,-71.45896,-214.70174,698.80743,-13.65544,-198.50377,571.15552,58.31231,-140.42052,641.94226
100,0.825,-71.45896,-214.70174,698.80743,-12.70494,-199.41565,571.71777,58.75914,-140.73109,642.52441
101,0.833,-71.45896,-214.70174,698.80743,-12.70494,-199.41565,571.71777,58.8819,-140.88434,642.6015
102,0.842,-71.45896,-214.70174,698.80743,-12.63429,-200.17496,571.9043,58.49002,-139.78508,642.41827
103,0.85,-71.46275,-214.18561,698.75281,-13.20773,-200.27457,573.16406,57.55484,-139.91385,643.23871
104,0.858,-71.46275,-214.18561,698.75281,-13.20773,-200.27457,573.16406,56.54824,-139.22379,644.03693
105,0.867,-72.07557,-214.05461,699.0567,-13.32651,-200.18033,573.46686,56.25198,-139.4028,644.07843
106,0.875,-72.24412,-214.02837,699.14978,-13.32651,-200.18033,573.46686,56.25198,-139.4028,644.07843
107,0.883,-72.62234,-213.92786,699.11047,-14.61931,-199.7433,572.98413,56.25198,-139.4028,644.07843
108,0.892,-73.07507,-214.56618,698.83417,-14.98135,-199.32202,572.85107,55.96032,-140.00253,644.22491
109,0.9,-73.29346,-214.45444,698.59186,-15.07496,-198.51797,572.31201,55.67106,-140.73209,644.00793
110,0.908,-73.16025,-215.01434,698.55817,-15.00869,-197.9416,571.78784,55.80923,-141.08055,644.01331
111,0.917,-73.46255,-215.44611,698.37207,-15.6483,-198.0489,571.5415,55.8391,-141.13463,643.91028
112,0.925,-73.46255,-215.44611,698.37207,-15.71206,-197.60428,570.98431,55.57244,-142.19196,643.67365
113,0.933,-73.46255,-215.44611,698.37207,-15.71206,-197.60428,570.98431,55.74914,-142.37833,643.40338
114,0.942,-73.1443,-215.38332,697.646,-16.078,-197.43742,570.79944,57.30962,-143.3327,643.02063
115,0.95,-73.44243,-215.20291,697.16522,-16.03526,-197.67381,570.6405,57.60548,-143.15416,642.97919
116,0.958,-73.21904,-215.3566,696.79272,-15.98046,-197.60133,570.30011,57.65046,-142.15056,641.79858
117,0.967,-73.21904,-215.3566,696.79272,-15.98046,-197.60133,570.30011,57.62886,-142.37347,641.66962
118,0.975,-72.86289,-215.59465,696.54388,-15.98046,-197.60133,570.30011,57.82588,-138.75752,641.18103
119,0.983,-72.37717,-215.61378,697.07977,-15.63421,-197.53093,570.18463,58.26935,-141.58585,641.70276
120,0.992,-72.36174,-215.43489,697.20258,-15.32314,-197.77025,570.7099,58.2575,-141.38139,641.76569
121,1,-72.06184,-215.55299,697.39069,-14.92059,-198.11606,570.82361,58.33534,-140.3092,641.47699
122,1.008,-71.70798,-215.11482,698.52045,-14.01756,-198.082,571.02228,58.5568,-140.54677,642.07318
123,1.017,-71.45896,-214.70174,698.80743,-13.86892,-197.82019,571.12122,58.53394,-139.96809,641.59607
124,1.025,-71.46275,-214.18561,698.75281,-12.19541,-199.24071,571.70459,58.53394,-139.96809,641.59607
125,1.033,-71.46275,-214.18561,698.75281,-12.34412,-199.50233,571.60565,58.65115,-140.2625,642.38812
126,1.042,-71.46275,-214.18561,698.75281,-12.3334,-199.50008,572.41895,58.84681,-139.82095,643.57611
127,1.05,-71.18328,-214.08459,698.93158,-13.26643,-199.93491,573.28082,58.63778,-139.63301,643.16858
128,1.058,-71.23318,-213.83101,698.91864,-12.75985,-199.92552,573.48712,58.30425,-139.4969,643.67694
129,1.067,-71.42002,-214.18881,698.96002,-12.26144,-198.94003,573.66895,57.62309,-138.79114,643.72467
130,1.075,-71.42002,-214.18881,698.96002,-12.41517,-198.56485,573.73694,57.62309,-138.79114,643.72467
131,1.083,-71.42002,-214.18881,698.96002,-12.22877,-197.99022,573.66833,57.62309,-138.79114,643.72467
132,1.092,-71.42002,-214.18881,698.96002,-12.44902,-197.84779,573.39935,57.99422,-139.36638,643.43341
133,1.1,-71.42002,-214.18881,698.96002,-12.75217,-197.76556,573.14917,58.4143,-139.99365,644.5625
134,1.108,-71.46275,-214.18561,698.75281,-12.85461,-197.91096,572.75433,58.57305,-139.7108,644.362
135,1.117,-71.46275,-214.18561,698.75281,-13.57962,-197.28728,571.8974,59.56621,-140.15735,643.71198
136,1.125,-71.46275,-214.18561,698.75281,-13.86573,-197.2542,571.52856,58.96606,-140.8429,643.91486
137,1.133,-71.45896,-214.70174,698.80743,-14.43744,-197.53305,571.38763,58.70262,-140.75415,643.67761
138,1.142,-71.48139,-214.0601,698.25653,-15.01026,-197.26953,570.86462,58.85015,-140.94727,643.07458
139,1.15,-71.87255,-214.82063,697.4389,-15.36584,-197.53387,570.8689,58.85015,-140.94727,643.07458
140,1.158,-72.36174,-215.43489,697.20258,-15.32314,-197.77025,570.7099,58.79563,-141.39938,642.53442
141,1.167,-72.36174,-215.43489,697.20258,-15.32838,-197.68413,570.39166,58.82228,-140.80196,642.27216
142,1.175,-72.36174,-215.43489,697.20258,-15.02848,-197.74197,570.24524,58.82228,-140.80196,642.27216
143,1.183,-72.37999,-216.01743,696.83441,-15.32838,-197.68413,570.39166,58.82043,-142.3224,642.64502
144,1.192,-72.14893,-215.43283,697.11041,-14.96215,-197.85672,570.59778,60.03285,-143.36687,643.05298
145,1.2,-71.6136,-215.28667,697.3866,-14.01756,-198.082,571.02228,58.82043,-142.3224,642.64502
146,1.208,-71.48861,-215.07124,697.4881,-14.01756,-198.082,571.02228,58.48538,-141.13129,641.84521
147,1.217,-71.4448,-214.6385,698.5343,-12.75115,-199.07629,571.19513,59.26863,-142.46129,642.36554
148,1.225,-71.45896,-214.70174,698.80743,-12.34412,-199.50233,571.60565,58.97015,-142.29445,641.737
149,1.233,-71.45896,-214.70174,698.80743,-12.53939,-199.91345,571.6806,59.21646,-142.09518,642.58746
150,1.242,-71.45896,-214.70174,698.80743,-12.59671,-200.89958,572.54907,59.07323,-142.04129,642.93518
151,1.25,-71.46275,-214.18561,698.75281,-12.29358,-201.05777,572.97906,58.25413,-144.26314,643.60254
152,1.258,-71.42002,-214.18881,698.96002,-12.68912,-200.4554,573.21576,58.41861,-143.96158,643.7749
153,1.267,-71.45896,-214.70174,698.80743,-12.98769,-200.41682,573.4328,58.41254,-143.86433,644.12036
154,1.275,-71.41624,-214.70493,699.01459,-12.9998,-200.22652,573.58734,57.89066,-143.43481,644.80743
155,1.283,-71.46275,-214.18561,698.75281,-12.97457,-199.59822,573.31818,58.49396,-143.86867,645.13672
156,1.292,-71.45896,-214.70174,698.80743,-13.21985,-200.08427,573.3186,58.34176,-144.19267,644.96338
157,1.3,-71.54904,-214.75658,699.04834,-12.948,-199.14636,572.6897,58.2163,-142.78137,644.74054
158,1.308,-71.72214,-215.17804,698.79352,-14.52826,-198.55641,571.95135,59.11628,-143.23613,644.76379
159,1.317,-71.90867,-215.36052,698.74316,-14.33179,-198.6058,571.25238,58.3925,-143.2722,644.19452
160,1.325,-72.10093,-215.53516,698.41681,-14.9157,-198.19644,571.12054,58.39512,-144.59607,644.07184
161,1.333,-73.00651,-215.52888,698.26263,-15.36584,-197.53387,570.8689,58.70014,-144.86166,644.23059
162,1.342,-72.9976,-215.40913,697.76172,-15.36584,-197.53387,570.8689,58.44027,-145.21825,644.11084
163,1.35,-73.0392,-215.30765,697.35162,-15.32838,-197.68413,570.39166,59.37828,-145.2574,644.03473
164,1.358,-72.86289,-215.59465,696.54388,-15.63421,-197.53093,570.18463,60.18716,-145.10522,643.75403
165,1.367,-72.8783,-215.77362,696.42108,-15.63421,-197.53093,570.18463,59.92123,-145.41324,643.23804
166,1.375,-72.8783,-215.77362,696.42108,-15.63421,-197.53093,570.18463,60.14399,-145.5275,643.0921
167,1.383,-72.8783,-215.77362,696.42108,-15.63421,-197.53093,570.18463,60.14399,-145.5275,643.0921
168,1.392,-72.8475,-215.41582,696.66675,-14.75739,-198.09053,569.90271,60.14399,-145.5275,643.0921
169,1.4,-72.58016,-215.32353,696.96033,-14.50336,-198.50241,570.44635,60.01945,-146.12219,643.573
170,1.408,-72.60867,-215.64142,698.33142,-14.33519,-199.04071,570.55786,59.79674,-146.00792,643.71881
171,1.417,-72.22987,-215.66696,698.06116,-13.98539,-199.91936,571.38861,59.79674,-146.00792,643.71881
172,1.425,-72.10093,-215.53516,698.41681,-14.08017,-200.18086,571.61237,58.59781,-145.27292,643.73108
173,1.433,-72.57784,-215.69913,698.53723,-14.08017,-200.18086,571.61237,58.44027,-145.21825,644.11084
174,1.442,-72.65825,-215.63301,698.34589,-13.35064,-200.35252,572.02069,58.44027,-145.21825,644.11084
175,1.45,-72.57784,-215.69913,698.53723,-13.35064,-200.35252,572.02069,58.44027,-145.21825,644.11084
176,1.458,-72.57784,-215.69913,698.53723,-13.58706,-200.3616,572.34259,58.72034,-145.4436,644.58704
177,1.467,-72.66792,-215.75395,698.7782,-14.07205,-200.17961,572.24481,58.72034,-145.4436,644.58704
178,1.475,-73.09658,-215.58372,698.5036,-14.07205,-200.17961,572.24481,58.72034,-145.4436,644.58704
179,1.483,-73.00651,-215.52888,698.26263,-13.89772,-200.12267,571.81799,58.44027,-145.21825,644.11084
180,1.492,-72.65825,-215.63301,698.34589,-14.62163,-199.27887,571.55121,58.44027,-145.21825,644.11084
181,1.5,-73.00651,-215.52888,698.26263,-15.11073,-198.60788,571.19556,58.11846,-145.38014,644.1283
182,1.508,-73.00651,-215.52888,698.26263,-15.47652,-198.44106,571.0108,58.13517,-144.95264,643.95203
183,1.517,-73.26484,-215.50148,697.4682,-15.28155,-198.02959,570.93573,58.13517,-144.95264,643.95203
184,1.525,-73.32185,-215.57887,696.93518,-15.63421,-197.53093,570.18463,58.13517,-144.95264,643.95203
185,1.533,-73.52907,-215.45261,696.62085,-15.63421,-197.53093,570.18463,59.49778,-145.79031,643.95624
186,1.542,-73.54442,-215.63164,696.49811,-15.63421,-197.53093,570.18463,59.52051,-145.49632,643.72461
187,1.55,-73.54442,-215.63164,696.49811,-15.63421,-197.53093,570.18463,59.40131,-144.58028,642.67419
188,1.558,-73.47838,-215.83815,696.43433,-15.63421,-197.53093,570.18463,59.40131,-144.58028,642.67419
189,1.567,-73.47838,-215.83815,696.43433,-15.5752,-197.87088,570.06805,59.47717,-144.44608,642.82764
190,1.575,-73.19012,-215.87936,696.31799,-15.5752,-197.87088,570.06805,58.97968,-144.02586,642.83618
191,1.583,-73.25614,-215.67288,696.38171,-15.5752,-197.87088,570.06805,59.35515,-142.08508,641.89447
192,1.592,-73.25614,-215.67288,696.38171,-15.27651,-197.90955,569.85083,59.24473,-143.38089,642.30249
193,1.6,-73.51373,-215.27371,696.74371,-15.27651,-197.90955,569.85083,59.10634,-143.03232,642.29718
194,1.608,-73.51373,-215.27371,696.74371,-14.32666,-198.4859,570.1676,59.10634,-143.03232,642.29718
195,1.617,-73.15636,-214.21066,696.89978,-14.14006,-198.62936,570.48273,57.89513,-141.57848,641.61688
196,1.625,-73.59494,-213.65068,696.8595,-14.50945,-199.09747,570.98492,57.18758,-142.00562,642.21466
197,1.633,-74.0106,-214.36377,696.73529,-14.2526,-199.3288,571.11401,56.86484,-142.63957,641.99078
198,1.642,-74.22301,-214.35875,696.92499,-14.21117,-199.58797,571.33978,56.86484,-142.63957,641.99078
