Frame#,Time,R.Forearm.x,R.Forearm.y,R.Forearm.z,R.Ulna.x,R.Ulna.y,R.Ulna.z,R.Radius.x,R.Radius.y,R.Radius.z
1,0,-1685.88855,-205.59016,967.11865,-1732.39233,-236.99785,888.67242,-1655.87122,-203.32101,862.21912
2,0.008,-1678.97559,-207.39461,965.75159,-1726.5166,-239.02968,888.68396,-1648.80762,-204.52304,863.10242
3,0.017,-1671.70532,-209.48161,966.8772,-1719.92651,-238.91228,888.77356,-1641.44165,-206.79295,860.68738
4,0.025,-1664.69263,-209.47606,964.67645,-1714.35315,-239.89354,889.51935,-1637.20044,-206.40935,859.82184
5,0.033,-1659.32849,-210.25644,965.82758,-1709.25684,-241.3325,889.17841,-1631.86877,-208.4469,859.13208
6,0.042,-1652.15271,-213.20509,967.19873,-1701.48511,-241.49338,887.35077,-1623.57056,-210.98558,859.52246
7,0.05,-1645.47253,-213.14256,964.10455,-1694.53564,-242.27867,887.17957,-1615.56689,-210.99014,857.9577
8,0.058,-1637.93481,-213.45749,962.7373,-1687.73804,-244.26762,886.28583,-1609.12036,-212.56554,858.34204
9,0.067,-1630.80676,-215.67041,962.90277,-1681.72986,-244.32639,885.74115,-1601.95972,-214.69275,857.3739
10,0.075,-1624.47131,-215.02568,962.50299,-1673.84094,-245.56866,884.55908,-1595.00452,-212.94896,856.75598
11,0.083,-1616.63135,-217.47964,959.8775,-1666.72412,-246.80623,883.7345,-1587.54565,-215.96429,853.21735
12,0.092,-1609.07813,-219.66882,960.17621,-1659.61426,-246.826,882.62305,-1580.27527,-214.98763,853.5144
13,0.1,-1600.19727,-219.32117,958.95001,-1650.11206,-247.27496,881.47345,-1571.66455,-215.74361,850.45142
14,0.108,-1592.8374,-221.27551,957.70239,-1643.93225,-248.88342,880.80945,-1563.60535,-218.64064,850.92798
15,0.117,-1583.48633,-221.92374,957.41852,-1633.86414,-249.88812,878.02258,-1555.4917,-219.46248,848.83099
16,0.125,-1576.28137,-221.1284,954.98999,-1625.31519,-250.14449,878.13989,-1548.10913,-218.70689,848.44061
17,0.133,-1567.65332,-224.47917,952.84772,-1616.67505,-250.31763,875.50781,-1536.88269,-221.45328,846.12384
18,0.142,-1557.76013,-222.48486,951.86023,-1608.07861,-252.38026,873.9798,-1529.42041,-220.55873,845.5603
19,0.15,-1549.80701,-225.32364,949.81549,-1600.28735,-252.33896,871.76587,-1521.62622,-221.11781,844.38458
20,0.158,-1539.09949,-224.30779,947.36395,-1590.23218,-253.49623,870.64191,-1510.53394,-221.1757,841.87408
21,0.167,-1531.34741,-225.43335,946.65515,-1579.66211,-253.79565,868.79022,-1502.61694,-222.43604,839.95752
22,0.175,-1524.34387,-227.98015,946.8559,-1570.65283,-254.57236,867.14941,-1491.7373,-221.96021,837.98138
23,0.183,-1511.46973,-228.32062,944.47809,-1563.10461,-255.76302,866.84277,-1483.15344,-222.90552,837.86804
24,0.192,-1504.84119,-228.40678,944.49518,-1550.24011,-256.582,864.88123,-1473.15332,-221.32411,836.56183
25,0.2,-1491.74182,-229.4874,943.78156,-1541.86426,-257.0708,865.62787,-1464.00427,-222.89793,837.5589
26,0.208,-1483.76123,-229.2569,943.82129,-1531.41504,-256.62613,865.42206,-1453.68188,-221.88232,836.30414
27,0.217,-1471.76025,-227.93274,942.84595,-1522.23682,-258.17413,866.05353,-1445.37366,-224.20715,837.08643
28,0.225,-1462.25085,-229.50278,944.96375,-1510.02917,-258.12372,865.37982,-1432.26721,-223.40262,837.64587
29,0.233,-1451.49158,-229.53421,946.05542,-1500.32983,-259.90918,865.4425,-1421.85144,-225.88536,839.03149
30,0.242,-1442.56848,-231.48656,946.22925,-1488.92029,-259.05386,864.67859,-1412.20264,-224.91682,838.14258
31,0.25,-1429.92944,-231.45004,944.85052,-1479.5741,-260.35123,866.19153,-1401.70679,-225.65437,837.85065
32,0.258,-1419.953,-234.45088,945.17505,-1467.53076,-259.07224,865.51251,-1392.36487,-223.61902,838.04675
33,0.267,-1409.77795,-232.57729,944.64673,-1456.78613,-261.03421,864.50299,-1376.98291,-226.10535,840.12335
34,0.275,-1401.21704,-235.93279,946.33649,-1444.39783,-261.47223,865.27002,-1368.91248,-225.37683,840.7793
35,0.283,-1391.15601,-235.66254,944.32153,-1434.18665,-261.78574,864.59961,-1357.70898,-224.03754,839.76953
36,0.292,-1379.95593,-236.11783,944.81201,-1422.66309,-262.46796,863.71088,-1347.19189,-223.09961,840.5647
37,0.3,-1370.37134,-235.61182,945.91626,-1411.09045,-262.5014,863.41101,-1332.5675,-223.72466,841.82434
38,0.308,-1357.2113,-235.95909,947.42212,-1400.20813,-263.4863,864.185,-1323.84277,-222.39716,842.57684
39,0.317,-1346.74109,-235.28813,947.18591,-1388.17529,-263.15521,863.52026,-1312.55542,-222.32796,843.37885
40,0.325,-1336.26563,-236.19632,946.97076,-1375.42578,-264.42276,863.47845,-1301.23047,-220.35971,843.86823
41,0.333,-1328.07422,-235.04005,948.58368,-1365.31165,-263.5654,864.28546,-1289.36865,-221.16333,844.80804
42,0.342,-1315.91028,-234.17464,947.51904,-1353.03418,-263.78717,865.90375,-1278.42529,-220.56059,846.11835
43,0.35,-1305.17908,-233.67155,949.13507,-1342.20251,-263.38034,867.3222,-1267.24634,-218.69849,847.79639
44,0.358,-1293.49536,-233.39851,951.3457,-1331.18835,-263.86093,867.90326,-1255.79004,-217.89233,848.75592
45,0.367,-1283.75635,-232.42329,952.3761,-1319.30164,-263.38654,867.95441,-1244.88184,-218.54523,850.61127
46,0.375,-1273.55811,-232.14499,954.1189,-1307.89734,-263.17401,869.97009,-1233.77319,-217.13361,852.06677
47,0.383,-1263.47559,-230.61859,954.64728,-1297.16675,-262.66904,871.06708,-1223.11707,-214.84198,853.79242
48,0.392,-1254.19006,-230.14082,956.86261,-1286.16541,-262.09299,871.90009,-1213.11572,-213.18338,854.56787
49,0.4,-1243.78699,-230.53259,958.45209,-1275.54822,-261.10284,873.04602,-1200.92651,-214.53902,856.99982
50,0.408,-1233.22559,-231.17984,959.80072,-1264.96924,-260.7428,874.00214,-1190.12012,-212.23161,858.83746
51,0.417,-1223.10718,-229.69276,960.15881,-1255.047,-259.75195,875.04584,-1180.37427,-209.98933,860.02545
52,0.425,-1213.53186,-228.06897,961.85345,-1244.01929,-258.77008,875.81409,-1169.90747,-209.52277,861.77704
53,0.433,-1204.3634,-229.99557,962.54785,-1233.5896,-259.23819,875.88678,-1158.66443,-210.49146,863.27673
54,0.442,-1194.20093,-227.09851,963.44672,-1223.13794,-257.46036,876.35767,-1147.70325,-208.53113,864.29388
55,0.45,-1186.55811,-228.38144,963.81897,-1213.0614,-256.65726,876.0722,-1138.14624,-206.62503,865.41833
56,0.458,-1175.64246,-228.03313,963.69849,-1202.37329,-255.82784,876.38538,-1128.6228,-207.82013,866.65216
57,0.467,-1165.57385,-227.2737,964.06903,-1192.85352,-255.7149,877.43671,-1116.05786,-206.01953,868.25146
58,0.475,-1156.8512,-226.62741,963.87854,-1182.43921,-253.22847,876.88251,-1106.91443,-204.83331,868.36871
59,0.483,-1147.56226,-225.39752,964.29022,-1172.71545,-254.82889,876.36279,-1098.01526,-205.64709,868.96747
60,0.492,-1138.62537,-226.31876,964.46503,-1163.58496,-253.94331,876.81226,-1087.73035,-203.90546,869.22595
61,0.5,-1129.85364,-224.60236,964.55676,-1152.6145,-252.29338,876.77496,-1077.51465,-203.0909,869.95941
62,0.508,-1120.32581,-223.36197,964.35175,-1144.42883,-251.91664,876.49133,-1068.12402,-201.08272,870.73157
63,0.517,-1112.37317,-224.19676,963.89099,-1134.53748,-250.08006,875.85901,-1058.29395,-202.83244,871.22095
64,0.525,-1103.32104,-222.42342,963.69611,-1125.41418,-248.95418,875.45001,-1050.14929,-201.64893,871.46771
65,0.533,-1095.43921,-222.12921,964.17584,-1117.23962,-248.67862,875.7652,-1040.95642,-201.10405,871.04053
66,0.542,-1087.28516,-220.69296,963.55701,-1107.64502,-248.1398,875.25385,-1031.73926,-198.46692,871.02765
67,0.55,-1077.83679,-219.30112,963.39728,-1099.27185,-247.08124,874.45544,-1023.63849,-199.87889,870.75287
68,0.558,-1069.95508,-219.7196,963.22864,-1090.67688,-246.04854,875.16583,-1015.72369,-198.78352,870.57733
69,0.567,-1062.5177,-218.73854,962.60675,-1082.854,-244.63989,874.20941,-1007.08936,-196.51671,870.91156
70,0.575,-1054.07727,-217.77922,962.30121,-1074.49316,-244.20253,874.46741,-999.04407,-195.52585,870.50916
71,0.583,-1046.04956,-215.77156,962.39246,-1067.01917,-242.90163,874.12262,-991.29382,-194.9556,870.32416
72,0.592,-1037.97925,-215.55295,961.40039,-1058.92334,-242.42046,873.21637,-983.98285,-194.96594,870.18933
73,0.6,-1031.06604,-215.69398,961.24359,-1051.46765,-242.62166,873.27869,-975.59882,-193.48575,869.89838
74,0.608,-1023.27405,-213.03026,961.22131,-1043.77759,-240.73643,873.52747,-968.29236,-192.67883,869.29858
75,0.617,-1016.47089,-213.61328,960.32355,-1036.69189,-240.43585,873.13336,-960.82825,-193.19475,868.78033
76,0.625,-1008.64343,-211.69974,960.31476,-1029.21387,-238.95145,872.15839,-953.82843,-192.09982,868.51886
77,0.633,-1004.03717,-210.40878,960.17639,-1023.96362,-238.7962,872.44305,-947.35577,-192.12753,868.52594
78,0.642,-996.8288,-208.80688,960.54004,-1017.14935,-238.44363,873.25891,-941.19598,-191.68112,867.97687
79,0.65,-989.76257,-209.89989,961.76318,-1011.29303,-238.1826,872.87933,-935.16077,-190.86487,867.76105
80,0.658,-983.32288,-208.37477,962.36127,-1005.31744,-236.60202,873.4494,-929.56024,-190.87677,868.13763
81,0.667,-978.61322,-208.00145,962.46234,-1000.52155,-236.25029,874.44427,-922.51123,-189.24596,868.17078
82,0.675,-972.16962,-205.12112,963.42334,-995.49054,-236.0182,876.59418,-918.35748,-191.743,868.2417
83,0.683,-966.88605,-206.07306,964.14844,-989.646,-234.10861,876.76593,-912.20691,-189.81418,869.42572
84,0.692,-960.76062,-204.37862,964.10284,-985.98035,-234.69302,878.06537,-908.97467,-190.29808,868.9093
85,0.7,-954.93909,-202.38864,965.10199,-981.7818,-234.11769,878.65228,-901.87726,-188.71832,869.92828
86,0.708,-950.20862,-203.89607,967.11877,-976.76959,-232.02246,880.18481,-897.97498,-191.0545,869.92383
87,0.717,-943.33795,-204.21185,968.3335,-971.61707,-232.06311,881.39459,-893.70538,-189.8221,870.98016
88,0.725,-938.88226,-203.56721,968.63025,-968.31799,-232.58003,882.27124,-888.51068,-189.81265,870.86969
89,0.733,-932.91705,-201.93196,969.09973,-963.3222,-231.28271,882.87286,-883.80957,-189.72168,870.92047
90,0.742,-927.96472,-201.43814,969.83466,-958.76642,-231.09402,883.63226,-879.04022,-188.78009,871.17413
91,0.75,-921.62036,-202.877,969.59076,-953.72656,-231.38657,884.8797,-874.00293,-191.00482,871.72675
92,0.758,-917.32697,-202.16705,970.7674,-948.53082,-230.84503,885.40839,-869.69464,-189.96669,870.75177
93,0.767,-912.04553,-202.15688,971.04828,-943.41016,-230.0374,885.63171,-864.81519,-189.71727,870.89478
94,0.775,-905.42755,-201.98781,971.3562,-938.71124,-231.5238,886.21619,-859.94965,-190.10556,870.84076
95,0.783,-900.01752,-201.32849,972.00189,-934.28058,-232.69728,886.27844,-855.77014,-189.76738,870.58698
96,0.792,-895.79535,-202.04852,971.84155,-929.50769,-231.12935,886.32843,-850.08624,-190.08937,870.64514
97,0.8,-890.34613,-201.56071,971.82538,-925.07654,-231.85739,886.95819,-845.27307,-190.81996,871.04877
98,0.808,-884.37628,-202.20963,971.75488,-920.07495,-232.48358,887.24835,-841.86041,-191.36519,870.95404
99,0.817,-880.95929,-201.62663,971.34448,-915.39746,-232.52356,888.98645,-836.98718,-190.90855,870.92615
100,0.825,-875.35364,-201.08727,971.21228,-911.01373,-232.44336,889.51263,-832.0965,-192.98631,870.39172
101,0.833,-868.89935,-202.62506,971.50061,-907.20349,-232.5616,890.21063,-828.36926,-193.54558,870.44849
102,0.842,-863.84998,-202.32483,972.70673,-902.69977,-233.4447,890.91345,-823.37195,-193.95624,870.43085
103,0.85,-859.24359,-202.78065,973.84363,-898.13562,-233.48917,891.34229,-819.20911,-196.1653,871.09216
104,0.858,-854.07312,-202.6488,974.49384,-894.4173,-233.06433,891.63055,-815.06927,-196.76665,870.55731
105,0.867,-849.01636,-204.36356,974.18829,-889.4433,-234.06886,892.26227,-810.11877,-197.901,870.82214
106,0.875,-843.83594,-205.8349,974.74304,-885.35242,-234.88719,892.64069,-805.28204,-199.17624,871.26971
107,0.883,-837.76971,-207.24173,975.32269,-881.245,-235.68678,893.08374,-800.87311,-200.32512,871.14935
108,0.892,-833.32996,-208.47539,975.65613,-876.55505,-236.49191,893.41412,-796.10406,-201.05894,870.69806
109,0.9,-827.84918,-207.40674,975.49799,-870.82574,-236.26889,893.6723,-790.12646,-203.08577,870.57349
110,0.908,-821.99792,-209.74146,975.41077,-866.10675,-237.31129,893.81964,-786.11682,-204.64905,870.13531
111,0.917,-815.98029,-209.97304,975.05444,-860.61609,-237.78232,893.53027,-780.69208,-204.78577,870.15295
112,0.925,-809.90326,-209.93744,975.20679,-855.59778,-238.23193,893.91602,-775.5238,-207.04065,869.81354
113,0.933,-803.68225,-212.61809,974.96356,-850.73828,-238.58833,894.1286,-770.08533,-207.22957,868.99701
114,0.942,-798.89185,-212.72507,973.98297,-844.29364,-240.60692,894.36145,-763.80328,-207.97318,868.59387
115,0.95,-792.82062,-211.98811,973.55664,-839.22125,-241.15717,893.51514,-758.33844,-209.48729,866.98224
116,0.958,-786.45862,-214.6552,973.40564,-832.23468,-242.14876,893.0849,-751.92426,-210.11952,866.8468
117,0.967,-778.63977,-214.61615,971.86902,-826.28363,-243.57576,893.0415,-746.99927,-212.17268,866.67505
118,0.975,-772.64667,-214.85559,971.61646,-820.14923,-244.1895,892.76447,-740.14288,-212.80026,865.17633
119,0.983,-765.21204,-216.24063,971.54327,-813.39722,-244.39705,892.17847,-733.27081,-214.57547,865.14764
120,0.992,-757.95825,-216.49641,970.01385,-806.63403,-246.20941,891.65674,-727.61664,-215.7049,863.63361
121,1,-750.41156,-219.00574,969.83984,-799.29926,-247.98779,891.19727,-720.13403,-217.71266,861.91504
122,1.008,-743.14453,-219.41605,968.73938,-792.41449,-248.01263,890.13354,-712.78491,-217.51779,861.74329
123,1.017,-735.42139,-220.77271,968.04712,-785.76227,-249.39981,889.75964,-705.34448,-219.45872,860.74048
124,1.025,-728.1756,-223.43753,966.82465,-777.26477,-251.03041,888.06787,-697.98743,-220.85214,859.71869
125,1.033,-719.81787,-224.04034,965.68964,-769.93463,-251.89972,887.3479,-690.41681,-223.01981,858.74982
126,1.042,-711.20294,-225.7509,964.76331,-761.59717,-253.08856,885.94,-682.18018,-223.38931,857.15094
127,1.05,-703.40149,-226.83118,963.55109,-753.49536,-253.73965,884.58563,-674.35132,-226.19806,855.85681
128,1.058,-695.17877,-228.07846,962.2677,-744.72015,-255.61397,883.65021,-665.46625,-225.64854,854.65466
129,1.067,-685.61676,-228.7583,960.49921,-736.03937,-255.98576,881.54742,-656.73584,-227.51515,853.08044
130,1.075,-676.48615,-230.97751,958.13037,-727.513,-258.66183,880.41608,-647.92798,-227.61983,851.75238
131,1.083,-668.99121,-231.54433,957.77325,-718.07397,-258.93329,879.12537,-637.86224,-229.67908,850.69025
132,1.092,-658.70636,-233.61403,955.91772,-708.47095,-261.00122,877.16718,-627.85986,-230.46034,848.04352
133,1.1,-649.69934,-235.02638,954.53967,-698.979,-261.91745,876.1488,-618.49335,-230.35176,847.54553
134,1.108,-639.92371,-236.4249,953.40961,-688.18347,-263.72992,874.25751,-608.52722,-232.81821,846.52002
135,1.117,-629.44531,-236.88763,952.50153,-678.09509,-265.25839,873.04791,-598.70416,-232.12602,845.45905
136,1.125,-619.20892,-238.83089,951.11206,-667.6239,-265.74182,871.42578,-587.90552,-233.99457,844.08453
137,1.133,-608.14294,-239.76491,950.3681,-657.6145,-267.56415,870.52356,-578.45593,-234.79765,844.07788
138,1.142,-598.68823,-240.06708,950.26263,-646.13361,-268.51105,870.18579,-567.26892,-234.1292,843.30853
139,1.15,-587.71124,-241.57939,950.80542,-635.13007,-268.59534,870.02545,-556.10846,-234.36406,843.37714
140,1.158,-577.43933,-242.43457,951.11823,-624.78522,-270.32434,869.69891,-545.93524,-234.12781,843.98334
141,1.167,-566.74127,-242.00679,951.12811,-613.01788,-270.92743,870.22577,-534.00507,-235.95882,844.64526
142,1.175,-557.09778,-242.40089,951.854,-601.06421,-271.53482,870.88953,-525.01746,-234.14313,844.91528
143,1.183,-544.29614,-243.19398,951.51703,-590.10095,-272.0994,870.84967,-512.3656,-233.52293,845.63947
144,1.192,-533.86182,-243.57526,952.24658,-578.56647,-274.06952,871.02722,-502.07681,-233.27084,846.05603
145,1.2,-523.86292,-243.70189,952.84412,-566.36224,-275.00388,871.61761,-489.17618,-234.4147,847.54828
146,1.208,-513.6535,-244.63992,953.45947,-555.50421,-274.74847,871.41821,-477.35745,-232.91888,848.08179
147,1.217,-502.17651,-245.51294,953.65192,-543.50067,-275.75992,871.65265,-466.80118,-234.42685,848.79596
148,1.225,-492.60791,-246.16592,954.52972,-531.67889,-275.67776,872.06244,-454.91492,-233.28798,850.1311
149,1.233,-481.34305,-246.16428,955.02478,-519.83704,-276.79419,872.38184,-443.91418,-234.11958,851.27606
150,1.242,-471.73676,-247.68422,956.51099,-508.42844,-277.75085,872.62799,-432.12997,-233.26111,852.57715
151,1.25,-460.74081,-247.20177,956.89105,-497.55667,-277.60333,873.09619,-421.03796,-233.40625,853.1955
152,1.258,-449.42374,-248.15681,958.54608,-485.44989,-278.18759,874.14136,-409.33359,-233.5748,855.18494
153,1.267,-440.08328,-248.22366,958.97638,-473.91382,-277.63916,874.24854,-397.88205,-232.58748,857.27802
154,1.275,-429.69193,-247.668,960.03857,-463.33237,-278.93457,875.3382,-386.55527,-233.85117,858.56201
155,1.283,-420.33191,-247.93593,961.7887,-452.96854,-278.06638,877.23566,-376.30481,-234.66327,860.36542
156,1.292,-410.01352,-248.03328,963.30408,-441.6178,-278.45779,878.56787,-364.90363,-233.76233,863.00391
157,1.3,-399.49182,-247.36505,965.36078,-431.40289,-277.80203,879.48706,-354.30746,-233.59917,864.96973
158,1.308,-389.44431,-247.16643,966.8653,-420.49252,-277.08725,880.10651,-343.17621,-233.14763,867.15381
159,1.317,-379.77029,-247.88684,968.14032,-409.91891,-277.31033,881.93677,-332.27484,-233.2285,869.80566
160,1.325,-370.59354,-247.71243,969.91412,-400.20004,-277.08255,883.06244,-321.89362,-232.71701,871.71973
161,1.333,-361.18518,-247.77103,971.22394,-390.76883,-276.022,885.2655,-311.31461,-232.50055,874.1792
162,1.342,-352.28088,-248.41629,973.24127,-380.31512,-275.76047,886.0567,-301.40527,-232.29094,876.36749
163,1.35,-342.84811,-248.79831,974.42932,-369.64734,-274.67868,886.3512,-291.26273,-232.1281,878.50378
164,1.358,-333.8515,-248.27058,976.02844,-360.37793,-274.56104,887.59052,-280.9007,-231.25288,880.06708
165,1.367,-324.62451,-247.89384,977.40289,-350.46527,-273.39624,888.68774,-270.66251,-230.98276,881.61548
166,1.375,-316.12131,-248.31786,978.30646,-340.97998,-273.31714,889.44971,-260.78348,-230.59592,883.81036
167,1.383,-307.74377,-247.29498,978.77802,-331.10413,-272.83936,889.75226,-250.62695,-229.91521,885.49194
168,1.392,-299.01828,-247.20581,979.88159,-321.01056,-272.39197,889.87128,-242.09392,-229.22934,886.54663
169,1.4,-290.35239,-247.11104,980.703,-312.05475,-272.0553,890.7085,-233.44696,-228.50966,888.75232
170,1.408,-282.31451,-246.74071,980.59668,-301.69086,-270.94763,890.83167,-223.70453,-227.44128,888.758
171,1.417,-273.10519,-246.28999,980.58191,-292.9859,-270.83344,891.17725,-213.8383,-227.11754,889.91754
172,1.425,-264.75751,-245.23854,980.41107,-284.06241,-269.96164,890.24231,-205.58249,-226.04935,890.98706
173,1.433,-256.37204,-244.85878,980.61859,-274.62943,-269.93307,890.61945,-195.87781,-225.63972,890.99304
174,1.442,-248.49852,-245.07504,980.20642,-266.14001,-269.70346,890.78436,-187.60992,-224.90823,890.87354
175,1.45,-240.09053,-243.82199,979.68652,-257.34875,-268.24734,889.85846,-178.65742,-225.04617,891.742
176,1.458,-232.74655,-243.26122,979.49976,-248.66829,-268.37592,889.50458,-170.90013,-223.23325,890.78967
177,1.467,-224.60477,-242.95898,978.75665,-241.61888,-267.79141,889.70856,-163.47672,-223.75008,891.01489
178,1.475,-216.58342,-242.67793,978.68597,-233.66483,-267.05157,888.60626,-154.24583,-222.69046,890.39124
179,1.483,-209.65565,-242.54637,977.75903,-226.11154,-266.74014,888.27789,-147.52953,-222.15732,889.43872
180,1.492,-201.93285,-241.35202,976.85687,-217.74449,-266.59601,887.56891,-140.20741,-221.81053,889.15063
181,1.5,-194.71735,-241.50269,976.10907,-211.55446,-266.39056,886.53589,-133.4091,-220.93753,888.89197
182,1.508,-187.95441,-240.70465,974.87512,-204.04858,-264.77271,885.93372,-126.07706,-220.62689,887.49707
183,1.517,-180.52531,-240.1694,974.52649,-197.28979,-264.39804,884.77106,-119.34855,-220.40608,886.15918
184,1.525,-173.522,-239.70334,973.34448,-190.96916,-264.92569,883.12158,-111.72631,-218.62161,884.95642
185,1.533,-166.84161,-238.72623,971.59406,-184.03108,-263.31985,881.86292,-105.93191,-219.73579,883.24426
186,1.542,-159.50928,-237.76073,970.64575,-177.86597,-262.93259,880.86249,-99.48048,-218.50125,882.06281
187,1.55,-153.20036,-237.80795,969.5387,-171.6328,-262.7215,879.6814,-92.64178,-218.76068,880.47937
188,1.558,-146.89301,-237.28699,968.49988,-165.7692,-261.67197,878.58502,-87.16116,-217.9953,878.36646
