Frame#,Time,L.Forearm.x,L.Forearm.y,L.Forearm.z,L.Ulna.x,L.Ulna.y,L.Ulna.z,L.Radius.x,L.Radius.y,L.Radius.z
1,0,109.66585,128.71301,1043.02576,208.46404,138.13022,1039.32373,236.77917,80.30768,1087.19568
2,0.008,109.93153,128.89478,1042.68848,208.70238,138.3629,1038.90198,236.74898,80.248,1086.9801
3,0.017,109.86034,129.08751,1042.51062,208.7542,138.52417,1038.68848,236.83287,79.93538,1086.62366
4,0.025,109.81839,129.01089,1042.22412,208.52283,139.11845,1038.63672,236.97356,80.31262,1085.77136
5,0.033,109.96181,129.43231,1041.5033,208.44337,139.06976,1038.4563,237.07257,80.52908,1085.62317
6,0.042,109.88663,129.74701,1041.3324,208.55644,139.24474,1038.19214,237.27751,82.11916,1085.85168
7,0.05,109.93127,129.7831,1041.27832,208.24608,139.01842,1037.4353,236.56487,82.7485,1085.34021
8,0.058,110.10575,130.0181,1041.12012,208.38014,139.31989,1036.4176,236.81755,83.50227,1085.13525
9,0.067,110.105,130.56891,1040.80627,208.31741,139.55791,1036.11023,237.11629,81.55242,1084.62048
10,0.075,110.29644,131.01323,1040.56787,208.00278,139.8945,1035.51111,236.30939,83.13483,1084.73535
11,0.083,110.18645,131.34822,1040.13574,208.22229,139.832,1035.17688,236.00639,83.27032,1084.59351
12,0.092,110.37781,131.7491,1039.27454,207.82204,140.26839,1034.5929,236.14465,83.92917,1084.06335
13,0.1,109.66357,132.81607,1038.93652,207.51115,141.50114,1034.51636,236.60196,83.44032,1083.8064
14,0.108,109.48801,133.01486,1038.82166,207.67677,142.50204,1034.22754,235.39319,85.53162,1083.46228
15,0.117,109.46204,134.86485,1037.9137,207.3692,143.13947,1033.80774,234.86703,86.1513,1082.93054
16,0.125,109.91759,135.74281,1037.18933,207.31203,144.03931,1033.44141,234.96822,86.7336,1082.71338
17,0.133,109.26801,137.29857,1036.35547,207.14398,145.5105,1032.88452,235.33241,87.64956,1082.12585
18,0.142,109.27177,137.98871,1035.67786,207.60223,145.94528,1032.70129,235.03763,87.85203,1082.17078
19,0.15,108.65599,138.91371,1034.92493,207.69528,145.9028,1031.70276,234.60161,89.33541,1081.43738
20,0.158,109.0668,139.63371,1034.50061,208.76357,147.05159,1030.08752,234.92621,91.30088,1080.71265
21,0.167,108.99456,139.98441,1033.90723,208.0784,147.59454,1029.34058,233.82762,91.54306,1080.12012
22,0.175,109.04671,140.95537,1032.69336,207.88744,148.39606,1028.86133,233.36874,94.21898,1080.03503
23,0.183,109.17174,142.4594,1032.41345,207.66144,149.00826,1028.12659,233.26942,94.71189,1079.75171
24,0.192,109.26312,144.35994,1031.76392,207.74924,149.21106,1027.92041,233.17754,95.03344,1079.45813
25,0.2,108.75198,146.51697,1030.40796,207.99757,150.27763,1027.50342,232.64003,94.44302,1078.75989
26,0.208,108.65355,147.05426,1029.21338,207.39453,151.86406,1026.02087,232.35037,94.4357,1078.61926
27,0.217,108.46674,148.02385,1028.29773,207.50002,152.6185,1025.0813,230.53857,96.36475,1077.86768
28,0.225,108.93527,149.13995,1026.80859,206.94048,153.0685,1024.06006,230.54196,97.36755,1077.10889
29,0.233,108.64884,150.16064,1025.6897,207.2097,154.07079,1022.47424,229.86404,99.86652,1076.04187
30,0.242,108.26542,152.67963,1023.83197,206.47614,155.58122,1021.04419,229.28818,100.17695,1075.55701
31,0.25,107.19296,154.96689,1022.25995,206.40468,156.52335,1020.12976,228.48586,102.18488,1074.4967
32,0.258,107.05508,156.75862,1019.78204,205.9149,157.49197,1017.84753,227.08789,103.90858,1073.43823
33,0.267,106.87807,157.72758,1018.14209,205.85234,158.5181,1016.89618,226.12138,105.61945,1072.68787
34,0.275,106.98001,159.53455,1016.40717,205.23288,159.15689,1014.90234,225.63333,106.16129,1072.43494
35,0.283,106.24342,161.7364,1013.83673,204.97226,160.85695,1012.76331,223.47804,109.28588,1071.47241
36,0.292,105.57923,164.46498,1011.98206,203.91814,162.0304,1011.49945,221.94084,110.56231,1070.33264
37,0.3,105.1806,166.42905,1008.96686,203.8015,163.79262,1008.7135,221.29169,111.93533,1069.50049
38,0.308,104.75945,169.19383,1006.82581,202.86858,164.4879,1005.97748,219.09,115.826,1067.70972
39,0.317,104.28317,172.95816,1003.60168,202.93741,166.54381,1004.23969,218.06528,117.10733,1066.09631
40,0.325,104.61414,174.38612,1000.1452,201.50845,166.56921,1001.23865,215.96381,120.2474,1065.57483
41,0.333,102.89706,176.48224,997.67889,200.65639,168.12263,999.19232,214.19653,122.74671,1063.16748
42,0.342,100.83556,179.22772,994.40552,199.5937,170.39989,997.03296,213.09163,124.29772,1061.24597
43,0.35,101.36246,181.77295,991.00293,198.05934,171.52501,994.03577,209.70996,126.24528,1059.60828
44,0.358,100.18703,184.85614,987.71277,197.65665,172.31305,992.31335,209.11302,128.18953,1057.06726
45,0.367,98.78865,186.73564,984.72473,196.15918,173.86452,988.87213,206.2567,130.35533,1055.79651
46,0.375,97.86016,188.1739,981.36768,194.69958,174.98572,986.57428,204.47838,131.94418,1053.10522
47,0.383,96.16966,190.29361,978.09814,193.24396,176.7287,983.54901,201.52853,132.73331,1050.54651
48,0.392,94.57221,192.55785,974.24512,191.78922,177.67577,981.16144,199.92946,135.67799,1048.13049
49,0.4,93.98949,194.29379,970.48755,189.63234,179.32124,977.59741,197.08722,137.10074,1044.93738
50,0.408,92.09909,197.30179,966.2511,188.19411,180.61661,974.76514,194.36784,138.12297,1043.0592
51,0.417,90.95401,198.98573,962.90668,186.57803,180.81905,971.30408,191.53331,141.47185,1040.31018
52,0.425,89.66222,201.42783,959.03125,184.93533,181.82948,968.60602,188.96967,142.06558,1037.45129
53,0.433,87.38022,202.74469,954.83118,183.15236,183.34972,965.32214,186.66249,143.96092,1035.40674
54,0.442,86.2909,204.25539,950.58105,180.55353,184.37714,962.19019,183.96875,145.96852,1031.72546
55,0.45,84.22015,207.27502,946.53833,178.66972,185.02692,958.99213,181.34535,148.07053,1029.31079
56,0.458,82.72921,207.73846,942.72345,177.0358,185.66608,956.17328,178.06192,149.14542,1025.79602
57,0.467,80.46401,209.0705,938.83722,174.24303,187.25211,952.41443,175.59027,149.84087,1023.40356
58,0.475,78.87186,211.10687,934.58197,172.59282,188.28746,949.75836,171.97931,152.45686,1021.20251
59,0.483,76.54576,212.83745,931.24353,170.83281,189.37468,946.52765,168.56841,154.24469,1018.26782
60,0.492,75.48669,214.90115,926.96362,168.03577,189.64526,943.65887,166.68874,155.73036,1015.57678
61,0.5,73.71897,215.38057,923.42346,165.8571,190.76064,941.06476,162.94354,158.42644,1012.99115
62,0.508,71.23769,217.63608,919.72003,163.28107,191.94196,938.08057,160.24307,159.69322,1010.61383
63,0.517,69.463,219.09941,915.87634,161.59496,192.12001,934.52313,157.40633,160.79343,1007.51312
64,0.525,67.66702,220.9776,912.42841,159.2179,192.78387,932.14435,153.58252,163.03889,1005.17932
65,0.533,65.17376,221.90918,908.57648,156.22009,192.86435,928.86584,150.86819,164.55212,1002.35504
66,0.542,63.11145,223.88557,906.24994,153.67424,193.81282,926.11957,148.00351,166.03873,1000.0567
67,0.55,60.92247,225.29082,902.0647,151.17354,195.39191,923.75317,145.05972,168.02913,997.54749
68,0.558,59.27589,227.08951,899.02533,149.29063,196.02197,921.50958,141.42303,168.89626,995.04102
69,0.567,56.23698,229.72147,895.9342,146.57033,197.18875,919.19727,138.75745,169.37537,992.17023
70,0.575,54.61596,229.95363,892.88641,144.75751,197.70671,915.93262,135.21407,171.70979,989.80347
71,0.583,53.11565,230.8877,889.4566,141.69292,198.87155,913.91162,132.92616,172.38451,987.59534
72,0.592,50.74923,232.7238,886.81195,139.49628,198.89563,911.39728,130.06386,174.93721,985.0257
73,0.6,48.78081,233.37224,884.18683,137.05292,199.27333,908.85791,127.61147,175.62148,983.12494
74,0.608,46.75617,234.52776,881.64124,135.15068,200.09019,907.4635,124.77088,177.18617,980.7146
75,0.617,44.57397,235.4292,878.98218,134.05962,199.81166,904.18109,122.39906,177.74516,978.86774
76,0.625,43.43677,237.33528,876.6734,131.01471,200.63472,901.85413,120.49252,179.17401,976.92499
77,0.633,41.55221,237.67796,874.23853,129.28639,200.7619,900.65594,116.73116,179.78026,974.72449
78,0.642,40.12693,237.89868,872.3996,127.10931,201.59619,898.65948,115.03885,181.10814,973.24231
79,0.65,38.65435,238.67354,869.63629,125.33614,203.07925,897.16217,112.44056,181.70859,972.02966
80,0.658,37.30358,240.37448,868.25983,122.62691,202.09584,895.34888,110.45851,182.22395,970.48688
81,0.667,35.38665,241.82852,866.44299,121.20457,201.67386,894.25995,108.24091,182.08524,968.80518
82,0.675,33.83912,242.00932,864.24768,119.25369,201.46001,891.84747,105.69164,183.67921,967.03497
83,0.683,32.51679,241.9129,862.08044,117.38771,201.74464,890.83673,104.22079,184.78343,965.78448
84,0.692,31.50417,242.36411,860.86102,116.11211,203.17125,889.98755,101.49937,185.60542,964.4389
85,0.7,29.71659,243.8931,858.88879,113.99988,203.47881,888.50098,99.25951,186.54276,962.61487
86,0.708,28.23758,244.64668,857.24835,111.22166,204.05389,887.38824,97.16035,186.82379,961.93335
87,0.717,26.52511,244.90976,855.75232,109.21179,203.64928,886.17737,95.1417,187.2541,960.86346
88,0.725,25.00636,246.28886,854.09021,107.73631,203.95534,885.14703,92.5752,187.81,959.76978
89,0.733,24.09212,246.6134,853.27838,105.9403,203.58769,884.71405,90.42602,188.56516,959.02332
90,0.742,22.45582,247.54402,851.08661,104.31992,203.46652,884.26215,88.23253,189.64273,958.80499
91,0.75,21.84649,247.92566,850.78448,102.62865,204.18497,883.5636,86.07183,189.96233,957.06134
92,0.758,20.59143,248.12282,850.0451,100.41052,203.9574,883.15173,84.14114,190.60316,957.17773
93,0.767,18.78292,248.8732,849.08038,98.91838,204.64705,882.33704,81.32768,190.8067,956.18555
94,0.775,17.83132,249.01265,848.07214,97.49673,204.00264,881.8512,79.99241,192.04539,955.94708
95,0.783,16.53825,249.96318,847.73877,94.96593,204.29338,881.56335,78.53414,192.19751,955.53119
96,0.792,15.3323,250.2124,846.98206,94.21458,203.91504,881.414,75.21185,192.63689,955.28601
97,0.8,14.27004,250.79976,846.51276,93.4491,203.65863,880.83978,74.19006,193.99284,955.44965
98,0.808,12.42315,250.95819,845.03955,90.85325,204.41008,881.20648,71.97068,193.41068,954.2179
99,0.817,11.5752,251.52197,844.89215,89.16563,203.32578,881.01514,69.60235,193.21442,954.10535
100,0.825,11.10031,251.51892,844.37268,88.04964,203.49683,880.71606,68.06587,194.28577,954.09497
101,0.833,10.20895,252.35815,844.38916,85.64063,204.0807,880.55103,66.07977,194.0195,954.19037
102,0.842,9.12361,252.71609,844.03479,84.46781,204.12953,880.77374,64.42981,194.2,954.47064
103,0.85,8.59876,253.31697,844.18304,83.93218,204.10754,880.90039,61.41304,194.70007,954.33215
104,0.858,8.22721,253.29837,843.78302,81.08845,202.84219,880.85797,60.30271,194.37283,954.17273
105,0.867,6.96159,252.9305,842.66394,79.87267,202.73207,881.0614,58.11628,194.36165,954.31305
106,0.875,6.4822,253.25488,842.32855,78.75433,202.78018,881.11188,56.71439,194.16586,953.6925
107,0.883,5.71164,254.1198,842.29749,77.59889,201.36531,881.85303,53.76573,195.1812,954.42944
108,0.892,5.19379,254.10675,841.86401,75.9343,201.00729,881.9317,52.16198,194.22546,954.22882
109,0.9,4.4059,254.1897,841.72607,74.98634,201.76453,882.0304,51.12189,193.802,954.09918
110,0.908,3.45164,254.35046,841.77722,72.99088,201.03383,882.71509,48.4688,193.44841,954.18719
111,0.917,2.76428,254.95262,841.59863,71.54535,200.74434,883.33276,45.87438,193.55284,954.61481
112,0.925,1.76005,254.56921,842.07721,70.22985,200.57407,883.48346,44.3051,194.27649,955.37103
113,0.933,0.96793,254.92416,842.1153,69.29553,200.14436,884.12457,43.20602,193.75786,955.06671
114,0.942,0.85258,254.98343,842.08716,68.31359,200.08887,884.67908,39.83337,193.47435,955.42126
115,0.95,0.08141,254.70103,841.52008,66.15386,199.67296,885.94745,38.39088,193.37474,955.48743
116,0.958,-0.41454,254.70461,841.45667,65.44264,197.51273,886.64514,37.2743,193.72289,955.19037
117,0.967,-0.853,254.57669,841.63171,64.61195,197.87016,886.72809,35.00302,193.36607,956.16315
118,0.975,-1.30547,254.18083,841.42761,63.23759,197.6377,887.26025,33.38985,192.93993,956.18115
119,0.983,-1.99804,254.14302,841.76184,61.71888,197.68338,887.30585,30.76748,193.38007,956.36859
120,0.992,-2.35627,253.94691,841.74994,61.01736,197.20145,887.388,29.68973,193.44418,956.34033
121,1,-3.21149,254.24467,841.85822,59.84227,196.68422,888.03009,28.65135,193.23866,956.41345
122,1.008,-3.70696,253.74631,841.95758,58.22449,196.42645,888.33057,26.64866,192.49063,956.61096
123,1.017,-4.28697,253.99207,841.86981,57.24931,195.63258,888.63715,24.10102,193.30388,956.5484
124,1.025,-5.01589,254.60526,841.74817,55.74829,195.55215,888.53711,22.8213,192.86717,956.41315
125,1.033,-5.75901,253.99556,841.98938,54.98653,195.45297,889.01697,21.3927,193.01498,955.93616
126,1.042,-6.20752,253.71234,841.77838,53.93585,195.71477,889.18066,19.88724,192.52858,955.88953
127,1.05,-6.20752,253.71234,841.77838,52.84341,195.03543,889.17633,18.64045,192.50223,955.63446
128,1.058,-6.99206,253.83925,841.84082,52.12809,194.71742,889.65448,16.17833,192.59123,956.04083
129,1.067,-7.53071,253.82036,841.66565,50.98453,194.45572,889.84546,15.12798,193.23387,955.63806
130,1.075,-8.05937,254.18227,841.56549,49.75498,194.74619,889.99799,14.39553,193.37392,955.59546
131,1.083,-8.37627,253.8806,841.74323,48.46725,194.08333,889.77917,12.8227,192.94037,955.81134
132,1.092,-8.88605,253.69434,841.31006,47.92167,194.12068,889.91107,12.088,192.66486,955.38177
133,1.1,-9.86172,254.20038,840.92639,47.19966,194.05724,889.74707,10.53264,192.77634,955.28943
134,1.108,-10.49465,253.7149,840.70569,46.40602,194.24042,889.71692,8.35334,192.82874,955.0722
135,1.117,-10.49465,253.7149,840.70569,45.43232,193.99257,889.66895,7.07923,192.6185,954.64935
136,1.125,-10.64404,253.75664,840.50262,43.89676,193.42177,889.28302,6.59811,192.7135,954.22253
137,1.133,-10.64404,253.75664,840.50262,42.66543,193.37465,889.12579,5.63711,192.52406,953.83545
138,1.142,-11.88132,253.66049,840.40558,42.66753,193.20294,888.9635,4.81412,191.93835,953.94458
139,1.15,-11.88132,253.66049,840.40558,41.67019,192.88699,888.51343,3.35304,191.45711,952.94427
140,1.158,-12.05777,253.37386,839.9845,40.90554,192.29601,888.56183,2.33148,191.20334,952.46301
141,1.167,-12.93961,253.55862,839.82324,40.73336,192.0266,887.91205,1.26597,191.4102,952.73462
142,1.175,-13.27779,252.67264,839.95313,40.12402,191.61739,887.79041,0.74883,191.37537,952.27704
143,1.183,-13.74485,252.69638,839.328,38.92091,191.43727,887.87817,0.26418,191.04187,951.95349
144,1.192,-13.9658,252.77779,839.45721,38.58892,191.78003,887.67462,-0.79448,190.15727,951.50018
145,1.2,-13.9658,252.77779,839.45721,37.04697,191.6989,887.29132,-1.5958,189.82974,951.45752
146,1.208,-15.00981,254.49733,839.80688,37.24626,190.88556,887.22479,-3.02375,188.63245,951.15594
147,1.217,-15.04265,253.38425,839.34595,37.01008,190.45134,886.95172,-4.13362,189.4303,950.73523
148,1.225,-15.04265,253.38425,839.34595,36.14026,191.07655,886.7179,-4.68537,189.77878,950.71057
149,1.233,-15.30418,254.37981,839.09784,36.00072,190.39551,886.12054,-5.19876,189.75247,950.4104
150,1.242,-15.11457,253.09384,838.29663,35.52624,190.40565,886.35272,-5.4959,189.38326,950.05914
151,1.25,-15.73603,252.90158,838.41235,35.0275,189.19904,886.15564,-6.50877,188.79057,949.30396
152,1.258,-15.8946,252.88362,838.48248,33.763,189.25354,885.64624,-6.83657,188.39775,949.17242
153,1.267,-16.22783,252.98433,837.7561,33.07893,188.79556,885.5932,-6.93863,188.33394,949.07129
154,1.275,-16.39764,252.96387,837.54041,32.72501,188.6032,885.52789,-8.43156,188.44331,948.59515
155,1.283,-16.74742,252.36118,837.20703,32.49018,188.6136,885.31537,-8.66889,188.2139,948.69934
156,1.292,-17.3527,252.85512,837.32977,32.32676,188.40977,885.19415,-9.69348,187.56062,948.31714
157,1.3,-17.31199,252.51259,837.19391,32.32676,188.40977,885.19415,-9.95749,187.62846,948.078
158,1.308,-17.31199,252.51259,837.19391,31.57775,188.35442,884.91119,-10.23712,187.72475,948.02728
159,1.317,-17.3527,252.85512,837.32977,31.35206,188.41289,884.36279,-10.4376,187.72942,947.92413
160,1.325,-17.51451,252.30553,837.15271,31.15742,188.43484,884.61774,-10.84164,187.7851,947.68414
161,1.333,-17.31199,252.51259,837.19391,30.9878,188.38844,884.30487,-10.91135,187.87447,947.34857
162,1.342,-17.51451,252.30553,837.15271,30.58922,188.15089,884.30042,-11.19243,187.97417,947.19495
163,1.35,-17.58638,252.93115,837.33978,30.58922,188.15089,884.30042,-11.19243,187.97417,947.19495
164,1.358,-17.78889,252.72435,837.29865,30.40072,188.01894,884.2196,-11.85704,188.26823,947.62561
165,1.367,-18.21701,252.83778,837.22046,29.96218,188.07126,883.96844,-11.82715,188.40152,946.90479
166,1.375,-18.21701,252.83778,837.22046,29.53545,188.30928,884.21368,-12.1741,188.44955,946.77557
167,1.383,-18.66002,252.91206,837.33569,29.0272,188.4012,884.31384,-12.97589,188.40283,946.44281
168,1.392,-19.15067,253.01163,837.09674,29.0272,188.4012,884.31384,-13.94898,188.31497,946.66467
169,1.4,-19.98047,252.23729,836.8374,28.5789,187.79108,883.82196,-14.11002,188.52251,946.46783
170,1.408,-19.98047,252.23729,836.8374,28.34819,187.99783,883.76489,-14.11002,188.52251,946.46783
171,1.417,-20.17353,252.29695,836.8288,28.34819,187.99783,883.76489,-14.49193,188.40627,946.23242
172,1.425,-20.17353,252.29695,836.8288,28.19398,187.95955,883.64911,-14.6945,188.17572,946.12622
173,1.433,-20.42617,252.4467,836.56738,27.80061,187.88646,883.44672,-14.85042,188.17209,945.95593
174,1.442,-20.63712,253.05145,836.81482,27.48432,187.9904,883.21997,-14.85042,188.17209,945.95593
175,1.45,-20.58529,252.68823,836.65002,27.56524,187.9856,882.98718,-14.9032,188.03293,946.03894
176,1.458,-20.753,252.63989,836.51984,27.56524,187.9856,882.98718,-14.98035,188.30724,945.82568
177,1.467,-20.753,252.63989,836.51984,27.56524,187.9856,882.98718,-15.11513,188.3911,945.76373
178,1.475,-20.753,252.63989,836.51984,27.49376,188.18874,882.90692,-15.70989,188.03816,945.76959
179,1.483,-20.753,252.63989,836.51984,27.64668,187.98077,882.75458,-15.65624,187.83978,945.23639
180,1.492,-20.92568,252.65816,836.55054,27.32564,187.91808,882.64636,-16.14973,187.56113,945.31116
181,1.5,-20.92568,252.65816,836.55054,27.15322,188.02061,882.80865,-16.38004,187.37808,945.36401
182,1.508,-20.92568,252.65816,836.55054,27.37358,188.05789,882.36432,-16.32455,187.42075,945.28961
183,1.517,-20.93373,252.58556,836.30847,27.37358,188.05789,882.36432,-16.32455,187.42075,945.28961
184,1.525,-20.93373,252.58556,836.30847,27.09105,187.58408,882.505,-16.49942,187.28047,945.26819
185,1.533,-20.90703,252.25095,836.13422,27.02931,187.45464,882.55524,-16.24682,186.98979,944.99194
186,1.542,-20.90703,252.25095,836.13422,27.94309,186.838,882.26971,-16.24682,186.98979,944.99194
187,1.55,-20.90703,252.25095,836.13422,27.90497,186.41658,882.15338,-16.24682,186.98979,944.99194
188,1.558,-20.90703,252.25095,836.13422,27.75392,185.52325,881.6048,-16.11492,186.88678,944.88464
189,1.567,-20.64116,251.46889,836.18622,27.0706,185.7256,881.56592,-16.14044,186.66377,944.86151
190,1.575,-20.64116,251.46889,836.18622,27.75392,185.52325,881.6048,-16.25267,186.64117,944.7027
191,1.583,-20.64116,251.46889,836.18622,27.02169,185.68129,881.62091,-16.25267,186.64117,944.7027
192,1.592,-20.64116,251.46889,836.18622,27.02169,185.68129,881.62091,-16.25267,186.64117,944.7027
193,1.6,-20.64116,251.46889,836.18622,27.02169,185.68129,881.62091,-16.54645,186.6911,944.88617
194,1.608,-20.64116,251.46889,836.18622,26.70654,185.52631,882.02576,-16.73341,186.94131,944.89447
195,1.617,-20.64116,251.46889,836.18622,26.70654,185.52631,882.02576,-16.73341,186.94131,944.89447
196,1.625,-20.64116,251.46889,836.18622,26.75251,185.461,882.07794,-17.30657,187.06525,944.77661
197,1.633,-20.76208,251.25444,836.23285,26.09151,185.96907,882.28796,-17.60402,187.17357,944.88495
198,1.642,-20.76208,251.25444,836.23285,25.94527,185.81505,882.17712,-17.60402,187.17357,944.88495
199,1.65,-20.76208,251.25444,836.23285,25.77848,185.57614,882.25806,-17.60402,187.17357,944.88495
200,1.658,-20.76208,251.25444,836.23285,25.63554,185.82529,881.95966,-17.60402,187.17357,944.88495
201,1.667,-20.76208,251.25444,836.23285,26.45173,185.05826,882.04706,-17.94107,186.76468,944.91296
202,1.675,-20.754,251.32715,836.47504,25.58983,185.44357,882.17737,-17.82372,186.57773,944.92383
203,1.683,-20.754,251.32715,836.47504,25.12661,185.32925,881.83008,-17.78893,186.47084,944.69476
204,1.692,-20.754,251.32715,836.47504,24.74881,184.90733,881.99805,-17.97998,185.85515,945.02826
