Frame#,Time,L.Forearm.x,L.Forearm.y,L.Forearm.z,L.Ulna.x,L.Ulna.y,L.Ulna.z,L.Radius.x,L.Radius.y,L.Radius.z
1,0,1862.55518,-183.14729,930.22009,1877.5061,-213.03267,855.13794,1791.75928,-193.30257,805.8584
2,0.008,1857.65649,-181.64105,930.70642,1872.79053,-212.0343,854.86859,1785.16418,-195.33876,804.57782
3,0.017,1852.55627,-184.20798,930.85095,1868.14404,-212.14386,854.44202,1783.20239,-196.45808,805.53125
4,0.025,1848.08301,-184.68909,930.15393,1863.00842,-212.34724,854.71832,1777.48718,-197.47281,806.92456
5,0.033,1843.19824,-185.04158,930.27722,1858.89673,-211.84367,854.65106,1775.35669,-201.34131,806.54022
6,0.042,1838.7782,-187.20325,930.11182,1853.72473,-211.96907,854.42975,1768.70166,-198.45895,807.19
7,0.05,1834.38025,-187.57928,930.22937,1849.30713,-211.82692,854.49329,1764.79883,-203.57805,807.25116
8,0.058,1829.78076,-188.01508,931.42877,1844.84656,-211.86674,854.38879,1760.22546,-204.21507,806.24164
9,0.067,1823.63879,-187.38782,930.29266,1839.84241,-212.32002,853.80762,1754.18384,-204.9671,803.6604
10,0.075,1819.58997,-187.82922,929.46472,1835.4884,-212.80684,852.48218,1751.14441,-206.7146,804.79309
11,0.083,1813.56226,-190.08862,928.31085,1831.61426,-211.07567,851.84869,1745.35864,-207.72681,802.95453
12,0.092,1809.16077,-189.10112,928.16522,1826.48413,-211.13699,850.61572,1739.95166,-205.74574,801.52692
13,0.1,1802.20337,-190.64621,927.87787,1821.78613,-210.41512,850.02313,1735.50354,-203.78636,801.51428
14,0.108,1798.40393,-190.27176,928.10529,1814.62463,-210.43275,849.10547,1728.68994,-198.61749,799.74811
15,0.117,1791.30627,-187.52354,926.75824,1807.68457,-210.56079,848.96661,1722.84924,-196.31447,797.41583
16,0.125,1785.20593,-189.91469,925.7583,1801.23499,-209.78073,849.59125,1717.1925,-196.2621,795.34851
17,0.133,1779.63049,-186.22705,925.85974,1793.85657,-210.04195,847.96808,1711.32397,-194.32973,792.63544
18,0.142,1771.62354,-182.7357,923.83472,1788.0083,-210.26363,846.55359,1705.33447,-191.65005,791.46039
19,0.15,1763.40491,-179.929,921.21722,1782.44849,-209.81787,845.47284,1700.19226,-188.33078,790.70575
20,0.158,1758.60925,-180.56213,918.87329,1776.59204,-208.89629,843.85077,1693.58557,-190.28673,788.24933
21,0.167,1749.33984,-178.09473,915.93805,1772.13074,-209.79143,843.14502,1687.96313,-191.25497,785.75562
22,0.175,1744.20715,-179.76355,916.16962,1765.90662,-209.83041,842.09998,1680.74231,-192.28313,784.716
23,0.183,1738.07507,-179.85609,915.74005,1758.50647,-210.50999,840.79791,1677.2218,-192.56065,783.76062
24,0.192,1729.73145,-179.70453,914.54803,1751.51331,-210.74699,840.67731,1669.22363,-193.44569,782.23553
25,0.2,1723.849,-179.99605,914.36194,1744.16235,-210.64856,839.59949,1663.01794,-193.05798,781.31775
26,0.208,1716.23804,-181.34045,913.89301,1737.46619,-212.89746,838.20483,1654.97668,-193.92813,780.14606
27,0.217,1709.26013,-181.14034,912.24677,1731.15234,-212.22113,837.18982,1648.5564,-194.56612,779.28314
28,0.225,1703.39832,-185.78716,910.83325,1723.04077,-213.43098,835.84009,1642.12659,-196.75652,779.61298
29,0.233,1694.78284,-184.41653,910.54547,1716.33875,-213.62503,835.20813,1635.70679,-199.91443,776.948
30,0.242,1688.3988,-187.40526,910.27557,1709.95703,-214.24074,834.95551,1626.62683,-202.63338,775.31689
31,0.25,1679.80347,-187.55905,910.92249,1701.87305,-214.94119,834.03448,1619.87805,-201.88203,776.41681
32,0.258,1672.53845,-188.00269,908.96057,1695.0437,-216.02905,833.19373,1611.87659,-203.22762,775.86902
33,0.267,1663.80603,-188.56053,908.40021,1687.53638,-216.95235,832.2962,1604.42346,-207.19226,775.24945
34,0.275,1655.91919,-189.04396,906.36548,1679.2085,-218.2636,831.94379,1596.19336,-209.24203,773.82245
35,0.283,1646.17346,-189.81844,904.67914,1670.89221,-217.99445,829.86243,1589.55737,-211.85861,773.88519
36,0.292,1639.19202,-193.67319,906.05774,1662.69019,-218.69128,829.48572,1581.64185,-210.73273,773.71503
37,0.3,1629.87549,-195.17577,905.78265,1655.1748,-218.91438,828.56909,1571.99951,-209.62973,772.65985
38,0.308,1623.34705,-195.11356,905.99066,1646.93567,-218.87892,828.5918,1563.53931,-207.81732,771.7099
39,0.317,1612.29163,-195.80132,906.92352,1635.56445,-218.92595,828.47491,1554.20667,-206.49791,771.28857
40,0.325,1603.99573,-195.48283,905.27374,1626.27161,-219.84111,829.60968,1544.24243,-203.7084,768.85687
41,0.333,1593.24316,-194.27475,905.34338,1614.72583,-220.65414,828.53668,1533.06555,-202.09746,768.44196
42,0.342,1581.52234,-194.32097,905.10992,1605.0885,-220.51556,830.19922,1525.51794,-200.97037,768.57361
43,0.35,1570.85388,-191.17276,905.74615,1595.34631,-221.18079,830.83575,1515.89209,-200.8158,769.37372
44,0.358,1560.46033,-188.5334,906.94794,1584.93921,-220.84521,832.05737,1505.77527,-201.00366,770.51599
45,0.367,1549.20654,-188.6492,907.30652,1575.73169,-221.9641,833.45215,1495.56409,-202.70308,770.9129
46,0.375,1539.88525,-186.97267,909.93256,1566.11523,-221.66083,836.49463,1487.36011,-201.43176,773.09174
47,0.383,1531.25488,-188.40424,911.38733,1555.62427,-221.83109,836.9433,1476.58472,-202.3801,774.99567
48,0.392,1519.28943,-188.91565,912.24658,1546.21985,-223.11873,839.46851,1467.10022,-202.59732,776.57123
49,0.4,1511.46252,-191.5511,915.65338,1535.87769,-223.61928,841.86938,1455.76794,-202.94055,780.31311
50,0.408,1501.60168,-192.75383,917.81091,1524.60669,-224.81427,843.83832,1446.10999,-202.21246,782.17737
51,0.417,1494.83752,-195.28748,919.52802,1516.29907,-226.58722,845.38983,1435.4209,-205.49686,784.46625
52,0.425,1484.55762,-195.26358,922.30878,1504.9657,-225.30942,846.52338,1426.7594,-205.59232,787.7439
53,0.433,1475.52148,-196.64207,923.19934,1494.87927,-227.14139,848.31818,1416.05811,-206.44057,789.74109
54,0.442,1465.18811,-197.78017,924.15906,1484.60156,-228.53564,849.36285,1406.47217,-209.47997,792.53265
55,0.45,1456.12268,-200.10843,926.07935,1474.11047,-228.79239,850.21259,1396.26685,-211.0455,793.06561
56,0.458,1445.92627,-201.78955,927.72498,1466.00122,-230.48912,851.84204,1386.46106,-213.43585,794.22534
57,0.467,1436.39038,-202.72064,927.71564,1455.90723,-230.38148,852.40741,1376.52173,-215.43935,795.33539
58,0.475,1428.07092,-203.86462,927.99481,1448.97852,-234.44,852.83301,1366.87622,-218.40782,797.2793
59,0.483,1418.78442,-205.43423,928.48828,1439.1001,-235.62025,852.55658,1357.28137,-221.16765,797.22955
60,0.492,1410.82935,-206.58731,928.37213,1431.32629,-236.63353,852.83673,1349.04395,-223.80611,798.69379
61,0.5,1402.56836,-209.90495,930.25421,1422.11145,-236.86011,852.65131,1339.91943,-223.76517,799.33813
62,0.508,1394.10999,-211.10654,931.2511,1413.04102,-237.95372,853.57758,1328.69812,-223.73892,800.3158
63,0.517,1384.87549,-211.95589,931.79547,1404.19006,-237.5706,854.0943,1319.42896,-223.53865,800.82922
64,0.525,1378.20007,-212.91718,932.14917,1394.44165,-238.29514,855.00659,1312.12781,-222.8092,801.80646
65,0.533,1369.20007,-211.62985,931.84436,1384.89417,-239.7823,855.93872,1302.66235,-219.93372,803.22021
66,0.542,1359.56042,-212.52782,933.0722,1374.98596,-239.89807,856.75928,1294.32996,-217.41393,802.11035
67,0.55,1351.59351,-210.1627,931.85931,1365.35669,-239.9516,856.91077,1283.95557,-216.30777,801.79565
68,0.558,1342.65515,-210.57825,932.33783,1357.31262,-241.97736,856.57184,1277.8512,-215.62285,801.79718
69,0.567,1333.81177,-211.1423,932.49225,1347.07483,-243.6281,858.44519,1269.34949,-216.08763,802.45782
70,0.575,1325.9635,-208.43785,931.5885,1340.11072,-244.19756,858.63452,1260.55396,-217.44534,802.85211
71,0.583,1319.04382,-210.56339,931.8313,1333.75293,-243.90004,857.57318,1252.55774,-219.33357,802.92798
72,0.592,1310.54272,-210.20686,932.17047,1325.57507,-244.61086,858.66724,1244.70728,-218.62894,802.3338
73,0.6,1304.375,-210.89418,932.93677,1317.69995,-244.30537,858.14758,1237.69019,-219.72371,803.22778
74,0.608,1296.57581,-211.2392,933.31689,1310.64453,-244.71742,859.62909,1229.75793,-220.90356,804.11853
75,0.617,1289.20007,-211.56741,933.5929,1303.10254,-245.17497,859.07104,1221.15259,-221.91052,805.72516
76,0.625,1283.54773,-212.67413,933.08301,1294.73438,-244.9314,858.24036,1213.40222,-222.41986,805.77332
77,0.633,1275.05078,-214.08749,934.20801,1289.23047,-245.30876,858.88763,1207.39526,-224.56198,806.41901
78,0.642,1268.58655,-214.58118,934.10083,1281.64734,-245.10788,859.15002,1198.38953,-224.63068,807.48767
79,0.65,1263.00159,-215.72133,933.987,1275.51733,-245.30925,858.91614,1191.13916,-225.89044,807.80365
80,0.658,1254.58472,-215.50153,935.05786,1267.60217,-244.57556,858.18744,1184.27759,-224.70535,808.40814
81,0.667,1250.01086,-216.38817,934.52325,1260.78345,-245.33757,858.28217,1176.17993,-225.70882,807.82501
82,0.675,1241.74719,-216.86852,934.13922,1254.16748,-245.90584,857.46344,1169.04248,-227.40515,807.94678
83,0.683,1236.20251,-217.80389,933.84882,1246.85132,-246.04608,856.72577,1164.47437,-228.94574,808.0036
84,0.692,1228.56812,-217.87607,932.64471,1241.16528,-245.89603,855.66028,1154.88086,-229.44139,809.06348
85,0.7,1222.51624,-219.9196,932.14697,1234.02002,-244.68982,854.85431,1148.97278,-230.91434,807.95062
86,0.708,1215.50452,-218.73802,931.22449,1228.11853,-244.11255,853.13361,1141.62769,-227.45973,807.07098
87,0.717,1209.81799,-220.62793,929.93018,1221.10486,-242.76099,852.27185,1134.84558,-224.217,806.77441
88,0.725,1201.94946,-218.83609,928.77911,1213.24207,-241.89674,851.30109,1126.84509,-222.99162,806.00385
89,0.733,1195.4126,-217.36847,928.46722,1206.70007,-240.75963,849.604,1120.22314,-220.51192,804.32135
90,0.742,1190.84216,-216.51988,926.98364,1198.81006,-240.42955,849.32397,1112.53479,-216.77528,802.72449
91,0.75,1182.02502,-215.27342,926.00549,1191.1051,-239.34198,847.58838,1105.37549,-215.13138,802.27539
92,0.758,1176.47266,-211.63518,923.71875,1183.86865,-238.26697,847.27698,1098.70593,-211.83153,800.77283
93,0.767,1168.755,-208.21001,921.42145,1178.11438,-236.35167,846.39148,1092.06018,-212.6413,798.96191
94,0.775,1160.68835,-207.59634,920.12225,1170.07886,-235.08447,844.73041,1085.22656,-210.70146,798.89252
95,0.783,1154.16943,-204.5255,918.83966,1165.26648,-235.1333,843.97113,1078.72241,-212.42859,797.15265
96,0.792,1147.82202,-204.05299,917.54883,1157.42615,-234.21397,843.13306,1072.71033,-211.80318,795.8642
97,0.8,1141.17053,-203.06976,917.37903,1151.43604,-233.69858,842.14752,1064.8075,-211.7869,796.12024
98,0.808,1133.94214,-201.7972,917.04004,1144.31348,-233.98978,842.39557,1059.18933,-212.01039,795.5174
99,0.817,1129.65698,-203.08534,916.90906,1137.63013,-233.15434,842.12958,1051.09802,-210.64642,795.22675
100,0.825,1121.93286,-202.0054,916.62665,1130.41455,-231.79239,841.81219,1044.37561,-210.08368,795.95624
101,0.833,1117.08728,-202.88658,917.18658,1125.24854,-231.31082,841.89685,1038.61841,-210.80956,797.57648
102,0.842,1108.82031,-202.56754,918.24799,1117.87573,-230.41064,841.43439,1030.14795,-210.69104,798.08099
103,0.85,1104.64539,-203.04973,918.20416,1112.7688,-229.59624,842.07806,1025.53613,-210.2467,798.67255
104,0.858,1096.40552,-202.71931,919.67554,1106.55017,-228.96045,842.12311,1016.9671,-210.32602,799.4472
105,0.867,1090.31396,-200.56313,919.25671,1099.75879,-227.81827,840.87231,1011.97198,-211.33116,798.73242
106,0.875,1085.27148,-200.58813,919.146,1093.98535,-227.07166,841.54077,1003.99902,-210.40884,799.67346
107,0.883,1078.45862,-200.16893,919.67755,1088.28345,-225.20221,840.78882,999.03223,-212.80585,799.15082
108,0.892,1072.91162,-200.6891,918.5578,1081.22693,-224.04921,840.16083,992.47577,-213.49088,798.67865
109,0.9,1065.33362,-199.20447,918.52271,1075.94568,-222.3237,840.22711,986.65833,-212.77779,798.58484
110,0.908,1056.74817,-199.51796,919.65698,1069.42407,-221.3669,840.54987,979.48364,-212.35425,798.59894
111,0.917,1050.55103,-197.17316,921.5423,1063.25012,-219.87366,841.20715,973.43109,-210.75081,800.2077
112,0.925,1044.27539,-197.71376,922.97949,1055.85938,-216.71365,842.65131,966.18164,-206.95818,801.50873
113,0.933,1036.86462,-194.20085,923.84198,1049.46899,-215.26433,844.21796,959.52301,-204.2644,802.62079
114,0.942,1029.98853,-192.51596,925.14087,1041.9021,-214.66127,846.51141,952.04236,-200.06105,802.92523
115,0.95,1022.72589,-190.43864,927.47144,1033.11035,-213.53023,848.08765,945.96271,-197.39868,803.87048
116,0.958,1014.60718,-187.91719,927.21228,1025.93384,-212.93469,849.82587,938.14557,-194.63013,803.75592
117,0.967,1007.02515,-186.22366,927.83679,1018.99042,-212.9529,850.55609,931.91382,-193.99745,805.93048
118,0.975,1000.65479,-184.14984,928.35461,1012.47363,-212.29378,851.50055,925.52289,-192.7547,806.35516
119,0.983,993.53406,-185.14548,929.51477,1005.61133,-211.58104,852.23248,918.36047,-194.24033,806.06207
120,0.992,986.44531,-182.86221,930.44788,998.63208,-212.13582,853.33795,911.01715,-195.13008,806.67383
121,1,977.91309,-181.85532,929.31195,991.79529,-212.16675,853.21173,904.64203,-194.84653,806.49719
122,1.008,972.12073,-184.22015,929.44464,984.64948,-211.20558,852.43622,898.22144,-194.53552,806.91125
123,1.017,965.38226,-182.70076,929.37775,977.63879,-212.04378,853.20752,890.46619,-195.65501,806.42792
124,1.025,958.18481,-183.08446,929.40033,971.43951,-212.28311,852.80237,882.98248,-195.25037,806.06134
125,1.033,951.86798,-184.06456,929.32239,963.99744,-212.29561,852.67615,877.09503,-197.54417,806.88806
126,1.042,944.55731,-184.3746,929.45929,958.85681,-212.40971,852.12817,869.46661,-200.29747,807.08618
127,1.05,938.91943,-186.45393,930.65137,951.18262,-212.36023,852.56262,863.52643,-201.48909,807.60352
128,1.058,932.81665,-186.23637,931.33838,946.19678,-212.2877,852.98547,856.54919,-201.99634,808.1626
129,1.067,927.86084,-186.78249,931.19427,938.39819,-212.07645,852.9184,850.27826,-203.98134,808.02368
130,1.075,920.95941,-187.85471,931.44025,933.42798,-212.04927,852.64209,842.79712,-204.59065,809.70264
131,1.083,916.1308,-189.05583,930.659,927.47388,-211.3703,852.6413,838.32367,-205.21138,810.83722
132,1.092,909.8194,-188.76039,931.57379,922.26935,-212.73679,853.35925,830.89648,-206.13069,811.4425
133,1.1,903.66681,-190.71283,933.35297,916.68347,-212.11694,853.71271,826.47742,-206.08435,811.52759
134,1.108,899.7038,-190.96172,932.61823,909.96674,-211.52898,852.82513,819.36371,-205.72807,812.55713
135,1.117,892.46375,-192.14378,933.54907,904.10242,-211.21225,852.77155,814.17383,-204.96873,813.4552
136,1.125,886.49713,-191.18925,933.51379,897.93256,-211.35115,853.08014,806.45343,-203.38394,813.06036
137,1.133,882.15594,-191.72366,933.63647,890.79034,-211.0562,853.12506,799.82776,-201.25635,813.18225
138,1.142,875.11163,-190.98241,933.43329,883.39545,-210.65546,853.47498,793.82086,-200.40475,811.97485
139,1.15,867.86841,-188.82011,932.55914,878.02429,-211.18532,852.3045,787.60699,-198.47514,811.35388
140,1.158,861.15668,-188.1998,931.81659,871.67981,-210.6748,852.03168,781.89777,-197.61705,808.94415
141,1.167,854.76953,-187.03198,931.29114,864.91101,-210.65846,852.21136,777.13849,-198.08914,808.0365
142,1.175,848.25,-186.41951,929.79089,860.48071,-210.07574,850.43707,769.96216,-198.96243,807.34998
143,1.183,840.83673,-184.69659,927.36102,853.76044,-211.52864,850.3949,764.98859,-200.04675,805.88208
144,1.192,834.073,-183.78772,926.37866,847.63672,-211.75258,848.23859,759.94543,-200.70851,803.79016
145,1.2,829.34467,-185.17358,926.26495,842.5979,-212.61713,848.52283,753.48077,-201.67213,804.07318
146,1.208,821.56836,-185.51903,926.42511,836.42694,-214.32181,848.54846,747.84784,-201.57153,802.09882
147,1.217,817.20673,-187.49208,925.74176,830.1944,-214.91075,848.65851,742.35138,-202.04048,802.10315
148,1.225,811.2381,-188.71208,925.70966,824.48785,-216.04814,847.42096,736.99731,-203.15669,800.87061
149,1.233,805.72687,-190.76393,925.83521,818.99207,-215.57916,847.26129,731.02393,-204.20871,801.00464
150,1.242,798.92969,-192.08672,925.29718,813.55231,-216.2211,846.06244,725.69629,-205.66962,800.33386
151,1.25,794.50726,-191.31897,925.11432,807.40771,-216.20215,845.55853,719.09039,-207.44931,799.84961
152,1.258,786.22119,-191.16895,923.99084,801.70789,-216.771,845.07751,713.4422,-207.58707,799.35498
153,1.267,782.08252,-193.25754,923.06311,795.42847,-216.44611,844.66669,707.71759,-208.15498,798.85315
154,1.275,775.89331,-192.23433,922.60913,791.0885,-217.20062,843.33032,701.56537,-209.62967,798.48511
155,1.283,769.9306,-194.82076,921.84357,783.97607,-217.69937,842.64771,696.16046,-210.64812,797.36426
156,1.292,763.3125,-194.43431,920.52435,778.03772,-216.97488,841.57959,689.6814,-211.92476,796.12531
157,1.3,757.2879,-197.35727,920.01868,771.4079,-217.19455,840.27991,684.10895,-212.19408,795.32452
158,1.308,751.01642,-196.76651,918.25055,765.39258,-216.55473,838.76245,676.82886,-212.0295,794.12122
159,1.317,743.11566,-197.10567,917.72394,758.36261,-216.47914,836.71991,669.59174,-211.71715,792.41473
160,1.325,737.12354,-197.60907,916.90192,751.75,-215.92323,835.63831,663.04596,-210.81944,790.73853
161,1.333,730.56628,-197.597,915.43134,744.47931,-216.67282,835.4494,655.9342,-208.62172,789.16595
162,1.342,721.52325,-196.96703,914.41052,736.633,-216.65395,832.7851,648.73315,-207.17818,786.48682
163,1.35,713.94604,-195.2538,911.24146,728.65369,-217.65845,831.96167,641.08514,-207.36555,784.24274
164,1.358,704.74554,-194.83099,909.14685,720.27032,-219.63675,830.93915,633.68469,-206.86574,782.37128
165,1.367,696.95923,-195.0495,907.96466,713.42065,-220.83118,829.15997,627.32416,-210.17326,782.01019
166,1.375,688.84479,-193.54282,905.18805,706.20593,-221.39893,827.90131,619.46204,-210.44057,780.19183
167,1.383,680.58881,-195.09848,904.47052,698.79266,-221.99869,826.66351,612.29883,-211.26401,778.56689
168,1.392,672.57068,-197.60616,903.94312,690.66711,-221.70557,825.3363,604.58069,-211.85423,776.66187
169,1.4,665.4765,-198.16214,902.62592,683.30829,-224.0824,824.67047,595.83771,-212.28702,775.78076
170,1.408,657.52844,-199.49876,901.76953,674.30963,-225.72186,823.93243,588.7243,-213.83475,774.84949
171,1.417,651.03687,-202.94327,900.81464,666.48218,-227.36009,823.11536,580.65289,-216.24928,773.67084
172,1.425,642.36774,-202.8199,900.17273,657.92285,-227.41531,821.65582,570.57654,-216.22948,772.60132
173,1.433,633.78802,-204.70238,899.39496,650.45569,-228.78671,821.28503,564.80847,-220.80885,773.12598
174,1.442,625.25073,-205.31526,900.11261,642.13104,-229.54953,820.77515,555.92102,-222.08113,772.04346
175,1.45,617.08331,-207.17847,899.18658,633.60565,-230.50212,820.18036,547.25903,-224.05009,772.3645
176,1.458,609.17358,-208.88979,899.3717,624.99524,-231.13463,820.3526,537.74005,-225.72289,772.85614
177,1.467,600.21588,-210.4951,900.78149,616.33441,-233.58424,820.88629,530.1944,-227.4855,773.10132
178,1.475,592.01624,-210.72948,901.21283,608.80957,-234.78392,821.17151,521.87811,-229.49782,773.55817
179,1.483,581.93811,-211.18741,901.76154,600.66711,-234.35783,821.79443,513.14581,-229.54306,774.40784
180,1.492,573.21436,-211.65163,903.68762,591.00311,-235.54126,824.00494,504.53418,-230.23795,775.37939
181,1.5,565.02972,-213.47945,906.41608,582.44849,-236.40105,825.75104,495.76407,-230.56061,778.04645
182,1.508,555.99561,-215.07146,907.53119,573.78174,-236.32098,827.44824,487.24167,-229.92929,778.82928
183,1.517,547.02081,-215.6234,910.15259,564.77576,-236.62231,830.06421,478.22128,-228.82678,780.47882
184,1.525,537.3894,-215.99184,911.83002,554.67133,-238.68637,831.37946,469.55493,-229.12547,782.08527
185,1.533,528.19379,-215.69788,913.21057,545.93408,-240.28899,834.77386,460.98291,-229.38191,783.17859
186,1.542,518.95874,-216.90862,914.93317,537.26245,-241.62534,836.74042,452.54239,-230.32167,786.10565
187,1.55,510.43771,-217.01883,916.1344,529.01379,-244.16768,838.91754,444.73349,-231.79396,787.42236
188,1.558,501.61066,-218.36871,918.79541,520.52405,-245.94647,839.61566,434.98727,-233.45796,789.0199
189,1.567,493.4982,-220.15331,919.27148,511.42999,-248.00104,841.84167,426.78339,-234.40984,790.67444
190,1.575,485.01892,-222.38147,920.84326,502.63455,-248.99646,842.40363,417.8504,-235.78458,792.04333
191,1.583,477.0257,-225.70959,922.03888,495.22791,-251.88023,843.83337,409.5766,-238.65166,792.75385
192,1.592,469.07928,-227.6981,922.89484,485.47491,-254.5954,845.91272,401.77811,-240.50952,794.29956
193,1.6,460.45114,-230.15565,924.45917,477.44418,-256.29196,846.76385,392.83575,-242.94748,795.07147
