Frame#,Time,R.Forearm.x,R.Forearm.y,R.Forearm.z,R.Ulna.x,R.Ulna.y,R.Ulna.z,R.Radius.x,R.Radius.y,R.Radius.z
1,0,130.63429,-168.22722,670.03363,177.11404,-184.43898,585.89252,182.84796,-103.28397,603.75824
2,0.008,130.98012,-168.10732,670.15454,177.11404,-184.43898,585.89252,182.84796,-103.28397,603.75824
3,0.017,129.55714,-167.51103,669.14227,177.11404,-184.43898,585.89252,183.45662,-103.57524,602.47827
4,0.025,129.55714,-167.51103,669.14227,177.31035,-184.22083,585.96478,182.93695,-104.10612,602.53735
5,0.033,129.55714,-167.51103,669.14227,177.31035,-184.22083,585.96478,182.93695,-104.10612,602.53735
6,0.042,129.789,-167.39201,669.36847,177.31035,-184.22083,585.96478,182.93695,-104.10612,602.53735
7,0.05,130.1489,-167.08119,669.22028,177.31035,-184.22083,585.96478,183.68372,-103.31525,602.39154
8,0.058,129.99297,-167.1732,669.53711,177.31035,-184.22083,585.96478,182.93695,-104.10612,602.53735
9,0.067,129.99297,-167.1732,669.53711,177.37048,-184.07944,586.06445,182.93695,-104.10612,602.53735
10,0.075,130.45316,-167.0631,670.04419,177.20325,-183.96191,586.2038,183.68372,-103.31525,602.39154
11,0.083,130.45316,-167.0631,670.04419,177.20325,-183.96191,586.2038,182.05258,-104.26437,604.37909
12,0.092,130.45316,-167.0631,670.04419,177.20325,-183.96191,586.2038,182.05258,-104.26437,604.37909
13,0.1,130.45316,-167.0631,670.04419,177.64241,-183.7809,586.23755,182.05258,-104.26437,604.37909
14,0.108,130.45316,-167.0631,670.04419,177.81285,-183.89366,586.42725,183.70667,-102.44332,603.7392
15,0.117,130.99908,-166.57265,670.15503,178.07782,-184.27585,586.72852,182.05258,-104.26437,604.37909
16,0.125,131.0256,-166.37009,670.37463,178.94574,-183.82552,586.87152,182.05258,-104.26437,604.37909
17,0.133,131.0256,-166.37009,670.37463,179.26685,-183.93164,587.01166,182.05258,-104.26437,604.37909
18,0.142,131.1935,-166.12056,670.44305,179.31352,-183.91483,587.19177,182.05258,-104.26437,604.37909
19,0.15,131.1935,-166.12056,670.44305,179.31352,-183.91483,587.19177,183.70667,-102.44332,603.7392
20,0.158,131.57393,-165.93895,670.70209,179.4614,-183.76489,587.31232,182.55988,-104.35973,604.12372
21,0.167,131.73586,-164.85611,670.62604,179.4614,-183.76489,587.31232,182.05258,-104.26437,604.37909
22,0.175,131.73586,-164.85611,670.62604,179.88876,-183.67656,587.37793,182.05258,-104.26437,604.37909
23,0.183,131.73586,-164.85611,670.62604,179.88876,-183.67656,587.37793,183.94856,-103.76289,604.4682
24,0.192,131.73586,-164.85611,670.62604,179.88876,-183.67656,587.37793,184.15198,-102.62533,603.56281
25,0.2,131.73586,-164.85611,670.62604,179.88876,-183.67656,587.37793,182.05258,-104.26437,604.37909
26,0.208,131.73586,-164.85611,670.62604,179.73471,-183.91608,587.35046,182.55988,-104.35973,604.12372
27,0.217,131.84726,-165.64413,670.65887,179.4614,-183.76489,587.31232,182.55988,-104.35973,604.12372
28,0.225,131.84726,-165.64413,670.65887,179.4614,-183.76489,587.31232,182.55988,-104.35973,604.12372
29,0.233,131.57393,-165.93895,670.70209,179.4614,-183.76489,587.31232,182.55988,-104.35973,604.12372
30,0.242,131.57393,-165.93895,670.70209,179.58684,-184.06601,587.22992,182.05258,-104.26437,604.37909
31,0.25,131.5497,-165.78465,670.862,179.31352,-183.91483,587.19177,182.05258,-104.26437,604.37909
32,0.258,131.1935,-166.12056,670.44305,179.31352,-183.91483,587.19177,184.15198,-102.62533,603.56281
33,0.267,131.57393,-165.93895,670.70209,179.31352,-183.91483,587.19177,182.55988,-104.35973,604.12372
34,0.275,131.57393,-165.93895,670.70209,179.31352,-183.91483,587.19177,182.05258,-104.26437,604.37909
35,0.283,131.57393,-165.93895,670.70209,179.31352,-183.91483,587.19177,182.05258,-104.26437,604.37909
36,0.292,131.57393,-165.93895,670.70209,179.31352,-183.91483,587.19177,182.05258,-104.26437,604.37909
37,0.3,131.22005,-165.91812,670.66278,179.31352,-183.91483,587.19177,182.05258,-104.26437,604.37909
38,0.308,131.57393,-165.93895,670.70209,179.58684,-184.06601,587.22992,183.70667,-102.44332,603.7392
39,0.317,131.57393,-165.93895,670.70209,179.58684,-184.06601,587.22992,182.05258,-104.26437,604.37909
40,0.325,131.57393,-165.93895,670.70209,179.58684,-184.06601,587.22992,182.05258,-104.26437,604.37909
41,0.333,131.57393,-165.93895,670.70209,179.58684,-184.06601,587.22992,182.05258,-104.26437,604.37909
42,0.342,131.5497,-165.78465,670.862,179.4614,-183.76489,587.31232,182.05258,-104.26437,604.37909
43,0.35,131.57393,-165.93895,670.70209,179.4614,-183.76489,587.31232,182.05258,-104.26437,604.37909
44,0.358,131.57393,-165.93895,670.70209,179.73471,-183.91608,587.35046,183.70667,-102.44332,603.7392
45,0.367,131.57393,-165.93895,670.70209,179.73471,-183.91608,587.35046,182.05258,-104.26437,604.37909
46,0.375,131.57393,-165.93895,670.70209,179.73471,-183.91608,587.35046,183.70667,-102.44332,603.7392
47,0.383,132.10872,-166.68927,671.13031,179.73471,-183.91608,587.35046,182.05258,-104.26437,604.37909
48,0.392,131.57393,-165.93895,670.70209,179.88876,-183.67656,587.37793,183.70667,-102.44332,603.7392
49,0.4,131.5497,-165.78465,670.862,179.88876,-183.67656,587.37793,182.05258,-104.26437,604.37909
50,0.408,131.57393,-165.93895,670.70209,179.61543,-183.52534,587.33978,183.70667,-102.44332,603.7392
51,0.417,131.57393,-165.93895,670.70209,179.61543,-183.52534,587.33978,182.05258,-104.26437,604.37909
52,0.425,131.5497,-165.78465,670.862,179.61543,-183.52534,587.33978,183.70667,-102.44332,603.7392
53,0.433,131.5497,-165.78465,670.862,179.61543,-183.52534,587.33978,182.05258,-104.26437,604.37909
54,0.442,131.1837,-165.19519,670.96118,179.61543,-183.52534,587.33978,182.05258,-104.26437,604.37909
55,0.45,131.1837,-165.19519,670.96118,179.61543,-183.52534,587.33978,182.05258,-104.26437,604.37909
56,0.458,131.1837,-165.19519,670.96118,179.61543,-183.52534,587.33978,182.05258,-104.26437,604.37909
57,0.467,131.1837,-165.19519,670.96118,179.61543,-183.52534,587.33978,183.83513,-102.39741,603.97723
58,0.475,131.1837,-165.19519,670.96118,179.4635,-183.44472,587.44489,184.31879,-101.67061,602.54364
59,0.483,130.80418,-164.98808,671.09003,179.4635,-183.44472,587.44489,181.96729,-103.09842,604.42548
60,0.492,130.80418,-164.98808,671.09003,179.61543,-183.52534,587.33978,181.96729,-103.09842,604.42548
61,0.5,131.1837,-165.19519,670.96118,179.4635,-183.44472,587.44489,181.78748,-103.39883,604.18402
62,0.508,130.47443,-165.12151,670.89081,179.4635,-183.44472,587.44489,182.34061,-103.6806,605.22479
63,0.517,130.80418,-164.98808,671.09003,179.4635,-183.44472,587.44489,182.34061,-103.6806,605.22479
64,0.525,130.80418,-164.98808,671.09003,179.1571,-183.52164,587.46143,182.34061,-103.6806,605.22479
65,0.533,130.80418,-164.98808,671.09003,179.4635,-183.44472,587.44489,182.34061,-103.6806,605.22479
66,0.542,130.80418,-164.98808,671.09003,179.1571,-183.52164,587.46143,182.34061,-103.6806,605.22479
67,0.55,130.80418,-164.98808,671.09003,179.25105,-183.40907,587.52911,182.34061,-103.6806,605.22479
68,0.558,130.80418,-164.98808,671.09003,179.1571,-183.52164,587.46143,183.50391,-102.31599,604.71008
69,0.567,130.80418,-164.98808,671.09003,179.4635,-183.44472,587.44489,182.34061,-103.6806,605.22479
70,0.575,130.80418,-164.98808,671.09003,179.4635,-183.44472,587.44489,182.34061,-103.6806,605.22479
71,0.583,130.80418,-164.98808,671.09003,179.4635,-183.44472,587.44489,182.34061,-103.6806,605.22479
72,0.592,131.5497,-165.78465,670.862,179.61543,-183.52534,587.33978,182.34061,-103.6806,605.22479
73,0.6,131.5497,-165.78465,670.862,179.4635,-183.44472,587.44489,182.34061,-103.6806,605.22479
74,0.608,131.5497,-165.78465,670.862,179.61543,-183.52534,587.33978,182.34061,-103.6806,605.22479
75,0.617,131.5497,-165.78465,670.862,179.4635,-183.44472,587.44489,182.34061,-103.6806,605.22479
76,0.625,131.5497,-165.78465,670.862,179.4635,-183.44472,587.44489,182.34061,-103.6806,605.22479
77,0.633,131.1837,-165.19519,670.96118,179.4635,-183.44472,587.44489,182.34061,-103.6806,605.22479
78,0.642,131.1837,-165.19519,670.96118,179.4635,-183.44472,587.44489,182.34061,-103.6806,605.22479
79,0.65,130.80418,-164.98808,671.09003,179.4635,-183.44472,587.44489,182.34061,-103.6806,605.22479
80,0.658,130.80418,-164.98808,671.09003,179.4635,-183.44472,587.44489,182.34061,-103.6806,605.22479
81,0.667,130.80418,-164.98808,671.09003,179.4635,-183.44472,587.44489,182.34061,-103.6806,605.22479
82,0.675,130.80418,-164.98808,671.09003,178.88182,-183.33145,587.66351,182.34061,-103.6806,605.22479
83,0.683,130.80418,-164.98808,671.09003,178.88182,-183.33145,587.66351,182.34061,-103.6806,605.22479
84,0.692,130.80418,-164.98808,671.09003,178.88182,-183.33145,587.66351,182.34061,-103.6806,605.22479
85,0.7,130.5309,-165.28322,671.1333,178.88182,-183.33145,587.66351,182.34061,-103.6806,605.22479
86,0.708,130.80418,-164.98808,671.09003,178.88182,-183.33145,587.66351,182.34061,-103.6806,605.22479
87,0.717,130.47443,-165.12151,670.89081,178.88182,-183.33145,587.66351,182.34061,-103.6806,605.22479
88,0.725,130.80418,-164.98808,671.09003,178.88182,-183.33145,587.66351,182.34061,-103.6806,605.22479
89,0.733,130.47443,-165.12151,670.89081,178.88182,-183.33145,587.66351,182.34061,-103.6806,605.22479
90,0.742,130.47443,-165.12151,670.89081,178.88182,-183.33145,587.66351,182.34061,-103.6806,605.22479
91,0.75,130.47443,-165.12151,670.89081,178.88182,-183.33145,587.66351,182.34061,-103.6806,605.22479
92,0.758,130.47443,-165.12151,670.89081,178.88182,-183.33145,587.66351,182.34061,-103.6806,605.22479
93,0.767,130.47443,-165.12151,670.89081,178.88182,-183.33145,587.66351,182.34061,-103.6806,605.22479
94,0.775,130.80418,-164.98808,671.09003,178.88182,-183.33145,587.66351,182.34061,-103.6806,605.22479
95,0.783,130.80418,-164.98808,671.09003,178.88182,-183.33145,587.66351,182.34061,-103.6806,605.22479
96,0.792,130.47443,-165.12151,670.89081,179.106,-183.35297,587.58765,182.34061,-103.6806,605.22479
97,0.8,130.47443,-165.12151,670.89081,178.88182,-183.33145,587.66351,182.34061,-103.6806,605.22479
98,0.808,130.47443,-165.12151,670.89081,179.106,-183.35297,587.58765,182.34061,-103.6806,605.22479
99,0.817,130.80418,-164.98808,671.09003,178.88182,-183.33145,587.66351,182.34061,-103.6806,605.22479
100,0.825,130.47443,-165.12151,670.89081,178.88182,-183.33145,587.66351,182.34061,-103.6806,605.22479
101,0.833,130.20111,-165.41658,670.93408,178.88182,-183.33145,587.66351,182.34061,-103.6806,605.22479
102,0.842,130.03319,-165.66611,670.86566,178.88182,-183.33145,587.66351,182.34061,-103.6806,605.22479
103,0.85,130.03319,-165.66611,670.86566,178.88182,-183.33145,587.66351,182.34061,-103.6806,605.22479
104,0.858,130.03319,-165.66611,670.86566,178.88182,-183.33145,587.66351,182.34061,-103.6806,605.22479
105,0.867,130.03319,-165.66611,670.86566,178.93294,-183.50012,587.53723,182.34061,-103.6806,605.22479
106,0.875,129.76053,-165.86186,670.71167,178.70718,-183.36299,587.39679,181.91566,-104.17641,605.15033
107,0.883,130.10016,-166.65359,670.39276,178.48567,-183.45177,587.08325,181.91566,-104.17641,605.15033
108,0.892,130.10016,-166.65359,670.39276,178.4053,-183.7525,587.24872,181.91566,-104.17641,605.15033
109,0.9,130.07361,-166.85605,670.1731,178.40776,-183.77965,586.96375,181.91566,-104.17641,605.15033
110,0.908,130.07361,-166.85605,670.1731,178.40776,-183.77965,586.96375,181.91566,-104.17641,605.15033
111,0.917,130.45316,-167.0631,670.04419,178.09373,-183.95215,586.90424,181.91566,-104.17641,605.15033
112,0.925,130.09325,-167.37393,670.19232,178.09373,-183.95215,586.90424,181.91566,-104.17641,605.15033
113,0.933,130.09325,-167.37393,670.19232,178.04701,-183.96892,586.72406,183.22659,-102.6771,604.65216
114,0.942,130.09325,-167.37393,670.19232,177.6949,-184.09738,586.71063,183.103,-102.69775,604.44012
115,0.95,130.09325,-167.37393,670.19232,177.64241,-183.7809,586.23755,181.91566,-104.17641,605.15033
116,0.958,130.09325,-167.37393,670.19232,177.64241,-183.7809,586.23755,181.91566,-104.17641,605.15033
117,0.967,130.09325,-167.37393,670.19232,177.20325,-183.96191,586.2038,181.91566,-104.17641,605.15033
118,0.975,130.09325,-167.37393,670.19232,177.20325,-183.96191,586.2038,181.91347,-104.33533,604.56604
119,0.983,130.09325,-167.37393,670.19232,177.20325,-183.96191,586.2038,181.91347,-104.33533,604.56604
120,0.992,129.76363,-167.50754,669.99323,177.20325,-183.96191,586.2038,181.91347,-104.33533,604.56604
121,1,130.09325,-167.37393,670.19232,177.37048,-184.07944,586.06445,181.91347,-104.33533,604.56604
122,1.008,130.09325,-167.37393,670.19232,177.37048,-184.07944,586.06445,181.91347,-104.33533,604.56604
123,1.017,129.76363,-167.50754,669.99323,177.37048,-184.07944,586.06445,181.91347,-104.33533,604.56604
124,1.025,129.76363,-167.50754,669.99323,177.37048,-184.07944,586.06445,181.91347,-104.33533,604.56604
125,1.033,130.62851,-168.12421,670.62085,177.73386,-183.90637,586.11139,181.91347,-104.33533,604.56604
126,1.042,130.62851,-168.12421,670.62085,178.071,-184.15898,586.23682,182.95503,-103.05235,603.97491
127,1.05,130.62851,-168.12421,670.62085,178.8777,-184.08998,586.41052,181.91347,-104.33533,604.56604
128,1.058,130.98834,-167.81337,670.47272,178.65031,-184.29373,586.28076,181.91347,-104.33533,604.56604
129,1.067,130.62851,-168.12421,670.62085,178.65031,-184.29373,586.28076,181.91347,-104.33533,604.56604
130,1.075,130.98834,-167.81337,670.47272,179.22595,-184.27448,586.38873,181.91347,-104.33533,604.56604
131,1.083,130.62851,-168.12421,670.62085,179.22595,-184.27448,586.38873,181.91347,-104.33533,604.56604
132,1.092,131.27806,-167.98343,670.34253,179.34525,-184.10251,586.24927,181.91347,-104.33533,604.56604
133,1.1,131.27806,-167.98343,670.34253,179.08418,-183.72446,585.96564,181.91347,-104.33533,604.56604
134,1.108,131.27806,-167.98343,670.34253,179.28117,-183.84094,586.06067,181.91347,-104.33533,604.56604
135,1.117,131.27806,-167.98343,670.34253,179.08418,-183.72446,585.96564,183.16284,-102.86438,604.00159
136,1.125,131.27806,-167.98343,670.34253,179.08418,-183.72446,585.96564,181.91347,-104.33533,604.56604
137,1.133,130.95308,-168.08345,670.18018,179.31224,-183.51741,585.82941,181.91347,-104.33533,604.56604
138,1.142,130.95308,-168.08345,670.18018,179.31224,-183.51741,585.82941,182.33852,-103.83948,604.64063
139,1.15,130.95308,-168.08345,670.18018,179.31224,-183.51741,585.82941,182.33852,-103.83948,604.64063
140,1.158,130.95308,-168.08345,670.18018,179.31224,-183.51741,585.82941,182.33852,-103.83948,604.64063
141,1.167,130.82263,-168.05994,669.87231,179.31224,-183.51741,585.82941,182.33852,-103.83948,604.64063
142,1.175,130.82263,-168.05994,669.87231,179.16655,-183.41856,585.6452,182.34061,-103.6806,605.22479
143,1.183,130.82263,-168.05994,669.87231,179.16655,-183.41856,585.6452,183.56387,-102.48263,604.27167
144,1.192,130.9639,-168.3143,669.6908,179.16655,-183.41856,585.6452,182.33852,-103.83948,604.64063
145,1.2,130.9639,-168.3143,669.6908,179.16655,-183.41856,585.6452,182.33852,-103.83948,604.64063
146,1.208,130.9639,-168.3143,669.6908,179.16655,-183.41856,585.6452,182.05258,-104.26437,604.37909
147,1.217,131.1198,-168.22223,669.37396,179.24065,-183.45114,585.48175,182.05258,-104.26437,604.37909
148,1.225,131.25583,-168.24409,669.13477,179.24065,-183.45114,585.48175,182.33852,-103.83948,604.64063
149,1.233,131.68045,-168.40399,669.34912,179.24065,-183.45114,585.48175,182.05258,-104.26437,604.37909
150,1.242,131.54991,-168.38042,669.0412,179.58334,-183.6665,585.76105,182.05258,-104.26437,604.37909
151,1.25,131.68045,-168.40399,669.34912,179.81516,-183.79137,585.76331,182.05258,-104.26437,604.37909
152,1.258,132.34203,-168.16496,669.328,179.81516,-183.79137,585.76331,182.05258,-104.26437,604.37909
153,1.267,132.21155,-168.14139,669.02008,179.81516,-183.79137,585.76331,182.05258,-104.26437,604.37909
154,1.275,132.21155,-168.14139,669.02008,179.81516,-183.79137,585.76331,182.05258,-104.26437,604.37909
155,1.283,132.34203,-168.16496,669.328,179.91885,-183.58096,585.84064,182.05258,-104.26437,604.37909
156,1.292,132.34203,-168.16496,669.328,179.91885,-183.58096,585.84064,182.05258,-104.26437,604.37909
157,1.3,132.34203,-168.16496,669.328,179.91885,-183.58096,585.84064,182.80923,-103.83472,604.69391
158,1.308,132.34203,-168.16496,669.328,179.91885,-183.58096,585.84064,182.80923,-103.83472,604.69391
159,1.317,132.34203,-168.16496,669.328,179.91885,-183.58096,585.84064,182.80923,-103.83472,604.69391
160,1.325,132.34203,-168.16496,669.328,179.91885,-183.58096,585.84064,182.80923,-103.83472,604.69391
161,1.333,132.21155,-168.14139,669.02008,179.96379,-183.4026,585.97449,182.05258,-104.26437,604.37909
162,1.342,132.34203,-168.16496,669.328,179.91885,-183.58096,585.84064,182.04248,-104.05926,605.1012
163,1.35,132.34203,-168.16496,669.328,179.96379,-183.4026,585.97449,182.79895,-103.62965,605.41571
164,1.358,132.34203,-168.16496,669.328,179.91885,-183.58096,585.84064,182.79895,-103.62965,605.41571
165,1.367,132.34203,-168.16496,669.328,179.91885,-183.58096,585.84064,182.80923,-103.83472,604.69391
166,1.375,132.34203,-168.16496,669.328,179.96379,-183.4026,585.97449,182.80923,-103.83472,604.69391
167,1.383,132.34203,-168.16496,669.328,179.96379,-183.4026,585.97449,182.04248,-104.05926,605.1012
168,1.392,132.34203,-168.16496,669.328,179.97025,-183.1563,586.2547,182.79895,-103.62965,605.41571
169,1.4,132.34203,-168.16496,669.328,179.96379,-183.4026,585.97449,182.79895,-103.62965,605.41571
170,1.408,132.34203,-168.16496,669.328,179.96379,-183.4026,585.97449,182.04248,-104.05926,605.1012
171,1.417,132.34203,-168.16496,669.328,179.96379,-183.4026,585.97449,182.04248,-104.05926,605.1012
172,1.425,132.34203,-168.16496,669.328,179.92532,-183.33452,586.12079,182.79895,-103.62965,605.41571
173,1.433,132.34203,-168.16496,669.328,179.92532,-183.33452,586.12079,182.79895,-103.62965,605.41571
174,1.442,132.34203,-168.16496,669.328,179.8804,-183.51291,585.98688,182.79895,-103.62965,605.41571
175,1.45,132.34203,-168.16496,669.328,179.96379,-183.4026,585.97449,182.79895,-103.62965,605.41571
176,1.458,132.34203,-168.16496,669.328,179.92532,-183.33452,586.12079,182.04248,-104.05926,605.1012
177,1.467,132.34203,-168.16496,669.328,179.96379,-183.4026,585.97449,182.79895,-103.62965,605.41571
178,1.475,132.34203,-168.16496,669.328,179.92532,-183.33452,586.12079,182.79895,-103.62965,605.41571
179,1.483,132.34203,-168.16496,669.328,179.92532,-183.33452,586.12079,182.04248,-104.05926,605.1012
180,1.492,132.34203,-168.16496,669.328,179.92532,-183.33452,586.12079,182.04248,-104.05926,605.1012
181,1.5,132.34203,-168.16496,669.328,179.92532,-183.33452,586.12079,182.04248,-104.05926,605.1012
182,1.508,132.34203,-168.16496,669.328,179.92532,-183.33452,586.12079,182.79895,-103.62965,605.41571
183,1.517,132.34203,-168.16496,669.328,179.92532,-183.33452,586.12079,182.79895,-103.62965,605.41571
184,1.525,132.34203,-168.16496,669.328,179.97025,-183.1563,586.2547,182.79895,-103.62965,605.41571
185,1.533,132.34203,-168.16496,669.328,179.97025,-183.1563,586.2547,182.79895,-103.62965,605.41571
186,1.542,132.23386,-168.10135,669.57843,179.97025,-183.1563,586.2547,182.04248,-104.05926,605.1012
187,1.55,132.50671,-167.81737,669.55701,179.97025,-183.1563,586.2547,182.79895,-103.62965,605.41571
188,1.558,132.50671,-167.81737,669.55701,179.97025,-183.1563,586.2547,182.79895,-103.62965,605.41571
189,1.567,132.23386,-168.10135,669.57843,179.97025,-183.1563,586.2547,182.79895,-103.62965,605.41571
190,1.575,132.07796,-168.19342,669.89526,179.97025,-183.1563,586.2547,182.04248,-104.05926,605.1012
191,1.583,132.23386,-168.10135,669.57843,179.97025,-183.1563,586.2547,182.79895,-103.62965,605.41571
192,1.592,132.6235,-167.70296,670.00592,180.19113,-183.2484,586.5238,182.79895,-103.62965,605.41571
193,1.6,132.77933,-167.61089,669.68909,180.19113,-183.2484,586.5238,182.80923,-103.83472,604.69391
194,1.608,132.6235,-167.70296,670.00592,180.16733,-183.51289,586.65204,182.80923,-103.83472,604.69391
195,1.617,132.35086,-167.90945,669.8739,180.16733,-183.51289,586.65204,182.80923,-103.83472,604.69391
196,1.625,132.77933,-167.61089,669.68909,180.19113,-183.2484,586.5238,182.80923,-103.83472,604.69391
197,1.633,132.77933,-167.61089,669.68909,180.03429,-183.41785,586.44324,182.80923,-103.83472,604.69391
