Frame#,Time,L.Forearm.x,L.Forearm.y,L.Forearm.z,L.Ulna.x,L.Ulna.y,L.Ulna.z,L.Radius.x,L.Radius.y,L.Radius.z
1,0,240.61832,176.40482,795.29199,291.7182,243.45193,727.95313,336.57343,167.39487,681.89136
2,0.008,239.70386,182.47365,794.65033,290.54837,250.26874,727.38123,336.67154,173.55986,681.72284
3,0.017,240.9752,186.44371,794.46973,287.62595,256.53119,727.22192,334.53452,182.99294,681.78864
4,0.025,239.47092,192.89125,793.65283,286.35492,262.56149,726.92572,334.71524,189.43315,681.89227
5,0.033,239.45728,198.27928,794.45587,284.31924,268.91205,726.41974,334.49896,196.54645,681.98761
6,0.042,239.07646,204.05832,794.44153,282.47595,276.38272,726.09698,334.90488,203.53349,682.14624
7,0.05,238.19829,208.88495,794.47614,280.5018,281.34647,725.78168,334.65387,211.18906,681.90485
8,0.058,237.85121,214.48091,794.29681,278.4964,287.42587,725.84998,333.57431,219.12505,682.22729
9,0.067,237.4971,219.2536,794.43732,276.73062,294.8074,725.93964,332.16934,226.12004,682.48859
10,0.075,236.26009,225.68356,793.98792,274.5549,300.02716,726.36115,333.19318,235.11794,681.96503
11,0.083,236.101,230.8651,794.62964,271.46545,306.89722,725.47235,331.06888,241.44362,682.29175
12,0.092,234.89069,235.80542,794.48633,270.15277,312.185,725.99017,331.50522,248.74486,682.4079
13,0.1,234.0491,242.25571,794.099,267.74957,317.43576,726.43842,330.12469,256.20016,682.54327
14,0.108,233.81047,245.97385,794.45483,266.16263,325.52496,725.99286,328.16202,264.05627,682.92273
15,0.117,231.98369,252.71558,794.16479,262.79187,329.67523,726.76361,327.52896,270.78302,683.16895
16,0.125,232.15387,258.14645,795.13611,261.20428,336.80957,727.39581,326.61673,277.40891,684.21558
17,0.133,231.01521,263.341,795.40991,258.37186,342.39365,728.17242,325.74469,285.30569,684.54608
18,0.142,230.67622,268.56815,796.89801,256.5994,348.29807,728.81659,323.82941,292.25403,685.04626
19,0.15,230.14,273.13217,796.46613,254.38556,354.84003,729.29877,323.78778,299.27316,686.66992
20,0.158,230.3916,278.09207,797.42133,250.88567,360.23462,730.61768,322.89957,307.27103,687.56421
21,0.167,230.17346,283.40027,798.41162,249.79276,366.56989,731.10175,322.60443,314.7514,688.39917
22,0.175,228.48369,288.55225,799.27649,246.50241,371.91611,733.71625,321.0946,322.0293,690.1131
23,0.183,226.12752,294.63205,799.82874,244.78769,377.14978,734.40479,320.17877,330.17987,691.92017
24,0.192,225.34961,299.33319,800.88049,242.99773,383.47107,735.57574,317.89499,337.3316,692.77869
25,0.2,223.96489,304.64606,802.36774,240.43335,388.69693,736.91016,316.81079,344.08539,694.65771
26,0.208,223.10428,309.56287,804.22687,238.40376,395.49258,739.23718,315.5202,351.78033,695.90356
27,0.217,222.75906,315.56631,805.47217,235.42303,399.94135,740.8728,313.75693,359.36526,697.71588
28,0.225,222.73961,319.48141,807.20251,233.14244,405.92007,742.27045,312.20233,366.85672,699.79382
29,0.233,221.41621,325.74368,809.17859,231.55217,410.73068,744.42084,312.01318,372.01477,701.97174
30,0.242,221.0099,330.11514,811.50653,229.28932,416.49695,745.84369,310.34335,379.74255,704.55554
31,0.25,219.79092,334.24002,813.18726,227.14053,421.60992,749.17334,309.51636,387.43158,706.66138
32,0.258,219.927,339.9411,815.62823,225.01915,427.2681,751.56122,308.11279,393.70212,709.96466
33,0.267,217.8559,344.01413,817.24628,221.67822,432.29178,754.41138,306.98627,400.84912,712.4906
34,0.275,217.61455,350.07574,820.17804,221.06381,437.09204,756.84161,305.80109,407.09406,715.10541
35,0.283,217.76892,353.71094,822.38855,219.62657,441.06558,760.02008,304.74188,414.31848,718.34222
36,0.292,217.03029,358.79611,824.85211,216.75261,445.83746,763.09851,304.77679,420.47763,722.76837
37,0.3,216.82318,362.28513,827.88196,215.71355,451.2276,765.24719,303.05362,428.16626,726.31287
38,0.308,215.45985,368.0162,830.78564,214.45706,455.00421,769.00757,302.25494,433.31454,729.77808
39,0.317,215.07788,371.87384,833.95233,212.43179,459.49405,772.19763,301.84189,439.50439,734.01556
40,0.325,214.08107,376.4259,836.60126,211.75897,463.75778,775.10339,300.63321,446.11911,738.09857
41,0.333,213.78708,379.84192,840.78278,211.01382,469.49887,779.57086,299.58499,452.31842,742.58386
42,0.342,213.23138,384.2421,842.94177,207.4286,473.53653,783.28448,298.9617,458.30673,747.34509
43,0.35,212.68658,388.70319,847.57605,207.08041,476.25546,786.58667,298.48138,463.59369,752.29395
44,0.358,212.4283,392.90903,850.92395,205.48932,481.47641,791.00079,298.01724,468.5394,756.46558
45,0.367,211.33318,396.18481,854.79785,204.8067,485.55655,794.53967,297.16772,475.62326,761.80408
46,0.375,211.29512,401.20969,859.21393,203.78801,488.94031,799.27173,297.12015,480.24734,766.97131
47,0.383,210.78133,404.78516,862.45428,202.57652,492.625,804.03058,296.17383,485.83398,772.06586
48,0.392,210.73016,407.36151,867.26599,201.98123,496.28665,807.24768,295.61545,490.65707,777.4389
49,0.4,210.13049,411.51657,870.74878,201.00598,501.23035,812.49512,295.5589,495.25198,782.60358
50,0.408,209.56615,414.2222,875.6991,200.03648,502.82495,817.6015,295.69623,500.05804,789.34888
51,0.417,209.29652,418.93448,880.1889,199.8651,507.75775,821.95959,294.8981,504.90424,794.38892
52,0.425,209.17183,421.38,885.00439,198.58755,510.06357,827.19214,294.73425,509.92279,800.55322
53,0.433,208.81415,423.96866,889.26959,198.61087,514.82538,832.16138,294.26199,513.92181,806.92963
54,0.442,208.05342,427.38309,894.12592,197.93726,516.63208,837.06854,294.08801,519.69025,813.04791
55,0.45,208.07486,430.9613,898.8103,197.6501,521.45209,842.2796,293.879,522.33575,819.64996
56,0.458,208.24811,433.552,904.01569,196.62389,522.94061,847.45703,293.70288,527.43829,826.30621
57,0.467,207.90056,435.48465,908.41077,196.96118,527.23541,852.87946,294.09067,530.94287,832.54749
58,0.475,207.16331,438.54718,913.78015,195.78665,529.21387,858.49335,293.52142,535.22083,839.55499
59,0.483,207.10117,440.21817,919.94531,195.56329,531.89917,864.25012,293.67239,538.54126,846.28784
60,0.492,207.52733,442.92215,924.56464,195.267,535.65344,869.70782,293.1268,541.5238,853.1554
61,0.5,207.70612,446.01822,929.97498,195.43698,536.62079,875.00275,293.50116,545.77222,860.26074
62,0.508,207.41821,449.16974,934.8042,195.28989,540.02478,880.90088,293.55316,549.13867,867.27588
63,0.517,206.75194,450.61896,940.3454,194.69,542.85767,887.63782,293.55054,553.21655,874.51172
64,0.525,205.39386,453.98572,946.17523,194.64409,544.815,893.06476,293.31091,554.80188,881.29944
65,0.533,205.88228,454.78699,952.28729,194.362,547.27362,899.68359,292.50943,559.78064,889.58752
66,0.542,205.1781,456.96475,956.57141,193.78764,549.26794,904.98395,292.5856,561.24396,896.81146
67,0.55,205.17856,458.37448,962.2486,194.65123,551.74524,911.48859,293.14185,563.71204,904.66711
68,0.558,205.04271,459.93155,968.76752,193.76015,553.6969,917.25946,293.04285,568.73804,913.76123
69,0.567,203.49898,462.35727,973.85461,193.61398,555.50238,923.54303,293.42392,568.85461,920.53864
70,0.575,202.89041,464.52521,979.83594,193.45114,557.2431,930.31879,292.11041,572.27142,927.38727
71,0.583,203.29385,465.87878,986.08899,192.81265,560.58789,936.75415,292.58655,573.47736,934.95575
72,0.592,203.16261,466.43988,990.57709,192.3553,560.31464,942.74402,292.53583,575.80957,942.70972
73,0.6,203.06813,467.11676,997.12982,193.09068,562.42847,948.89441,291.77689,577.28381,950.76636
74,0.608,202.80769,468.55551,1002.55853,192.84727,563.48529,955.7041,291.36215,578.7655,958.27063
75,0.617,202.10306,469.55594,1008.2804,193.0809,565.31494,961.50568,291.57492,580.97327,965.63239
76,0.625,201.65904,470.74231,1014.08136,192.00293,566.64813,968.03864,290.90396,583.19434,973.19
77,0.633,201.57547,471.22742,1019.86426,193.14833,567.69525,974.11652,291.09583,585.15662,980.59583
78,0.642,200.75121,471.8295,1025.31812,192.41721,568.6593,980.26343,291.44928,585.69513,988.19318
79,0.65,200.81187,472.84708,1031.02271,191.68118,570.12067,987.30249,292.04886,585.96478,995.48102
80,0.658,200.42009,473.73718,1036.82251,191.50708,570.17468,993.16687,289.14923,588.50714,1003.96387
81,0.667,199.66763,473.15915,1043.68127,191.18869,570.64392,999.28442,289.30936,589.47723,1011.32092
82,0.675,199.0871,473.49829,1048.47229,190.71756,570.9942,1005.8902,288.76144,589.82178,1019.64417
83,0.683,198.58342,474.59567,1053.91187,190.6891,571.46228,1012.12238,287.82312,590.99237,1027.01233
84,0.692,198.5136,474.62283,1060.44153,191.22321,573.52386,1019.58521,287.43631,591.24658,1034.70715
85,0.7,197.73854,473.7233,1065.62341,190.83459,574.04065,1025.42688,286.34161,593.53009,1041.78687
86,0.708,197.75377,474.64456,1071.43274,190.42435,573.841,1031.45557,286.19348,593.70483,1049.2345
87,0.717,197.10136,474.82156,1076.93689,189.33066,574.15955,1038.09998,285.72272,592.94562,1057.94519
88,0.725,195.76648,473.4519,1083.37866,189.26602,574.18201,1044.89319,285.25909,593.43896,1065.75378
89,0.733,196.5258,473.0787,1089.49658,189.57254,573.61768,1051.35767,284.76077,592.99884,1073.83533
90,0.742,195.79753,472.96503,1095.47314,189.50879,573.17212,1057.40393,284.03754,594.37976,1081.94812
91,0.75,194.9975,472.56619,1100.61292,189.74132,572.86652,1063.70959,283.51984,593.54303,1089.38049
92,0.758,194.40277,471.90961,1106.13611,189.2283,572.66101,1071.15125,282.474,593.11981,1097.10278
93,0.767,193.92729,470.65738,1112.14709,189.9269,572.19745,1076.86169,282.21744,591.79358,1103.86572
94,0.775,193.56941,469.40591,1118.18896,189.63449,571.95813,1083.53687,283.19904,590.54321,1111.07458
95,0.783,193.71101,468.68503,1124.28699,189.39497,570.61115,1089.5022,281.88144,590.06665,1118.99658
96,0.792,191.86768,467.84662,1128.97791,190.32845,569.11322,1096.29993,281.93039,588.18066,1127.97485
97,0.8,191.74504,467.2522,1135.70618,189.81844,568.87274,1102.89209,281.55911,586.46179,1136.7605
98,0.808,191.40765,465.28186,1140.87939,189.23863,567.06683,1109.23413,281.24213,585.5235,1143.83801
99,0.817,191.38417,463.9968,1147.08582,188.69365,565.99274,1116.09302,280.41455,583.92401,1151.18298
100,0.825,190.35315,461.72208,1152.5177,188.84019,564.95245,1121.95789,280.17471,581.9198,1159.15283
101,0.833,190.26541,460.32657,1158.39771,188.69073,563.8324,1128.75085,280.01926,580.85663,1167.3031
102,0.842,189.92918,458.93945,1164.17639,189.22745,561.87433,1135.82288,280.0083,577.44794,1175.33728
103,0.85,188.56715,457.37161,1169.74792,189.66042,560.7074,1141.57129,279.14035,576.20117,1182.42786
104,0.858,187.94287,455.30847,1174.69165,189.13763,559.27496,1148.26404,278.53476,574.25665,1190.21912
105,0.867,187.59784,453.30453,1181.21411,189.24747,557.23395,1154.55872,277.56287,572.39386,1199.06287
106,0.875,186.62518,451.04883,1186.89136,188.82742,555.47681,1161.45703,277.71484,570.84875,1206.08691
107,0.883,186.76643,448.9635,1192.15527,189.27673,553.03693,1167.95032,277.29813,566.3894,1212.97571
108,0.892,186.31468,446.1442,1198.05591,190.7244,551.03143,1174.26807,277.66284,563.41565,1220.72742
109,0.9,185.5027,444.14334,1202.46912,188.93405,548.70709,1180.8595,276.88736,560.2608,1228.31433
110,0.908,185.71303,441.1236,1207.47229,190.26868,546.34161,1186.38098,275.91357,558.60083,1236.58435
111,0.917,184.47331,438.65421,1213.08716,189.73938,543.73187,1192.78723,274.62491,555.16418,1243.70947
112,0.925,184.56859,436.52219,1219.0542,190.02481,541.00153,1199.87976,276.63608,550.72699,1248.64099
113,0.933,183.44312,432.73175,1223.94385,190.50522,538.34619,1205.48083,275.57159,548.17242,1256.81824
114,0.942,182.74738,430.64224,1228.86743,190.54947,535.98328,1211.72083,275.8299,543.81757,1264.38879
115,0.95,181.72934,427.4805,1234.3418,190.5994,532.02301,1217.51953,274.47284,540.95667,1271.37158
116,0.958,182.06296,424.60922,1239.5343,191.07176,530.23779,1224.02722,275.34613,535.80164,1278.55762
117,0.967,180.64067,421.39783,1244.03735,191.22408,526.92761,1229.74438,273.78622,532.1355,1285.80725
118,0.975,180.64558,418.20129,1249.14197,190.90555,523.73083,1235.94373,274.67462,527.63574,1292.74377
119,0.983,180.96872,415.40833,1254.40417,191.29602,520.24347,1242.10547,274.4213,525.3208,1298.48401
120,0.992,179.61104,410.79071,1259.75452,191.12706,516.52374,1248.19299,273.14899,519.13501,1305.41931
121,1,179.63162,409.03983,1263.71777,191.56372,515.06525,1254.05945,273.15948,516.01263,1313.09094
122,1.008,179.01933,403.965,1268.1626,192.20988,510.10818,1260.22644,272.16019,511.06186,1319.17407
123,1.017,178.6748,400.97763,1273.74426,191.89772,507.06271,1266.27332,272.61108,506.61755,1324.98035
124,1.025,177.66217,398.07947,1277.57642,192.60139,503.80463,1271.09265,272.08313,501.97797,1331.48682
125,1.033,177.44675,393.33282,1282.375,192.56895,499.83252,1277.34302,271.81537,496.01956,1338.33618
126,1.042,177.76828,389.95724,1286.22974,192.35735,496.3403,1281.37341,271.55429,493.18936,1343.82019
127,1.05,175.54564,385.91623,1290.55225,193.01004,492.15521,1287.42786,271.71936,487.30981,1349.65308
128,1.058,176.2597,383.17899,1295.03833,193.30116,488.64581,1292.5144,270.63565,481.60114,1356.26892
129,1.067,175.16003,378.02908,1298.97778,193.50819,484.36987,1298.10291,269.04147,477.84137,1361.48303
130,1.075,174.79503,375.67624,1302.3678,193.83879,480.4212,1302.75208,267.17532,473.74905,1367.76074
131,1.083,174.66026,370.34317,1306.76416,194.06738,475.39563,1308.31396,268.40732,467.07382,1372.92749
132,1.092,174.84338,367.28616,1310.55579,194.3308,472.25729,1313.07825,267.16266,462.92191,1379.17871
133,1.1,173.91351,362.35782,1314.14917,194.48108,467.82297,1318.41199,266.45316,457.29123,1383.59558
134,1.108,173.13814,358.3129,1318.31921,194.38965,463.4057,1323.20789,265.50363,451.92181,1390.09583
135,1.117,172.91505,354.86841,1321.47913,194.44446,459.03259,1327.40002,266.41797,447.12894,1394.50696
136,1.125,172.42305,350.97925,1324.22864,194.6812,454.81094,1331.94885,266.19501,441.06271,1400.04443
137,1.133,171.40262,347.40417,1329.23462,195.46918,451.89325,1336.96106,265.67175,434.83331,1404.88281
138,1.142,171.56555,342.27591,1332.19751,194.99995,446.38455,1341.70007,265.93222,430.3819,1409.29749
139,1.15,169.62459,339.34192,1335.3927,195.08875,443.58521,1345.92627,264.76923,425.29858,1414.30298
140,1.158,170.22328,334.13742,1339.16333,195.68987,438.31702,1350.00317,264.62531,419.31671,1419.09631
141,1.167,170.07895,330.85519,1342.552,195.81056,433.77963,1354.44019,264.53522,413.14551,1423.44519
142,1.175,168.65228,326.1788,1344.80591,195.91843,430.39792,1359.3501,263.97781,408.86322,1428.20374
143,1.183,168.29233,322.99896,1348.18018,196.09326,424.81226,1362.98499,263.51413,403.46896,1433.03247
144,1.192,169.07018,318.32733,1350.24622,196.29085,421.59619,1366.72278,263.61166,396.81458,1437.46362
145,1.2,167.25375,314.79126,1354.3877,196.03036,416.32568,1371.00623,262.84406,391.46182,1440.77917
146,1.208,167.11281,309.59506,1356.1886,196.37834,412.32883,1374.36597,262.38828,385.31604,1445.40149
147,1.217,167.17245,305.13248,1359.57825,195.98706,407.51532,1378.66602,263.46747,379.85193,1448.68213
148,1.225,165.58585,302.04211,1361.56812,196.26248,402.91583,1381.97607,262.59164,375.17731,1452.75452
149,1.233,166.71791,297.2352,1363.84656,196.73743,398.51398,1386.05359,262.04028,368.64633,1456.15674
150,1.242,165.43977,293.90482,1367.00928,195.65947,393.44281,1389.63086,260.64679,363.16138,1459.63879
151,1.25,163.5401,289.84387,1369.56091,196.67935,388.07294,1392.57507,260.51843,357.66254,1463.2323
152,1.258,164.12009,285.55328,1371.72742,196.56346,385.12485,1395.96838,260.8595,351.35815,1467.23804
153,1.267,163.52664,280.61841,1373.93274,196.54172,379.18448,1398.97595,259.90631,345.32089,1470.14001
154,1.275,162.69385,277.40756,1375.4751,197.19221,374.29797,1402.80688,259.29367,340.2923,1473.28577
155,1.283,163.55829,272.36722,1378.78564,197.14172,370.18311,1405.3064,258.50095,334.53751,1476.10474
156,1.292,161.3242,268.62729,1380.44275,197.28452,365.37067,1408.31079,258.51636,328.47559,1479.14038
157,1.3,160.54869,265.20309,1381.26746,196.99158,361.43671,1411.24805,258.87149,322.8121,1482.23328
158,1.308,161.12852,259.64862,1384.53015,197.42636,357.13803,1413.95435,258.06442,317.35239,1484.93335
159,1.317,160.01674,256.7753,1386.11414,197.09648,352.23502,1416.70996,256.59836,311.91397,1487.90479
160,1.325,158.70442,251.59439,1387.62598,198.20946,346.39096,1418.83582,256.75388,306.12347,1489.66284
161,1.333,159.1651,247.87485,1389.46936,198.02287,342.53998,1421.05579,256.228,300.34091,1492.45435
162,1.342,158.40781,243.14107,1391.64709,198.14258,337.71606,1423.79065,255.73402,294.78552,1495.54529
163,1.35,157.83157,240.21486,1392.61499,198.30956,331.92868,1426.09265,254.82469,289.51993,1497.0791
164,1.358,158.28008,234.62605,1394.76782,198.65471,328.34726,1428.56238,253.98805,284.20599,1499.2699
165,1.367,156.88091,230.70494,1395.78076,198.41437,324.04422,1431.25513,254.12619,277.496,1502.40845
166,1.375,155.07132,227.56104,1397.99683,198.54567,318.01697,1433.01147,253.99284,272.39941,1503.72412
167,1.383,155.48207,222.34836,1399.04187,199.17747,313.95969,1435.12659,253.32306,266.37616,1506.49719
168,1.392,154.14276,218.60086,1400.7616,198.66905,309.07993,1437.19128,253.2001,260.76672,1507.4989
169,1.4,154.64862,214.82323,1401.35364,198.3934,303.55527,1439.17798,252.28145,254.72536,1509.29016
170,1.408,153.73978,211.11584,1403.13477,198.70879,300.56363,1440.95288,251.91087,249.39203,1511.50342
171,1.417,152.91052,206.21623,1404.32703,199.73775,295.53778,1442.76416,250.6127,243.60867,1513.01965
172,1.425,152.46716,203.68636,1405.31555,199.95459,291.02386,1444.88428,251.46562,237.90939,1514.23096
173,1.433,151.21373,198.61719,1406.68286,200.075,286.21854,1446.88574,251.0818,232.07436,1515.80493
174,1.442,150.54163,196.09917,1406.97119,199.36969,281.54007,1448.22986,249.85165,227.10757,1516.9314
175,1.45,149.94829,191.74791,1407.67432,200.1167,276.91083,1450.15771,249.49687,221.78487,1517.67993
176,1.458,150.03235,188.43288,1409.2157,199.69846,272.73236,1452.1239,249.9203,216.28523,1520.04858
177,1.467,148.33464,184.72108,1409.59436,199.71938,268.17404,1453.38171,248.51379,209.62764,1521.60632
178,1.475,148.86542,179.83208,1411.31799,200.2453,262.32947,1455.19922,248.45233,204.37311,1521.66541
179,1.483,147.71353,176.88971,1411.66675,200.02121,258.55225,1456.19885,247.02071,199.86603,1523.3385
180,1.492,148.28404,172.01645,1412.00964,200.40741,253.84323,1457.53967,247.09576,193.63545,1524.84521
181,1.5,147.34711,168.09946,1412.01843,200.5049,249.13573,1458.09143,247.19383,187.99294,1525.15247
182,1.508,146.89912,165.3951,1413.1875,200.67853,244.91867,1459.95703,245.82832,183.15094,1526.42737
183,1.517,146.32047,161.3011,1413.48157,200.36751,240.10258,1461.20081,244.91721,178.21831,1526.64526
184,1.525,146.29785,158.25435,1414.09265,200.35965,236.55569,1462.27075,244.93051,172.25771,1527.99255
185,1.533,144.15063,155.20834,1415.36414,201.76471,231.93924,1462.93176,243.93321,167.66164,1528.75879
186,1.542,144.14874,151.69017,1415.2771,202.12389,227.58929,1464.07678,244.15306,161.92384,1529.83655
187,1.55,143.20569,148.51099,1415.93469,201.39359,224.06598,1465.47827,242.72746,157.25703,1529.61572
188,1.558,142.43381,144.0598,1417.17651,202.21756,218.60771,1466.0625,243.3504,152.04347,1530.86768
189,1.567,142.30168,141.80746,1417.51807,201.82709,214.18355,1466.41541,242.90807,147.8775,1531.00903
190,1.575,140.66129,137.51894,1417.48083,202.48907,210.46614,1467.5155,242.27507,142.04713,1531.86804
191,1.583,141.74878,134.94112,1417.77356,202.00861,205.83517,1467.56616,241.09396,137.18138,1531.62451
192,1.592,141.92639,129.4994,1418.18518,203.10539,201.15573,1468.40076,241.45764,134.67339,1533.75403
193,1.6,141.74704,127.44921,1418.52307,203.81145,197.49786,1469.29126,241.20911,127.25784,1533.0238
194,1.608,140.06757,122.99401,1418.28516,203.03879,192.84882,1470.40503,239.92978,121.70811,1532.73987
195,1.617,139.72816,121.25033,1418.48853,203.20901,189.3532,1470.70251,239.46101,118.54964,1533.08081
196,1.625,139.80376,117.00048,1418.13635,203.52553,184.79993,1471.19446,238.64738,113.28536,1533.16309
197,1.633,139.22824,114.16686,1418.17017,204.23628,180.14143,1470.99426,238.64812,107.4501,1533.35803
198,1.642,138.44562,111.5513,1417.93958,204.28629,176.5948,1471.67249,238.48616,103.50257,1533.01648
199,1.65,139.19881,107.51486,1417.93909,204.47458,172.65001,1471.32483,237.77025,98.80603,1532.90588
