Frame#,Time,L.Forearm.x,L.Forearm.y,L.Forearm.z,L.Ulna.x,L.Ulna.y,L.Ulna.z,L.Radius.x,L.Radius.y,L.Radius.z
1,0,402.66904,254.98206,1448.21265,492.25653,299.98666,1428.54565,516.68317,203.23488,1431.37427
2,0.008,402.78317,255.66418,1448.62732,492.25653,299.98666,1428.54565,516.68317,203.23488,1431.37427
3,0.017,402.45728,254.95073,1447.40173,492.25653,299.98666,1428.54565,516.68317,203.23488,1431.37427
4,0.025,402.66904,254.98206,1448.21265,492.85593,299.91388,1428.724,516.68317,203.23488,1431.37427
5,0.033,402.43542,255.22549,1448.11145,492.25653,299.98666,1428.54565,516.68317,203.23488,1431.37427
6,0.042,402.78317,255.66418,1448.62732,493.23804,299.47995,1428.66333,516.68317,203.23488,1431.37427
7,0.05,402.66904,254.98206,1448.21265,493.23804,299.47995,1428.66333,516.68317,203.23488,1431.37427
8,0.058,402.70395,254.45859,1447.5564,493.44772,299.43118,1429.09741,516.68317,203.23488,1431.37427
9,0.067,402.66904,254.98206,1448.21265,493.44772,299.43118,1429.09741,516.68317,203.23488,1431.37427
10,0.075,403.07684,255.77243,1448.30042,493.44772,299.43118,1429.09741,516.68317,203.23488,1431.37427
11,0.083,402.66904,254.98206,1448.21265,493.57013,299.4902,1428.99634,516.68317,203.23488,1431.37427
12,0.092,402.78891,255.17973,1447.81116,493.57013,299.4902,1428.99634,516.68317,203.23488,1431.37427
13,0.1,402.66904,254.98206,1448.21265,493.57013,299.4902,1428.99634,516.68317,203.23488,1431.37427
14,0.108,402.78891,255.17973,1447.81116,493.57013,299.4902,1428.99634,516.68317,203.23488,1431.37427
15,0.117,403.21799,255.82462,1447.90588,493.57013,299.4902,1428.99634,516.68317,203.23488,1431.37427
16,0.125,403.21799,255.82462,1447.90588,493.57013,299.4902,1428.99634,516.68317,203.23488,1431.37427
17,0.133,403.21799,255.82462,1447.90588,493.57013,299.4902,1428.99634,516.81219,202.82437,1431.8772
18,0.142,403.29428,256.1626,1447.46143,493.93411,300.28738,1428.99829,516.81219,202.82437,1431.8772
19,0.15,403.71878,256.39505,1448.00208,493.93411,300.28738,1428.99829,516.81219,202.82437,1431.8772
20,0.158,403.71878,256.39505,1448.00208,493.57013,299.4902,1428.99634,516.81219,202.82437,1431.8772
21,0.167,403.92902,256.01886,1447.37,493.93411,300.28738,1428.99829,517.69482,202.52164,1432.1012
22,0.175,403.46228,256.32968,1447.84094,493.57013,299.4902,1428.99634,516.81219,202.82437,1431.8772
23,0.183,404.17905,256.95517,1447.98328,493.93411,300.28738,1428.99829,518.30908,202.12415,1431.96545
24,0.192,404.17905,256.95517,1447.98328,493.57013,299.4902,1428.99634,516.81219,202.82437,1431.8772
25,0.2,404.21582,257.11603,1447.83655,493.93411,300.28738,1428.99829,518.18054,202.5341,1431.46289
26,0.208,404.45554,257.38516,1448.34204,493.93411,300.28738,1428.99829,519.12469,201.79724,1432.09985
27,0.217,404.05884,256.74698,1447.57959,493.93411,300.28738,1428.99829,518.30908,202.12415,1431.96545
28,0.225,404.61157,256.8519,1448.1134,494.34406,299.45151,1429.01111,518.30908,202.12415,1431.96545
29,0.233,404.45554,257.38516,1448.34204,494.34406,299.45151,1429.01111,518.18054,202.5341,1431.46289
30,0.242,404.28003,256.62268,1447.7041,493.98001,298.6539,1429.00916,518.30908,202.12415,1431.96545
31,0.25,404.61157,256.8519,1448.1134,494.34406,299.45151,1429.01111,518.30908,202.12415,1431.96545
32,0.258,404.61157,256.8519,1448.1134,494.34406,299.45151,1429.01111,518.30908,202.12415,1431.96545
33,0.267,404.94354,256.51028,1447.71497,494.60187,299.43311,1428.9928,518.30908,202.12415,1431.96545
34,0.275,404.61157,256.8519,1448.1134,494.60187,299.43311,1428.9928,518.30908,202.12415,1431.96545
35,0.283,404.61157,256.8519,1448.1134,494.60187,299.43311,1428.9928,519.12469,201.79724,1432.09985
36,0.292,404.94354,256.51028,1447.71497,494.70029,299.34061,1429.10217,519.12469,201.79724,1432.09985
37,0.3,404.54141,256.69772,1448.20325,494.70029,299.34061,1429.10217,518.30908,202.12415,1431.96545
38,0.308,404.35855,256.88013,1448.53027,494.70029,299.34061,1429.10217,518.73315,202.08205,1432.69238
39,0.317,404.8862,256.33276,1447.85254,494.74768,299.24643,1429.22266,519.12469,201.79724,1432.09985
40,0.325,404.54141,256.69772,1448.20325,494.74768,299.24643,1429.22266,519.12469,201.79724,1432.09985
41,0.333,404.54141,256.69772,1448.20325,494.74768,299.24643,1429.22266,519.12469,201.79724,1432.09985
42,0.342,405.27649,256.56912,1448.50684,494.74768,299.24643,1429.22266,519.12469,201.79724,1432.09985
43,0.35,404.35855,256.88013,1448.53027,494.38367,298.4487,1429.2207,518.61078,201.95387,1432.40466
44,0.358,405.26196,257.10516,1448.88245,494.944,299.20135,1429.25122,519.03436,201.91235,1433.13135
45,0.367,404.73541,256.44171,1448.14697,494.944,299.20135,1429.25122,519.46533,200.66104,1433.49048
46,0.375,404.54141,256.69772,1448.20325,494.75912,299.35135,1429.65283,519.03436,201.91235,1433.13135
47,0.383,404.35855,256.88013,1448.53027,494.75912,299.35135,1429.65283,517.61957,203.4201,1433.49426
48,0.392,404.35855,256.88013,1448.53027,494.75912,299.35135,1429.65283,517.61957,203.4201,1433.49426
49,0.4,405.27649,256.56912,1448.50684,494.944,299.20135,1429.25122,517.86871,203.11542,1434.21521
50,0.408,404.85468,257.14127,1448.18274,495.35861,299.27866,1429.83105,517.86871,203.11542,1434.21521
51,0.417,404.65344,257.40915,1448.50232,495.35861,299.27866,1429.83105,517.86871,203.11542,1434.21521
52,0.425,405.19946,256.77625,1447.83203,494.99475,298.48108,1429.8291,517.86871,203.11542,1434.21521
53,0.433,405.82126,256.46204,1447.65344,495.54352,299.12869,1429.42944,517.86871,203.11542,1434.21521
54,0.442,405.57138,257.09824,1448.47888,495.35861,299.27866,1429.83105,517.86871,203.11542,1434.21521
55,0.45,405.26196,257.10516,1448.88245,495.35861,299.27866,1429.83105,517.86871,203.11542,1434.21521
56,0.458,406.24951,256.8573,1448.81262,495.35861,299.27866,1429.83105,517.86871,203.11542,1434.21521
57,0.467,405.57138,257.09824,1448.47888,495.35861,299.27866,1429.83105,518.13098,203.26698,1434.4071
58,0.475,405.57138,257.09824,1448.47888,495.35861,299.27866,1429.83105,518.13098,203.26698,1434.4071
59,0.483,405.57138,257.09824,1448.47888,495.35861,299.27866,1429.83105,518.13098,203.26698,1434.4071
60,0.492,405.83612,257.00571,1448.48572,495.38388,298.931,1429.92505,518.13098,203.26698,1434.4071
61,0.5,405.54535,257.03195,1448.87805,495.38388,298.931,1429.92505,518.13098,203.26698,1434.4071
62,0.508,406.1008,256.91339,1448.49255,496.08395,298.14462,1430.28772,518.13098,203.26698,1434.4071
63,0.517,406.1008,256.91339,1448.49255,496.08395,298.14462,1430.28772,518.40277,202.76564,1434.5387
64,0.525,407.17538,256.44601,1448.60229,496.08395,298.14462,1430.28772,518.40277,202.76564,1434.5387
65,0.533,406.25726,256.75784,1448.62549,496.53809,297.53091,1430.14429,518.40277,202.76564,1434.5387
66,0.542,406.25726,256.75784,1448.62549,496.53809,297.53091,1430.14429,518.40277,202.76564,1434.5387
67,0.55,406.96603,256.56198,1448.94934,496.53809,297.53091,1430.14429,518.40277,202.76564,1434.5387
68,0.558,405.97855,256.80991,1449.01941,496.53809,297.53091,1430.14429,518.40277,202.76564,1434.5387
69,0.567,406.85629,255.98871,1448.6637,496.53809,297.53091,1430.14429,518.40277,202.76564,1434.5387
70,0.575,407.27078,255.33339,1448.89038,496.17419,296.7326,1430.14258,518.40277,202.76564,1434.5387
71,0.583,407.5188,255.35495,1448.58508,496.17419,296.7326,1430.14258,518.40277,202.76564,1434.5387
72,0.592,407.5188,255.35495,1448.58508,496.17419,296.7326,1430.14258,518.87988,202.33716,1434.32324
73,0.6,407.27078,255.33339,1448.89038,496.17419,296.7326,1430.14258,518.40277,202.76564,1434.5387
74,0.608,407.5188,255.35495,1448.58508,496.24634,296.55231,1430.05957,518.87988,202.33716,1434.32324
75,0.617,407.42719,254.71901,1448.79785,496.43097,296.40256,1429.6582,521.97363,197.78848,1433.86731
76,0.625,407.27078,255.33339,1448.89038,496.63058,296.32455,1429.73108,521.97363,197.78848,1433.86731
77,0.633,407.22415,254.8261,1448.61316,496.87418,296.28873,1429.73926,520.36938,199.67776,1434.03931
78,0.642,407.02866,255.00116,1448.46411,496.87418,296.28873,1429.73926,520.36938,199.67776,1434.03931
79,0.65,407.27078,255.33339,1448.89038,496.87418,296.28873,1429.73926,520.20966,199.82661,1433.48999
80,0.658,407.08173,254.04095,1448.83252,496.87418,296.28873,1429.73926,520.20966,199.82661,1433.48999
81,0.667,407.26553,254.12831,1449.04419,497.19202,296.10999,1429.39392,520.20966,199.82661,1433.48999
82,0.675,407.26553,254.12831,1449.04419,496.87418,296.28873,1429.73926,520.20966,199.82661,1433.48999
83,0.683,406.85919,253.74995,1448.53076,497.02664,296.20169,1429.83264,520.20966,199.82661,1433.48999
84,0.692,407.26553,254.12831,1449.04419,497.95874,295.83743,1429.31836,520.20966,199.82661,1433.48999
85,0.7,407.41714,254.81874,1449.49316,497.34451,296.02292,1429.4873,520.20966,199.82661,1433.48999
86,0.708,407.41714,254.81874,1449.49316,497.95874,295.83743,1429.31836,520.20966,199.82661,1433.48999
87,0.717,407.94519,253.17662,1449.15271,497.95874,295.83743,1429.31836,520.20966,199.82661,1433.48999
88,0.725,407.94519,253.17662,1449.15271,497.95874,295.83743,1429.31836,520.20966,199.82661,1433.48999
89,0.733,407.94519,253.17662,1449.15271,497.95874,295.83743,1429.31836,520.20966,199.82661,1433.48999
90,0.742,407.94519,253.17662,1449.15271,497.95874,295.83743,1429.31836,520.20966,199.82661,1433.48999
91,0.75,407.94519,253.17662,1449.15271,497.95874,295.83743,1429.31836,520.20966,199.82661,1433.48999
92,0.758,409.03802,253.10872,1449.19177,497.95874,295.83743,1429.31836,520.20966,199.82661,1433.48999
93,0.767,407.94519,253.17662,1449.15271,498.0929,295.55844,1429.47021,520.20966,199.82661,1433.48999
94,0.775,407.71408,251.25165,1448.73291,498.0929,295.55844,1429.47021,520.20966,199.82661,1433.48999
95,0.783,408.11996,251.62964,1449.24597,498.0929,295.55844,1429.47021,523.27991,197.3199,1433.34473
96,0.792,409.03009,251.64902,1448.90002,498.0929,295.55844,1429.47021,522.77222,197.44786,1433.14282
97,0.8,408.06732,251.89891,1448.89001,498.0929,295.55844,1429.47021,521.85681,198.07028,1433.07239
98,0.808,407.77713,251.61609,1448.46985,498.0929,295.55844,1429.47021,522.77222,197.44786,1433.14282
99,0.817,408.06732,251.89891,1448.89001,498.0929,295.55844,1429.47021,523.27991,197.3199,1433.34473
100,0.825,409.03009,251.64902,1448.90002,498.0929,295.55844,1429.47021,523.28442,197.5108,1433.1759
101,0.833,409.16818,252.61655,1448.57434,498.0929,295.55844,1429.47021,523.27991,197.3199,1433.34473
102,0.842,407.77713,251.61609,1448.46985,498.0929,295.55844,1429.47021,522.77222,197.44786,1433.14282
103,0.85,409.03009,251.64902,1448.90002,498.50427,294.72223,1429.48328,523.27991,197.3199,1433.34473
104,0.858,409.03009,251.64902,1448.90002,498.0929,295.55844,1429.47021,522.77222,197.44786,1433.14282
105,0.867,409.42859,252.80594,1448.78845,498.0929,295.55844,1429.47021,523.27991,197.3199,1433.34473
106,0.875,409.42859,252.80594,1448.78845,498.86798,295.52148,1429.48511,523.27991,197.3199,1433.34473
107,0.883,409.64197,250.76637,1449.23096,498.50427,294.72223,1429.48328,523.27991,197.3199,1433.34473
108,0.892,409.88425,252.11186,1448.70691,498.50427,294.72223,1429.48328,523.28442,197.5108,1433.1759
109,0.9,408.61722,252.26122,1448.38904,498.50427,294.72223,1429.48328,523.28442,197.5108,1433.1759
110,0.908,409.88425,252.11186,1448.70691,498.50427,294.72223,1429.48328,522.78247,197.61493,1432.98254
111,0.917,409.42859,252.80594,1448.78845,498.50427,294.72223,1429.48328,523.27991,197.3199,1433.34473
112,0.925,409.21234,251.56149,1449.28503,498.50427,294.72223,1429.48328,522.78247,197.61493,1432.98254
113,0.933,409.63297,253.41263,1448.98132,498.50427,294.72223,1429.48328,523.28442,197.5108,1433.1759
114,0.942,409.63297,253.41263,1448.98132,498.37021,295.00128,1429.33142,523.27991,197.3199,1433.34473
115,0.95,409.88425,252.11186,1448.70691,498.73392,295.80038,1429.33325,523.28442,197.5108,1433.1759
116,0.958,409.46356,252.28343,1448.13293,498.32242,296.63611,1429.32019,523.27991,197.3199,1433.34473
117,0.967,408.80414,252.24335,1447.91565,497.95874,295.83743,1429.31836,523.27991,197.3199,1433.34473
118,0.975,409.42859,252.80594,1448.78845,497.95874,295.83743,1429.31836,523.28442,197.5108,1433.1759
119,0.983,409.25684,253.00433,1448.71765,498.37021,295.00128,1429.33142,522.77222,197.44786,1433.14282
120,0.992,409.25684,253.00433,1448.71765,497.95874,295.83743,1429.31836,522.77222,197.44786,1433.14282
121,1,409.16818,252.61655,1448.57434,497.95874,295.83743,1429.31836,523.27991,197.3199,1433.34473
122,1.008,409.16818,252.61655,1448.57434,498.32242,296.63611,1429.32019,523.27991,197.3199,1433.34473
123,1.017,409.16818,252.61655,1448.57434,498.32242,296.63611,1429.32019,523.28442,197.5108,1433.1759
124,1.025,408.82547,253.70758,1448.59131,498.32242,296.63611,1429.32019,523.27991,197.3199,1433.34473
125,1.033,409.16818,252.61655,1448.57434,498.32242,296.63611,1429.32019,523.28442,197.5108,1433.1759
126,1.042,408.82547,253.70758,1448.59131,498.32242,296.63611,1429.32019,522.78247,197.61493,1432.98254
127,1.05,408.82547,253.70758,1448.59131,498.32242,296.63611,1429.32019,523.27991,197.3199,1433.34473
128,1.058,408.82547,253.70758,1448.59131,498.32242,296.63611,1429.32019,523.28442,197.5108,1433.1759
129,1.067,408.82547,253.70758,1448.59131,498.32242,296.63611,1429.32019,523.28442,197.5108,1433.1759
130,1.075,409.16339,254.05161,1448.75769,498.32242,296.63611,1429.32019,523.28442,197.5108,1433.1759
131,1.083,408.1561,254.2531,1448.75928,498.32242,296.63611,1429.32019,522.78247,197.61493,1432.98254
132,1.092,409.16339,254.05161,1448.75769,498.32242,296.63611,1429.32019,522.78247,197.61493,1432.98254
133,1.1,409.16339,254.05161,1448.75769,498.32242,296.63611,1429.32019,523.28442,197.5108,1433.1759
134,1.108,409.55676,254.74564,1448.70532,498.32242,296.63611,1429.32019,522.84949,197.40314,1432.67371
135,1.117,409.55676,254.74564,1448.70532,498.32242,296.63611,1429.32019,523.28442,197.5108,1433.1759
136,1.125,409.55676,254.74564,1448.70532,498.32242,296.63611,1429.32019,522.78247,197.61493,1432.98254
137,1.133,409.67371,255.02266,1448.8031,498.32242,296.63611,1429.32019,523.28442,197.5108,1433.1759
138,1.142,409.72131,254.84203,1448.55994,498.32242,296.63611,1429.32019,523.28442,197.5108,1433.1759
139,1.15,409.16846,254.46568,1448.31091,498.82507,297.05664,1429.23608,522.78247,197.61493,1432.98254
140,1.158,409.31104,254.50583,1448.20117,498.68439,297.02084,1429.30847,523.28442,197.5108,1433.1759
141,1.167,409.31104,254.50583,1448.20117,498.73117,297.18814,1429.13147,522.78247,197.61493,1432.98254
142,1.175,409.31104,254.50583,1448.20117,498.73117,297.18814,1429.13147,523.68182,197.96178,1433.11096
143,1.183,409.31104,254.50583,1448.20117,498.87183,297.22391,1429.05908,523.28442,197.5108,1433.1759
144,1.192,409.31104,254.50583,1448.20117,498.87183,297.22391,1429.05908,523.17999,198.06581,1432.9176
145,1.2,409.37854,254.09026,1447.67896,498.87183,297.22391,1429.05908,523.17999,198.06581,1432.9176
146,1.208,409.31104,254.50583,1448.20117,498.71765,297.32858,1428.94214,523.48358,198.15025,1432.55408
147,1.217,409.31104,254.50583,1448.20117,498.71765,297.32858,1428.94214,522.98163,198.25436,1432.36072
148,1.225,409.31104,254.50583,1448.20117,498.71765,297.32858,1428.94214,522.98163,198.25436,1432.36072
149,1.233,409.31104,254.50583,1448.20117,498.71765,297.32858,1428.94214,522.98163,198.25436,1432.36072
150,1.242,409.80185,255.02565,1448.26917,498.71765,297.32858,1428.94214,523.48358,198.15025,1432.55408
151,1.25,409.81705,255.19551,1448.43518,498.71765,297.32858,1428.94214,522.98163,198.25436,1432.36072
152,1.258,409.81705,255.19551,1448.43518,498.71765,297.32858,1428.94214,522.98163,198.25436,1432.36072
153,1.267,409.80185,255.02565,1448.26917,498.71765,297.32858,1428.94214,522.98163,198.25436,1432.36072
154,1.275,409.80185,255.02565,1448.26917,498.71765,297.32858,1428.94214,523.06232,198.56161,1432.09607
155,1.283,409.81705,255.19551,1448.43518,498.71765,297.32858,1428.94214,523.56433,198.45744,1432.28943
156,1.292,409.80185,255.02565,1448.26917,498.71765,297.32858,1428.94214,523.56433,198.45744,1432.28943
157,1.3,409.81705,255.19551,1448.43518,498.71765,297.32858,1428.94214,523.06232,198.56161,1432.09607
158,1.308,409.80185,255.02565,1448.26917,498.71765,297.32858,1428.94214,523.44635,198.7856,1431.83569
159,1.317,409.80185,255.02565,1448.26917,498.71765,297.32858,1428.94214,522.94415,198.88997,1431.64209
160,1.325,409.80185,255.02565,1448.26917,498.71765,297.32858,1428.94214,523.06232,198.56161,1432.09607
161,1.333,409.37091,255.59668,1448.34058,498.71765,297.32858,1428.94214,523.56433,198.45744,1432.28943
162,1.342,409.38614,255.80666,1448.55176,498.71765,297.32858,1428.94214,522.94415,198.88997,1431.64209
163,1.35,409.38614,255.80666,1448.55176,498.71765,297.32858,1428.94214,522.94415,198.88997,1431.64209
164,1.358,408.37531,255.76735,1448.32349,498.71765,297.32858,1428.94214,522.94415,198.88997,1431.64209
165,1.367,409.37091,255.59668,1448.34058,498.71765,297.32858,1428.94214,522.94415,198.88997,1431.64209
166,1.375,409.37091,255.59668,1448.34058,498.71765,297.32858,1428.94214,522.94415,198.88997,1431.64209
167,1.383,408.37531,255.76735,1448.32349,498.71765,297.32858,1428.94214,522.94415,198.88997,1431.64209
168,1.392,409.37091,255.59668,1448.34058,498.71765,297.32858,1428.94214,523.44635,198.7856,1431.83569
169,1.4,409.37091,255.59668,1448.34058,498.71765,297.32858,1428.94214,522.94415,198.88997,1431.64209
170,1.408,409.37091,255.59668,1448.34058,498.71765,297.32858,1428.94214,522.94415,198.88997,1431.64209
171,1.417,409.37091,255.59668,1448.34058,498.71765,297.32858,1428.94214,522.94415,198.88997,1431.64209
172,1.425,409.37091,255.59668,1448.34058,498.71765,297.32858,1428.94214,523.44635,198.7856,1431.83569
173,1.433,408.37531,255.76735,1448.32349,498.71765,297.32858,1428.94214,523.44635,198.7856,1431.83569
174,1.442,408.37531,255.76735,1448.32349,498.71765,297.32858,1428.94214,523.44635,198.7856,1431.83569
175,1.45,408.37531,255.76735,1448.32349,498.71765,297.32858,1428.94214,523.44635,198.7856,1431.83569
176,1.458,408.37531,255.76735,1448.32349,498.71765,297.32858,1428.94214,522.94415,198.88997,1431.64209
177,1.467,408.37531,255.76735,1448.32349,498.71765,297.32858,1428.94214,523.44635,198.7856,1431.83569
178,1.475,409.37091,255.59668,1448.34058,498.71765,297.32858,1428.94214,523.44635,198.7856,1431.83569
179,1.483,409.37091,255.59668,1448.34058,498.71765,297.32858,1428.94214,522.94415,198.88997,1431.64209
180,1.492,408.37531,255.76735,1448.32349,498.71765,297.32858,1428.94214,523.44635,198.7856,1431.83569
181,1.5,409.20975,255.94537,1449.07605,498.71765,297.32858,1428.94214,523.56433,198.45744,1432.28943
182,1.508,408.37531,255.76735,1448.32349,498.71765,297.32858,1428.94214,523.06232,198.56161,1432.09607
183,1.517,409.37091,255.59668,1448.34058,498.71765,297.32858,1428.94214,522.94415,198.88997,1431.64209
184,1.525,409.20944,255.51855,1448.46997,498.57867,297.27521,1429.03821,522.94415,198.88997,1431.64209
185,1.533,409.20944,255.51855,1448.46997,498.57867,297.27521,1429.03821,523.44635,198.7856,1431.83569
186,1.542,408.2139,255.68921,1448.45288,498.57867,297.27521,1429.03821,523.06232,198.56161,1432.09607
187,1.55,408.54578,255.91714,1448.86255,498.57867,297.27521,1429.03821,523.06232,198.56161,1432.09607
188,1.558,408.2139,255.68921,1448.45288,498.57867,297.27521,1429.03821,523.06232,198.56161,1432.09607
189,1.567,409.20944,255.51855,1448.46997,498.53189,297.10794,1429.21521,523.06232,198.56161,1432.09607
190,1.575,408.40665,255.92271,1449.22571,498.68439,297.02084,1429.30847,522.05597,198.70973,1432.45068
191,1.583,408.40665,255.92271,1449.22571,498.68439,297.02084,1429.30847,523.48358,198.15025,1432.55408
192,1.592,409.06708,255.96199,1449.44373,498.68439,297.02084,1429.30847,522.98163,198.25436,1432.36072
193,1.6,408.40665,255.92271,1449.22571,498.68439,297.02084,1429.30847,522.98163,198.25436,1432.36072
194,1.608,408.40665,255.92271,1449.22571,498.68439,297.02084,1429.30847,523.68182,197.96178,1433.11096
195,1.617,409.06708,255.96199,1449.44373,498.68439,297.02084,1429.30847,523.68182,197.96178,1433.11096
196,1.625,408.40665,255.92271,1449.22571,498.68439,297.02084,1429.30847,523.68182,197.96178,1433.11096
