Frame#,Time,L.Forearm.x,L.Forearm.y,L.Forearm.z,L.Ulna.x,L.Ulna.y,L.Ulna.z,L.Radius.x,L.Radius.y,L.Radius.z
1,0,186.95039,395.39294,985.58258,149.14566,436.56055,904.09473,215.37329,460.49091,864.92035
2,0.008,186.77299,395.61554,985.62933,148.68164,436.27417,903.80542,214.84775,460.69598,864.78168
3,0.017,186.63771,395.83536,985.59833,148.68164,436.27417,903.80542,214.63686,460.5162,864.67188
4,0.025,186.63771,395.83536,985.59833,148.64391,436.18887,903.89581,214.45749,460.60995,864.76532
5,0.033,186.45694,395.87073,985.49225,148.28178,436.27844,904.05591,214.25128,460.53894,864.65466
6,0.042,186.35001,395.95441,985.44165,148.03798,436.48819,904.20471,214.25128,460.53894,864.65466
7,0.05,186.24367,396.15231,985.38397,147.84598,436.87119,904.43445,214.22202,460.56812,864.90607
8,0.058,185.99387,396.01636,985.55609,147.34758,436.97388,904.83179,213.80585,460.91821,865.00159
9,0.067,185.99886,396.15945,985.67456,147.38139,437.88925,905.01611,213.52467,461.08344,864.93152
10,0.075,185.22653,396.4906,985.7572,146.83392,437.78131,905.18964,213.39438,461.16287,865.04156
11,0.083,185.16809,397.03522,985.8548,146.98004,438.04504,905.1452,213.11417,461.27295,865.0495
12,0.092,185.153,397.27045,985.68469,146.67958,438.45966,905.21857,213.18121,461.97797,865.66772
13,0.1,184.88736,397.20169,985.94788,146.35756,438.61032,905.51514,212.7674,462.21936,865.83856
14,0.108,184.51085,397.53534,986.62842,146.28757,439.41141,905.69702,212.25708,463.14703,866.76312
15,0.117,184.45261,397.60834,986.56866,146.13214,440.1283,906.02625,211.88857,463.86212,867.24445
16,0.125,184.17093,398.36932,986.72345,145.67006,440.5401,905.74414,211.54021,464.55646,867.25043
17,0.133,184.22293,398.66714,986.82141,145.68385,440.64957,906.02686,211.4648,465.1402,867.43286
18,0.142,184.15512,399.16116,987.14771,145.33241,441.60022,906.25104,211.40785,465.37183,867.57654
19,0.15,184.02974,399.54059,987.27136,144.94638,441.68597,907.31726,211.26817,465.8298,867.54126
20,0.158,183.8791,400.25583,987.6723,144.87811,441.68692,907.32562,211.10826,466.41653,868.18872
21,0.167,183.70589,400.94617,987.86108,144.75453,441.7113,907.46106,211.28661,467.46274,868.21075
22,0.175,183.60834,401.22446,988.31396,145.18904,442.72168,907.63348,211.55841,468.09427,868.36841
23,0.183,183.48941,401.29367,988.28589,144.9061,443.26782,908.33099,211.32819,468.15048,868.62903
24,0.192,183.76602,401.61288,988.66724,144.6924,443.81073,908.61639,211.11832,468.67484,869.25934
25,0.2,183.46465,402.07709,988.93835,144.8933,444.17487,909,210.94028,468.89737,869.30847
26,0.208,183.50476,402.83105,989.31714,144.96873,444.16254,909.29956,210.66461,469.8591,869.98975
27,0.217,183.22597,403.2778,989.69507,144.96873,444.16254,909.29956,210.56451,470.56403,870.28784
28,0.225,183.11627,403.33667,990.16089,144.64328,444.67517,909.70709,210.85406,471.54495,870.94489
29,0.233,183.16582,403.51328,990.25745,144.9852,446.02646,910.0246,210.3974,471.4433,871.87067
30,0.242,183.21127,404.02475,990.34723,144.8033,446.31137,910.14069,209.94588,471.66595,872.2124
31,0.25,183.07608,404.05173,990.37616,144.84843,446.56195,910.40527,209.79634,471.75186,872.31708
32,0.258,183.03572,404.33719,990.44952,144.73164,446.6138,910.53314,209.84242,471.56161,872.80804
33,0.267,182.8858,405.44244,990.55737,144.79649,446.81784,910.81873,209.88834,471.78879,873.08282
34,0.275,182.91312,405.66019,990.828,144.5847,446.95737,911.06171,209.88834,471.78879,873.08282
35,0.283,183.21135,405.81937,991.04297,144.48485,447.46671,911.15546,209.85478,472.66284,873.73248
36,0.292,183.01102,406.10526,991.43274,144.51801,447.56635,911.38379,209.87981,472.69498,873.88721
37,0.3,182.72882,406.27606,991.55573,144.03674,448.28378,911.69098,209.87981,472.69498,873.88721
38,0.308,182.11209,407.09137,991.96521,144.03674,448.28378,911.69098,209.48877,473.29675,874.06885
39,0.317,181.91042,407.12146,992.06189,144.03674,448.28378,911.69098,209.58714,473.65668,874.27222
40,0.325,181.91042,407.12146,992.06189,144.06152,448.5965,911.91516,209.68639,474.4483,874.52698
41,0.333,181.74867,407.19138,992.05212,143.87724,448.65979,912.14758,209.68639,474.4483,874.52698
42,0.342,181.61374,407.41086,992.02112,144.01038,448.67679,912.29279,209.9278,474.81845,874.48279
43,0.35,181.58043,407.47873,991.95593,144.01038,448.67679,912.29279,209.74994,475.0408,874.53198
44,0.358,181.46431,407.50873,992.13623,143.92995,448.93018,912.26172,209.76025,475.28851,874.75214
45,0.367,181.40802,407.62704,992.22552,143.81544,449.00122,912.22406,210.06792,475.57001,874.79156
46,0.375,181.30701,407.70386,992.31885,143.78944,449.34879,912.24353,209.83818,476.06906,874.51917
47,0.383,181.30701,407.70386,992.31885,143.78944,449.34879,912.24353,209.32278,476.95474,874.69147
48,0.392,181.79778,408.08487,992.94098,143.53467,449.42676,912.35156,209.32278,476.95474,874.69147
49,0.4,181.77254,408.15356,992.87122,143.53467,449.42676,912.35156,209.32278,476.95474,874.69147
50,0.408,181.77254,408.15356,992.87122,143.6338,449.82413,912.82501,209.19846,476.99539,874.69818
51,0.417,182.04308,408.50018,992.85724,143.6338,449.82413,912.82501,209.32278,476.95474,874.69147
52,0.425,182.04308,408.50018,992.85724,143.72664,450.65891,913.12238,209.09377,477.17764,874.66284
53,0.433,181.97363,408.76608,992.96057,143.24753,451.13342,913.27423,209.0174,477.61337,874.68121
54,0.442,181.97363,408.76608,992.96057,143.44981,451.28522,913.2442,208.88339,478.03625,874.75555
55,0.45,181.83698,408.84644,992.92737,143.29259,451.33963,913.1535,208.88339,478.03625,874.75555
56,0.458,181.83698,408.84644,992.92737,143.13808,451.48114,913.55835,208.88339,478.03625,874.75555
57,0.467,182.12715,408.72949,992.91919,142.96786,452.09048,913.61908,208.88339,478.03625,874.75555
58,0.475,182.04221,409.06241,992.89984,142.82332,452.26215,913.11951,208.71097,478.36612,874.75354
59,0.483,182.10355,409.23868,993.14258,142.92586,452.86731,913.25092,208.71097,478.36612,874.75354
60,0.492,182.19832,409.12564,993.23322,142.92586,452.86731,913.25092,208.71097,478.36612,874.75354
61,0.5,181.99823,409.42102,993.10382,142.92586,452.86731,913.25092,208.83911,478.51501,874.60492
62,0.508,181.99823,409.42102,993.10382,142.92775,453.34409,913.35016,208.83911,478.51501,874.60492
63,0.517,181.99823,409.42102,993.10382,143.22699,452.96603,913.99707,209.11736,478.68082,874.85608
64,0.525,182.149,409.61578,993.02148,143.22699,452.96603,913.99707,209.4736,478.87732,874.73059
65,0.533,182.149,409.61578,993.02148,143.27336,453.59125,913.29572,209.54019,478.93436,874.59979
66,0.542,182.43907,409.49884,993.01337,143.24669,453.64551,913.32166,209.54715,479.23074,874.8457
67,0.55,182.58171,409.42178,993.03998,143.7903,453.80969,913.32739,209.54715,479.23074,874.8457
68,0.558,182.7588,409.76663,993.2323,143.70398,453.85132,914.01471,209.72269,479.37079,874.86584
69,0.567,182.7588,409.76663,993.2323,143.70398,453.85132,914.01471,210.02676,479.48874,875.09882
70,0.575,182.7588,409.76663,993.2323,143.78609,454.12296,914.16107,210.51379,479.78308,875.42303
71,0.583,182.94241,410.04974,993.25031,143.78609,454.12296,914.16107,210.51379,479.78308,875.42303
72,0.592,182.95567,410.48099,993.49194,144.07292,454.13071,914.2403,210.76816,479.69464,875.46008
73,0.6,183.31767,410.48767,994.0047,144.07292,454.13071,914.2403,210.76816,479.69464,875.46008
74,0.608,183.31767,410.48767,994.0047,144.17236,454.7457,914.22662,210.71921,479.74976,875.59308
75,0.617,183.31767,410.48767,994.0047,144.47586,454.88144,914.51465,210.785,480.04355,875.8064
76,0.625,183.39734,410.49753,994.21509,144.47586,454.88144,914.51465,211.25836,480.21964,876.12903
77,0.633,183.31572,410.7926,994.32019,144.16083,455.02417,914.91602,211.43361,480.50479,876.15125
78,0.642,183.34297,410.82239,994.49829,144.16083,455.02417,914.91602,211.74995,480.85303,876.29999
79,0.65,183.55508,411.00076,994.60248,144.45876,454.9487,914.91071,211.77434,480.78522,876.36261
80,0.658,183.55508,411.00076,994.60248,144.60524,455.07925,914.99512,211.77434,480.78522,876.36261
81,0.667,183.79387,410.92929,994.66827,144.72028,455.13733,915.10071,211.74934,480.96103,876.57623
82,0.675,184.09554,411.35321,994.87006,144.67313,455.36484,915.07507,211.77959,481.09576,876.87952
83,0.683,184.31555,411.64468,995.07367,144.75139,455.55917,915.2663,212.33556,480.88498,876.89459
84,0.692,184.33757,412.29721,995.24292,145.31064,456.27939,915.23993,212.33556,480.88498,876.89459
85,0.7,184.45084,412.64087,995.36951,145.47935,456.5134,915.26349,212.33556,480.88498,876.89459
86,0.708,184.45084,412.64087,995.36951,145.64697,456.37546,915.27979,212.43803,481.09521,877.05737
87,0.717,184.32849,412.98734,995.36731,145.47935,456.5134,915.26349,212.63805,481.08871,877.15149
88,0.725,184.32849,412.98734,995.36731,145.5612,456.57343,915.20111,212.98212,481.13959,877.15479
89,0.733,184.32849,412.98734,995.36731,145.5612,456.57343,915.20111,212.99297,481.11703,877.47461
90,0.742,184.32849,412.98734,995.36731,146.41286,456.27002,914.81085,212.99297,481.11703,877.47461
91,0.75,184.32849,412.98734,995.36731,146.62808,456.09708,914.82788,212.99297,481.11703,877.47461
92,0.758,184.32849,412.98734,995.36731,146.67778,456.17435,914.74219,212.99297,481.11703,877.47461
93,0.767,184.32849,412.98734,995.36731,146.46255,456.34729,914.7251,212.99297,481.11703,877.47461
94,0.775,184.32849,412.98734,995.36731,146.67778,456.17435,914.74219,213.06071,481.14883,877.43115
95,0.783,184.32849,412.98734,995.36731,146.7923,456.10684,914.57538,213.06071,481.14883,877.43115
96,0.792,184.32849,412.98734,995.36731,146.67778,456.17435,914.74219,213.06071,481.14883,877.43115
97,0.8,184.32849,412.98734,995.36731,146.91185,456.10757,914.65967,213.17078,481.14417,877.39185
98,0.808,184.32849,412.98734,995.36731,147.04446,456.25659,914.39142,213.17078,481.14417,877.39185
99,0.817,184.32849,412.98734,995.36731,146.98289,456.40259,914.36066,213.14696,481.17981,877.09668
100,0.825,184.32849,412.98734,995.36731,146.99097,456.28598,914.44098,213.14696,481.17981,877.09668
101,0.833,184.25151,412.97699,995.24799,147.05756,456.22372,914.25989,213.14696,481.17981,877.09668
102,0.842,184.29001,412.86902,995.10718,146.97426,456.31003,914.19965,213.2684,481.08069,876.90527
103,0.85,184.47832,412.8042,994.73932,147.21574,456.15839,914.13,213.2684,481.08069,876.90527
104,0.858,184.37724,412.59061,994.58032,147.29068,456.03485,913.99219,213.17815,480.76212,876.4621
105,0.867,184.37724,412.59061,994.58032,146.98285,456.27527,914.0791,213.4278,480.73047,876.21631
106,0.875,184.37724,412.59061,994.58032,147.29068,456.03485,913.99219,213.48912,480.67184,876.08813
107,0.883,184.11801,412.1828,994.37549,147.00272,456.10779,913.79425,213.48912,480.67184,876.08813
108,0.892,184.11801,412.1828,994.37549,147.00272,456.10779,913.79425,213.43286,480.65781,875.95679
109,0.9,183.75948,411.78961,994.22791,147.15231,456.07724,913.78485,213.34409,480.42804,875.64587
110,0.908,183.75948,411.78961,994.22791,146.28363,456.20758,913.62158,213.15018,480.26657,875.71014
111,0.917,183.72208,411.0434,993.8681,146.68802,455.92538,913.58325,213.15018,480.26657,875.71014
112,0.925,183.72208,411.0434,993.8681,146.38466,455.78937,913.2951,212.95575,480.31812,875.62378
113,0.933,183.72208,411.0434,993.8681,146.52693,455.40814,913.50586,212.95575,480.31812,875.62378
114,0.942,183.45749,410.78683,993.62439,146.52539,455.05032,913.77539,212.95575,480.31812,875.62378
115,0.95,183.14735,410.65756,993.59729,145.53516,455.63867,913.11908,212.83839,480.32703,875.6615
116,0.958,183.2522,410.57117,993.65198,145.42955,454.77753,912.94611,212.85847,480.25537,875.72992
117,0.967,183.2522,410.57117,993.65198,145.18018,454.87994,912.93591,212.83839,480.32703,875.6615
118,0.975,183.14735,410.65756,993.59729,145.57019,454.72449,913.67468,212.77222,480.19971,876.01849
119,0.983,183.27115,410.71527,993.95209,145.56003,454.46704,913.50079,212.5394,480.30347,876.0697
120,0.992,182.78998,410.95801,994.11908,145.36638,454.52817,913.67261,212.77222,480.19971,876.01849
121,1,182.47223,410.94952,993.79364,145.58122,454.38327,913.70392,212.5394,480.30347,876.0697
122,1.008,182.57098,411.10333,994.3042,145.4839,454.66611,913.93188,212.5394,480.30347,876.0697
123,1.017,182.57098,411.10333,994.3042,144.91405,455.15219,913.13446,212.5394,480.30347,876.0697
124,1.025,182.07214,411.31271,994.17114,144.97023,454.81042,913.78333,212.56419,480.33582,876.22388
125,1.033,182.09105,411.29947,994.43622,145.09798,454.80295,913.75769,212.43509,480.39224,876.41309
126,1.042,182.09105,411.29947,994.43622,144.93213,455.16141,914.0686,212.43509,480.39224,876.41309
127,1.05,182.09105,411.29947,994.43622,144.78445,455.23105,914.22064,212.43509,480.39224,876.41309
128,1.058,182.11833,411.32928,994.61438,144.53438,454.91641,914.20001,212.43509,480.39224,876.41309
129,1.067,182.03957,411.7681,994.62469,144.78445,455.23105,914.22064,212.43509,480.39224,876.41309
130,1.075,181.91739,412.11465,994.6225,144.54176,455.28848,914.26294,212.36392,480.28928,876.59985
131,1.083,181.87558,412.08206,994.67981,144.3956,455.13443,914.48352,212.36392,480.28928,876.59985
132,1.092,181.74057,412.33661,994.66919,144.3956,455.13443,914.48352,212.08488,480.49252,876.96753
133,1.1,181.58522,412.39264,994.85553,144.11369,455.25171,914.89038,212.33815,480.55869,877.17334
134,1.108,181.74057,412.33661,994.66919,144.11369,455.25171,914.89038,212.36908,480.59988,877.11682
135,1.117,181.5667,412.57101,995.03497,144.11369,455.25171,914.89038,212.33849,480.50595,877.44135
136,1.125,181.35083,412.66931,995.07391,144.44461,455.87259,915.08911,212.18539,480.59885,877.56512
137,1.133,181.35083,412.66931,995.07391,144.44461,455.87259,915.08911,212.11163,480.82214,877.47321
138,1.142,181.35083,412.66931,995.07391,144.44461,455.87259,915.08911,211.68138,481.0032,877.64886
139,1.15,181.35083,412.66931,995.07391,144.25943,455.62915,915.271,212.054,480.88461,877.74158
140,1.158,181.35083,412.66931,995.07391,144.25943,455.62915,915.271,211.92064,481.19299,877.93036
141,1.167,181.16339,412.77582,995.16949,144.70802,456.31058,915.09845,211.92064,481.19299,877.93036
142,1.175,181.16339,412.77582,995.16949,144.70802,456.31058,915.09845,212.15652,481.09476,877.9043
143,1.183,180.98662,412.99774,995.21619,144.70802,456.31058,915.09845,211.92064,481.19299,877.93036
144,1.192,181.16339,412.77582,995.16949,144.70802,456.31058,915.09845,212.15652,481.09476,877.9043
145,1.2,180.98662,412.99774,995.21619,144.88751,456.57971,915.10553,212.15652,481.09476,877.9043
146,1.208,180.98662,412.99774,995.21619,144.88751,456.57971,915.10553,211.92064,481.19299,877.93036
147,1.217,180.98662,412.99774,995.21619,144.88751,456.57971,915.10553,211.92064,481.19299,877.93036
148,1.225,181.16339,412.77582,995.16949,144.88751,456.57971,915.10553,212.15652,481.09476,877.9043
149,1.233,181.06082,412.77917,995.29395,144.70802,456.31058,915.09845,212.35748,481.02759,877.9422
150,1.242,181.06082,412.77917,995.29395,144.70802,456.31058,915.09845,212.35748,481.02759,877.9422
151,1.25,180.94592,412.80362,995.31683,144.70802,456.31058,915.09845,212.35748,481.02759,877.9422
152,1.258,180.94592,412.80362,995.31683,144.70802,456.31058,915.09845,212.49184,480.80844,877.96942
153,1.267,180.94592,412.80362,995.31683,144.70802,456.31058,915.09845,212.49184,480.80844,877.96942
154,1.275,180.94592,412.80362,995.31683,144.44461,455.87259,915.08911,212.49184,480.80844,877.96942
155,1.283,180.68005,412.45151,995.43994,144.18114,455.43481,915.07983,212.18835,480.66547,877.76874
156,1.292,180.80222,412.10489,995.4422,144.18114,455.43481,915.07983,212.38933,480.59827,877.80664
157,1.3,180.79636,411.96298,995.32343,144.03465,455.30429,914.99548,212.18835,480.66547,877.76874
158,1.308,180.87503,411.52414,995.31317,144.16713,455.46033,914.81171,212.18835,480.66547,877.76874
159,1.317,180.87503,411.52414,995.31317,144.0787,455.40814,914.66418,212.4287,480.34848,877.64325
160,1.325,180.87503,411.52414,995.31317,143.94623,455.25211,914.84796,212.32693,480.35214,877.51257
161,1.333,180.42899,411.20724,995.33087,143.94623,455.25211,914.84796,212.32693,480.35214,877.51257
162,1.342,180.3391,411.03577,995.35858,143.94623,455.25211,914.84796,212.32693,480.35214,877.51257
163,1.35,180.39461,410.97437,995.24268,143.73808,455.06631,914.67078,212.19014,479.90076,876.96271
164,1.358,180.008,410.53522,994.90082,143.69815,455.0643,914.53912,211.83955,479.33044,876.91821
165,1.367,179.98067,410.50543,994.7226,143.59584,455.0451,914.56927,211.56171,479.43225,876.89789
166,1.375,179.98067,410.50543,994.7226,143.7576,454.85114,914.05756,211.28329,479.54138,876.9032
167,1.383,179.92308,409.98199,994.36066,143.53592,454.67789,913.76691,211.28329,479.54138,876.9032
168,1.392,179.92308,409.98199,994.36066,143.51393,454.12299,913.23511,211.11208,479.43057,876.65466
169,1.4,179.87914,409.61115,994.21887,143.36505,454.16525,913.0592,210.92706,479.28833,876.49707
170,1.408,179.69685,409.32504,994.00922,143.39337,454.09741,913.11346,210.52168,479.18863,876.22644
171,1.417,179.75752,409.25543,994.06396,143.36505,454.16525,913.0592,210.41728,478.73755,876.10516
172,1.425,179.57901,409.38931,993.98645,143.22279,454.14407,912.9577,210.42906,478.89114,876.03387
173,1.433,179.44966,409.18155,993.89117,143.13562,454.17828,912.94019,209.94949,478.62134,876.09235
174,1.442,179.04359,408.88785,993.52594,142.82343,453.73825,912.84161,209.27124,478.31903,875.41248
175,1.45,178.81822,408.86554,993.35425,142.59421,453.56519,912.74561,208.91759,478.39728,875.25409
176,1.458,178.81822,408.86554,993.35425,141.96936,453.28271,912.69849,208.68356,478.23911,875.57928
177,1.467,178.2854,408.77759,993.07617,141.81619,452.97491,912.53601,208.18178,477.92368,875.56311
178,1.475,178.2854,408.77759,993.07617,141.81619,452.97491,912.53601,208.26154,477.85202,875.4184
179,1.483,178.26605,408.63379,992.77625,141.81619,452.97491,912.53601,208.26154,477.85202,875.4184
180,1.492,178.15712,408.57477,992.89496,141.60632,452.92642,912.62091,208.26154,477.85202,875.4184
181,1.5,177.87979,408.48303,992.70868,141.13632,452.11786,912.32129,207.83302,477.71613,875.1283
182,1.508,177.6264,408.58276,992.9256,141.04776,451.99908,912.00763,207.63629,477.71304,875.06769
183,1.517,177.3873,408.65479,992.85962,140.51758,451.59756,911.77637,207.30063,477.57474,875.17725
184,1.525,176.91571,408.82968,992.98077,140.50754,451.70148,912.37024,206.52516,477.53925,875.22815
185,1.533,176.91571,408.82968,992.98077,140.28586,451.81296,912.48248,206.14177,477.49487,875.26971
186,1.542,176.30118,408.0368,992.90796,140.07593,451.3476,912.23126,205.55162,477.43488,875.24744
187,1.55,176.18471,407.86963,993.05634,139.88487,451.38669,912.29858,205.55162,477.43488,875.24744
188,1.558,176.18471,407.86963,993.05634,139.8459,451.64584,912.55017,205.55162,477.43488,875.24744
189,1.567,176.14539,408.02219,993.75427,138.88301,451.50937,913.37909,205.39574,477.29694,875.19385
190,1.575,176.09128,407.93683,993.68292,138.61803,451.84189,913.67194,205.26135,477.35034,875.38043
191,1.583,175.95306,407.97308,993.70258,138.61803,451.84189,913.67194,205.26135,477.35034,875.38043
192,1.592,176.0323,407.98975,993.84363,138.63602,451.98697,913.84656,205.26135,477.35034,875.38043
193,1.6,175.81197,408.10168,993.91711,138.63602,451.98697,913.84656,205.08301,477.44089,875.45923
194,1.608,175.4429,407.5379,993.8811,138.67584,451.88037,913.987,205.08301,477.44089,875.45923
195,1.617,175.20012,407.88858,993.91669,138.67584,451.88037,913.987,204.84642,477.46671,875.41498
196,1.625,175.20012,407.88858,993.91669,138.72046,452.14963,914.1308,204.63361,477.55695,875.54944
197,1.633,175.20012,407.88858,993.91669,138.67584,451.88037,913.987,204.63361,477.55695,875.54944
198,1.642,174.75972,408.23947,994.03577,138.72046,452.14963,914.1308,204.4994,477.77621,875.52222
199,1.65,175.01749,408.16705,994.12213,138.72046,452.14963,914.1308,204.4994,477.77621,875.52222
200,1.658,174.75972,408.23947,994.03577,138.53772,452.35699,914.12378,204.40332,477.92017,875.40698
201,1.667,175.01749,408.16705,994.12213,138.45892,452.55048,914.00574,204.09636,478.11404,875.78961
202,1.675,175.01749,408.16705,994.12213,138.53772,452.35699,914.12378,203.8994,478.31915,875.66693
