Frame#,Time,L.Forearm.x,L.Forearm.y,L.Forearm.z,L.Ulna.x,L.Ulna.y,L.Ulna.z,L.Radius.x,L.Radius.y,L.Radius.z
1,0,182.32883,218.12738,1055.95142,258.92471,284.71387,1053.38269,296.79944,214.8999,1086.82959
2,0.008,181.53394,217.31752,1056.17847,259.27914,284.87112,1053.24329,296.17896,214.03535,1086.79688
3,0.017,181.53394,217.31752,1056.17847,258.92471,284.71387,1053.38269,296.66959,212.58345,1087.37878
4,0.025,181.53394,217.31752,1056.17847,258.92471,284.71387,1053.38269,296.54831,215.30975,1087.00269
5,0.033,181.44005,217.05589,1055.77002,258.81772,285.27405,1053.42627,295.92792,214.44524,1086.96985
6,0.042,181.53394,217.31752,1056.17847,258.98868,285.42401,1053.29895,296.54831,215.30975,1087.00269
7,0.05,181.53394,217.31752,1056.17847,258.81772,285.27405,1053.42627,295.81146,212.31264,1087.46375
8,0.058,181.29494,217.02002,1056.67725,258.81772,285.27405,1053.42627,296.54831,215.30975,1087.00269
9,0.067,181.29494,217.02002,1056.67725,258.81772,285.27405,1053.42627,296.43076,212.85178,1087.5083
10,0.075,182.43561,217.45021,1056.5459,258.81772,285.27405,1053.42627,296.54831,215.30975,1087.00269
11,0.083,181.26878,216.87514,1056.97681,258.81772,285.27405,1053.42627,296.54831,215.30975,1087.00269
12,0.092,181.26878,216.87514,1056.97681,258.7547,285.53799,1053.70825,296.21964,215.15755,1087.23499
13,0.1,181.52069,216.99803,1056.68445,258.57904,285.99576,1053.87,296.11844,212.76288,1087.67603
14,0.108,181.53394,217.31752,1056.17847,258.57904,285.99576,1053.87,296.54831,215.30975,1087.00269
15,0.117,182.32883,218.12738,1055.95142,258.20422,286.37311,1053.92493,296.18204,215.95341,1087.46008
16,0.125,181.88152,217.38261,1056.90674,258.20422,286.37311,1053.92493,296.18204,215.95341,1087.46008
17,0.133,181.88152,217.38261,1056.90674,258.20422,286.37311,1053.92493,296.42194,215.82088,1087.70398
18,0.142,181.88152,217.38261,1056.90674,258.20422,286.37311,1053.92493,296.42194,215.82088,1087.70398
19,0.15,181.88152,217.38261,1056.90674,258.20422,286.37311,1053.92493,296.42194,215.82088,1087.70398
20,0.158,181.88152,217.38261,1056.90674,258.20422,286.37311,1053.92493,296.06665,216.05319,1087.95142
21,0.167,181.61429,217.61638,1057.10889,258.33566,286.56491,1054.07056,296.06665,216.05319,1087.95142
22,0.175,181.88152,217.38261,1056.90674,258.20422,286.37311,1053.92493,296.06665,216.05319,1087.95142
23,0.183,181.61429,217.61638,1057.10889,258.20422,286.37311,1053.92493,296.06665,216.05319,1087.95142
24,0.192,181.58229,218.53494,1056.91028,258.33566,286.56491,1054.07056,295.83478,216.44498,1088.39612
25,0.2,181.31508,218.76874,1057.11243,258.33566,286.56491,1054.07056,295.74869,214.83264,1088.76489
26,0.208,181.31508,218.76874,1057.11243,258.33566,286.56491,1054.07056,295.83478,216.44498,1088.39612
27,0.217,181.31508,218.76874,1057.11243,258.33566,286.56491,1054.07056,296.04691,216.93178,1088.5116
28,0.225,181.31508,218.76874,1057.11243,258.33566,286.56491,1054.07056,296.04691,216.93178,1088.5116
29,0.233,181.31508,218.76874,1057.11243,259.09067,287.17297,1053.88696,295.83478,216.44498,1088.39612
30,0.242,181.31508,218.76874,1057.11243,258.65768,286.88574,1053.95251,296.37527,217.08394,1088.27966
31,0.25,181.81898,219.16405,1057.18738,258.65768,286.88574,1053.95251,296.41962,217.45514,1088.72583
32,0.258,182.08627,218.93027,1056.98511,258.65768,286.88574,1053.95251,296.41962,217.45514,1088.72583
33,0.267,182.70042,219.43661,1056.91479,259.09067,287.17297,1053.88696,296.48328,215.52811,1088.53076
34,0.275,182.40018,220.58945,1056.91833,258.65768,286.88574,1053.95251,296.36734,216.82458,1087.59094
35,0.283,182.40018,220.58945,1056.91833,258.65768,286.88574,1053.95251,296.36734,216.82458,1087.59094
36,0.292,182.40018,220.58945,1056.91833,259.34421,287.11154,1053.39905,296.35861,215.12108,1087.6676
37,0.3,182.70042,219.43661,1056.91479,259.24387,287.1825,1053.30981,296.35861,215.12108,1087.6676
38,0.308,182.40018,220.58945,1056.91833,259.22791,287.10498,1053.49402,296.72275,216.59216,1087.34338
39,0.317,182.40018,220.58945,1056.91833,259.12732,287.17828,1053.40771,296.52277,216.96315,1086.9541
40,0.325,182.40018,220.58945,1056.91833,259.12732,287.17828,1053.40771,296.52277,216.96315,1086.9541
41,0.333,182.40018,220.58945,1056.91833,259.12732,287.17828,1053.40771,296.47214,215.20355,1087.19116
42,0.342,182.40018,220.58945,1056.91833,259.12732,287.17828,1053.40771,296.52277,216.96315,1086.9541
43,0.35,182.86581,220.46802,1056.92456,259.12732,287.17828,1053.40771,296.52277,216.96315,1086.9541
44,0.358,182.86581,220.46802,1056.92456,259.12732,287.17828,1053.40771,296.52277,216.96315,1086.9541
45,0.367,183.27898,219.14832,1056.59241,259.28339,287.23706,1053.14453,297.06061,215.76509,1086.59241
46,0.375,183.27898,219.14832,1056.59241,259.28339,287.23706,1053.14453,296.90533,217.52039,1086.28674
47,0.383,183.27898,219.14832,1056.59241,259.28339,287.23706,1053.14453,296.90533,217.52039,1086.28674
48,0.392,182.86581,220.46802,1056.92456,259.28339,287.23706,1053.14453,297.06732,218.09474,1085.77954
49,0.4,183.27898,219.14832,1056.59241,259.85077,287.14682,1053.03601,297.19116,217.72855,1085.94458
50,0.408,183.27898,219.14832,1056.59241,259.85077,287.14682,1053.03601,297.19116,217.72855,1085.94458
51,0.417,183.27898,219.14832,1056.59241,259.85077,287.14682,1053.03601,297.69147,217.53558,1085.98486
52,0.425,183.27898,219.14832,1056.59241,259.82358,287.22531,1052.93457,297.69147,217.53558,1085.98486
53,0.433,183.27898,219.14832,1056.59241,260.02762,287.16782,1052.90369,297.6759,215.50653,1086.27783
54,0.442,183.27898,219.14832,1056.59241,259.85077,287.14682,1053.03601,297.69147,217.53558,1085.98486
55,0.45,183.27898,219.14832,1056.59241,259.85077,287.14682,1053.03601,297.56052,217.15176,1085.87708
56,0.458,183.27898,219.14832,1056.59241,259.85077,287.14682,1053.03601,297.69147,217.53558,1085.98486
57,0.467,183.27898,219.14832,1056.59241,259.85077,287.14682,1053.03601,297.53683,216.94858,1086.11865
58,0.475,184.24794,218.71149,1056.51685,259.85077,287.14682,1053.03601,297.69147,217.53558,1085.98486
59,0.483,184.24794,218.71149,1056.51685,259.85077,287.14682,1053.03601,297.6759,215.50653,1086.27783
60,0.492,184.24794,218.71149,1056.51685,259.85077,287.14682,1053.03601,297.69147,217.53558,1085.98486
61,0.5,183.32962,218.85664,1056.30188,259.85077,287.14682,1053.03601,297.56052,217.15176,1085.87708
62,0.508,184.24794,218.71149,1056.51685,259.77438,287.15506,1052.53247,297.69147,217.53558,1085.98486
63,0.517,184.24794,218.71149,1056.51685,260.18167,287.00754,1052.48389,297.56052,217.15176,1085.87708
64,0.525,184.29872,218.41975,1056.22632,260.37192,287.09702,1052.20349,297.56052,217.15176,1085.87708
65,0.533,184.29872,218.41975,1056.22632,260.15448,287.086,1052.38245,297.56052,217.15176,1085.87708
66,0.542,184.29872,218.41975,1056.22632,260.15448,287.086,1052.38245,297.56052,217.15176,1085.87708
67,0.55,184.29872,218.41975,1056.22632,260.15448,287.086,1052.38245,297.56052,217.15176,1085.87708
68,0.558,184.29872,218.41975,1056.22632,260.18167,287.00754,1052.48389,297.56052,217.15176,1085.87708
69,0.567,184.24794,218.71149,1056.51685,260.37192,287.09702,1052.20349,297.56052,217.15176,1085.87708
70,0.575,184.24794,218.71149,1056.51685,260.06982,286.45187,1052.27844,297.56052,217.15176,1085.87708
71,0.583,184.29872,218.41975,1056.22632,260.18167,287.00754,1052.48389,297.56052,217.15176,1085.87708
72,0.592,184.29872,218.41975,1056.22632,260.18167,287.00754,1052.48389,297.56052,217.15176,1085.87708
73,0.6,184.29872,218.41975,1056.22632,260.15448,287.086,1052.38245,297.72342,214.93117,1086.38818
74,0.608,184.29872,218.41975,1056.22632,260.18167,287.00754,1052.48389,297.56052,217.15176,1085.87708
75,0.617,184.29872,218.41975,1056.22632,260.15448,287.086,1052.38245,297.56052,217.15176,1085.87708
76,0.625,184.29872,218.41975,1056.22632,260.15448,287.086,1052.38245,297.56052,217.15176,1085.87708
77,0.633,184.29872,218.41975,1056.22632,260.35617,287.09711,1052.34473,297.56052,217.15176,1085.87708
78,0.642,184.29872,218.41975,1056.22632,260.45377,287.15277,1052.25964,298.34485,216.70395,1085.60571
79,0.65,185.26747,217.98405,1056.15137,260.55405,286.8259,1052.39563,298.34485,216.70395,1085.60571
80,0.658,185.26747,217.98405,1056.15137,260.53668,287.23914,1052.13574,298.34485,216.70395,1085.60571
81,0.667,185.26747,217.98405,1056.15137,260.53668,287.23914,1052.13574,298.34485,216.70395,1085.60571
82,0.675,185.26747,217.98405,1056.15137,260.62061,287.16284,1051.62463,298.34485,216.70395,1085.60571
83,0.683,185.26747,217.98405,1056.15137,260.62061,287.16284,1051.62463,298.34485,216.70395,1085.60571
84,0.692,185.26747,217.98405,1056.15137,260.62061,287.16284,1051.62463,298.22083,217.07022,1085.44067
85,0.7,185.26747,217.98405,1056.15137,260.62061,287.16284,1051.62463,298.34485,216.70395,1085.60571
86,0.708,185.30225,217.58031,1055.71838,260.62061,287.16284,1051.62463,298.64746,216.93005,1085.41382
87,0.717,185.30225,217.58031,1055.71838,260.62061,287.16284,1051.62463,298.5654,216.96025,1085.05713
88,0.725,186.15953,217.19481,1055.63794,260.62061,287.16284,1051.62463,298.5654,216.96025,1085.05713
89,0.733,185.78336,217.24878,1055.55078,261.56259,287.11935,1051.44653,298.96942,217.93703,1085.30237
90,0.742,185.78336,217.24878,1055.55078,261.24667,287.08435,1051.68542,298.5654,216.96025,1085.05713
91,0.75,185.73753,217.24374,1054.76868,261.30588,287.02127,1051.27588,298.5654,216.96025,1085.05713
92,0.758,186.15953,217.19481,1055.63794,261.19778,286.87115,1050.76648,299.01129,217.60098,1085.11084
93,0.767,186.48909,217.11444,1055.26685,261.04828,286.85641,1050.45972,299.21814,216.88345,1085.2627
94,0.775,186.48909,217.11444,1055.26685,261.04828,286.85641,1050.45972,298.5654,216.96025,1085.05713
95,0.783,186.44324,217.1095,1054.48486,261.32648,286.83148,1050.4613,298.5654,216.96025,1085.05713
96,0.792,186.44324,217.1095,1054.48486,261.32648,286.83148,1050.4613,299.01129,217.60098,1085.11084
97,0.8,186.44324,217.1095,1054.48486,260.87302,286.31909,1050.43372,299.01129,217.60098,1085.11084
98,0.808,186.44324,217.1095,1054.48486,261.06332,286.44809,1050.1698,299.21814,216.88345,1085.2627
99,0.817,187.1386,216.6813,1054.29749,261.38495,286.76901,1050.05176,299.01129,217.60098,1085.11084
100,0.825,187.1386,216.6813,1054.29749,261.38495,286.76901,1050.05176,299.28113,217.67435,1084.92981
101,0.833,186.91983,217.13741,1054.12939,261.77026,286.46027,1049.41577,299.28113,217.67435,1084.92981
102,0.842,186.91983,217.13741,1054.12939,261.68698,286.53677,1049.92712,299.01129,217.60098,1085.11084
103,0.85,186.91983,217.13741,1054.12939,262.18887,286.50903,1049.66406,299.28113,217.67435,1084.92981
104,0.858,187.1386,216.6813,1054.29749,262.27231,286.4324,1049.15259,299.28113,217.67435,1084.92981
105,0.867,187.1386,216.6813,1054.29749,262.27231,286.4324,1049.15259,299.50906,215.87592,1084.98804
106,0.875,187.1386,216.6813,1054.29749,262.79828,286.45673,1048.8208,299.28113,217.67435,1084.92981
107,0.883,187.1386,216.6813,1054.29749,262.41809,286.42249,1049.47034,299.28113,217.67435,1084.92981
108,0.892,187.15063,216.38593,1054.13354,262.41809,286.42249,1049.47034,299.28113,217.67435,1084.92981
109,0.9,186.91983,217.13741,1054.12939,262.60934,285.78506,1048.91479,299.28113,217.67435,1084.92981
110,0.908,186.91983,217.13741,1054.12939,262.63458,286.04568,1049.35339,299.28113,217.67435,1084.92981
111,0.917,186.91983,217.13741,1054.12939,262.63458,286.04568,1049.35339,299.28113,217.67435,1084.92981
112,0.925,187.1386,216.6813,1054.29749,262.61041,286.52972,1048.88599,299.28113,217.67435,1084.92981
113,0.933,187.1386,216.6813,1054.29749,262.80563,286.47086,1048.60095,299.50906,215.87592,1084.98804
114,0.942,187.1386,216.6813,1054.29749,262.91345,285.91003,1048.55676,299.28113,217.67435,1084.92981
115,0.95,186.91983,217.13741,1054.12939,263.02219,286.09412,1048.48389,299.28113,217.67435,1084.92981
116,0.958,186.91983,217.13741,1054.12939,263.02219,286.09412,1048.48389,299.28113,217.67435,1084.92981
117,0.967,186.91983,217.13741,1054.12939,263.35757,286.19781,1048.30432,299.47015,215.62895,1085.25842
118,0.975,186.91983,217.13741,1054.12939,263.02219,286.09412,1048.48389,299.28113,217.67435,1084.92981
119,0.983,186.91983,217.13741,1054.12939,263.02219,286.09412,1048.48389,299.28113,217.67435,1084.92981
120,0.992,186.91983,217.13741,1054.12939,263.02219,286.09412,1048.48389,299.28113,217.67435,1084.92981
121,1,186.91983,217.13741,1054.12939,263.02219,286.09412,1048.48389,299.28113,217.67435,1084.92981
122,1.008,186.91983,217.13741,1054.12939,263.35757,286.19781,1048.30432,299.28113,217.67435,1084.92981
123,1.017,186.91983,217.13741,1054.12939,263.02219,286.09412,1048.48389,299.28113,217.67435,1084.92981
124,1.025,186.91983,217.13741,1054.12939,263.02219,286.09412,1048.48389,299.77084,215.869,1084.7384
125,1.033,186.93188,216.842,1053.96545,263.02219,286.09412,1048.48389,299.28113,217.67435,1084.92981
126,1.042,186.91983,217.13741,1054.12939,263.02219,286.09412,1048.48389,299.56161,217.66864,1084.6095
127,1.05,186.93188,216.842,1053.96545,263.02219,286.09412,1048.48389,299.35233,217.68524,1084.24512
128,1.058,186.91983,217.13741,1054.12939,263.02219,286.09412,1048.48389,299.35233,217.68524,1084.24512
129,1.067,186.88762,216.83499,1053.18323,263.02219,286.09412,1048.48389,299.35233,217.68524,1084.24512
130,1.075,186.87566,217.13034,1053.34717,263.02219,286.09412,1048.48389,299.35233,217.68524,1084.24512
131,1.083,186.6375,217.28615,1052.64783,263.02219,286.09412,1048.48389,299.35233,217.68524,1084.24512
132,1.092,186.62555,217.58151,1052.81189,263.02219,286.09412,1048.48389,299.21533,218.04642,1083.75439
133,1.1,186.88339,218.72644,1051.53784,262.7645,286.08051,1048.25537,299.39362,216.13754,1084.05505
134,1.108,186.59926,218.88979,1051.2782,262.7645,286.08051,1048.25537,299.15634,216.27704,1083.93945
135,1.117,186.88339,218.72644,1051.53784,262.7645,286.08051,1048.25537,299.21533,218.04642,1083.75439
136,1.125,186.2923,218.87726,1051.47034,263.04681,286.44348,1048.41052,298.97708,218.24419,1083.6134
137,1.133,186.2923,218.87726,1051.47034,263.04681,286.44348,1048.41052,298.97708,218.24419,1083.6134
138,1.142,186.2923,218.87726,1051.47034,262.7645,286.08051,1048.25537,298.97708,218.24419,1083.6134
139,1.15,186.2923,218.87726,1051.47034,262.7645,286.08051,1048.25537,298.8118,218.62556,1083.2699
140,1.158,186.2923,218.87726,1051.47034,263.04681,286.44348,1048.41052,298.8118,218.62556,1083.2699
141,1.167,186.2923,218.87726,1051.47034,262.78094,286.50839,1048.35437,298.8118,218.62556,1083.2699
142,1.175,186.2923,218.87726,1051.47034,262.78287,287.18463,1048.23999,298.8118,218.62556,1083.2699
143,1.183,186.2923,218.87726,1051.47034,262.78287,287.18463,1048.23999,298.8118,218.62556,1083.2699
144,1.192,186.2923,218.87726,1051.47034,262.51709,287.24945,1048.18396,298.67429,218.9877,1082.77979
145,1.2,186.2923,218.87726,1051.47034,262.51709,287.24945,1048.18396,298.67429,218.9877,1082.77979
146,1.208,186.2923,218.87726,1051.47034,262.14212,287.62689,1048.23938,298.832,217.77162,1082.80688
147,1.217,186.2923,218.87726,1051.47034,261.82819,287.98776,1047.81079,298.832,217.77162,1082.80688
148,1.225,186.2923,218.87726,1051.47034,261.82819,287.98776,1047.81079,298.832,217.77162,1082.80688
149,1.233,186.2923,218.87726,1051.47034,261.82819,287.98776,1047.81079,298.67429,218.9877,1082.77979
150,1.242,185.81097,219.20874,1051.63806,262.00949,287.99741,1048.15442,298.67429,218.9877,1082.77979
151,1.25,185.81097,219.20874,1051.63806,261.98349,288.80121,1048.16858,298.832,217.77162,1082.80688
152,1.258,185.81097,219.20874,1051.63806,262.4057,289.00916,1048.02698,298.67429,218.9877,1082.77979
153,1.267,185.81097,219.20874,1051.63806,261.98349,288.80121,1048.16858,298.57889,219.29002,1082.4679
154,1.275,185.81097,219.20874,1051.63806,261.98349,288.80121,1048.16858,298.67429,218.9877,1082.77979
155,1.283,185.81097,219.20874,1051.63806,261.55731,289.22141,1048.07373,298.832,217.77162,1082.80688
156,1.292,185.81097,219.20874,1051.63806,261.77475,289.21124,1048.0625,298.17413,219.18001,1082.73938
157,1.3,185.81097,219.20874,1051.63806,261.49176,289.28345,1047.99866,298.19788,219.38345,1082.49792
158,1.308,185.81097,219.20874,1051.63806,261.49176,289.28345,1047.99866,298.35773,218.05055,1082.57593
159,1.317,185.81097,219.20874,1051.63806,260.92499,289.37262,1048.10706,298.35773,218.05055,1082.57593
160,1.325,185.379,219.88588,1051.10144,260.92499,289.37262,1048.10706,298.17413,219.18001,1082.73938
161,1.333,185.81097,219.20874,1051.63806,260.55084,289.41422,1048.02405,298.17413,219.18001,1082.73938
162,1.342,185.379,219.88588,1051.10144,260.55084,289.41422,1048.02405,298.19788,219.38345,1082.49792
163,1.35,185.379,219.88588,1051.10144,260.55084,289.41422,1048.02405,298.17346,219.50082,1083.1095
164,1.358,185.71503,219.62964,1051.87085,260.30051,289.45419,1047.99927,297.88562,220.0166,1083.4325
165,1.367,185.22177,220.32857,1051.3457,260.30051,289.45419,1047.99927,297.90927,220.22005,1083.19128
166,1.375,185.22177,220.32857,1051.3457,260.30051,289.45419,1047.99927,297.88562,220.0166,1083.4325
167,1.383,185.22177,220.32857,1051.3457,260.55084,289.41422,1048.02405,297.90927,220.22005,1083.19128
168,1.392,184.46051,220.78419,1051.53687,259.92181,289.51752,1048.10278,297.88562,220.0166,1083.4325
169,1.4,184.46051,220.78419,1051.53687,259.92181,289.51752,1048.10278,297.88562,220.0166,1083.4325
170,1.408,184.46051,220.78419,1051.53687,259.92181,289.51752,1048.10278,297.78534,218.18637,1084.00916
171,1.417,184.46051,220.78419,1051.53687,259.92181,289.51752,1048.10278,297.88562,220.0166,1083.4325
172,1.425,183.9821,220.57837,1051.83069,259.92181,289.51752,1048.10278,297.88562,220.0166,1083.4325
173,1.433,183.9821,220.57837,1051.83069,259.92181,289.51752,1048.10278,297.88562,220.0166,1083.4325
174,1.442,183.9821,220.57837,1051.83069,259.3595,289.58569,1048.0249,297.60504,220.02216,1083.7533
175,1.45,184.46051,220.78419,1051.53687,259.3595,289.58569,1048.0249,297.60504,220.02216,1083.7533
176,1.458,184.46051,220.78419,1051.53687,259.3595,289.58569,1048.0249,297.78534,218.18637,1084.00916
177,1.467,183.9821,220.57837,1051.83069,260.10254,289.74527,1048.19446,297.78534,218.18637,1084.00916
178,1.475,184.46051,220.78419,1051.53687,260.10254,289.74527,1048.19446,297.74258,219.66017,1084.24304
179,1.483,184.46051,220.78419,1051.53687,259.92181,289.51752,1048.10278,297.88562,220.0166,1083.4325
180,1.492,184.46051,220.78419,1051.53687,260.10254,289.74527,1048.19446,297.78534,218.18637,1084.00916
181,1.5,184.46051,220.78419,1051.53687,260.10254,289.74527,1048.19446,297.60504,220.02216,1083.7533
182,1.508,184.46051,220.78419,1051.53687,259.54031,289.81345,1048.1167,298.02313,219.65459,1083.92249
183,1.517,184.46051,220.78419,1051.53687,260.30051,289.45419,1047.99927,297.78534,218.18637,1084.00916
184,1.525,184.46051,220.78419,1051.53687,260.30051,289.45419,1047.99927,297.88562,220.0166,1083.4325
185,1.533,184.46051,220.78419,1051.53687,260.48117,289.68192,1048.09106,297.88562,220.0166,1083.4325
186,1.542,184.46051,220.78419,1051.53687,260.73148,289.64194,1048.11584,297.88562,220.0166,1083.4325
187,1.55,185.22177,220.32857,1051.3457,260.73148,289.64194,1048.11584,298.04721,218.17958,1083.75928
188,1.558,185.22177,220.32857,1051.3457,260.73148,289.64194,1048.11584,297.88562,220.0166,1083.4325
189,1.567,185.22177,220.32857,1051.3457,260.91476,289.59537,1047.90417,297.88562,220.0166,1083.4325
190,1.575,185.22177,220.32857,1051.3457,260.55084,289.41422,1048.02405,297.90927,220.22005,1083.19128
191,1.583,185.71503,219.62964,1051.87085,260.73148,289.64194,1048.11584,297.90927,220.22005,1083.19128
192,1.592,185.45923,220.59064,1051.89905,260.73148,289.64194,1048.11584,297.88562,220.0166,1083.4325
193,1.6,184.87289,221.11708,1051.44885,260.55084,289.41422,1048.02405,297.90927,220.22005,1083.19128
194,1.608,185.71503,219.62964,1051.87085,260.73148,289.64194,1048.11584,297.90927,220.22005,1083.19128
195,1.617,185.45923,220.59064,1051.89905,260.50137,289.48889,1047.93042,298.04675,219.8582,1083.68127
196,1.625,185.50052,220.33107,1051.72632,260.9295,289.35101,1047.92065,297.90927,220.22005,1083.19128
