Frame#,Time,L.Forearm.x,L.Forearm.y,L.Forearm.z,L.Ulna.x,L.Ulna.y,L.Ulna.z,L.Radius.x,L.Radius.y,L.Radius.z
1,0,-54.75323,275.44009,683.19226,11.83317,277.69266,623.02423,56.25699,213.9016,655.23212
2,0.008,-54.75323,275.44009,683.19226,12.01619,276.82806,622.96875,56.25699,213.9016,655.23212
3,0.017,-54.80984,275.32941,683.43243,12.01619,276.82806,622.96875,56.25699,213.9016,655.23212
4,0.025,-54.75323,275.44009,683.19226,11.90174,276.56796,623.02081,56.25699,213.9016,655.23212
5,0.033,-54.75323,275.44009,683.19226,11.7081,276.59351,623.06006,56.25699,213.9016,655.23212
6,0.042,-54.75323,275.44009,683.19226,11.7081,276.59351,623.06006,56.25699,213.9016,655.23212
7,0.05,-54.75323,275.44009,683.19226,11.7081,276.59351,623.06006,56.25699,213.9016,655.23212
8,0.058,-54.80984,275.32941,683.43243,11.7081,276.59351,623.06006,56.25699,213.9016,655.23212
9,0.067,-54.80984,275.32941,683.43243,11.7081,276.59351,623.06006,56.25699,213.9016,655.23212
10,0.075,-54.80984,275.32941,683.43243,11.7081,276.59351,623.06006,56.25699,213.9016,655.23212
11,0.083,-54.80984,275.32941,683.43243,11.71875,277.43271,623.07629,56.25699,213.9016,655.23212
12,0.092,-54.80984,275.32941,683.43243,11.71875,277.43271,623.07629,56.25699,213.9016,655.23212
13,0.1,-54.87623,275.18765,683.58698,11.61335,277.46127,623.31104,56.25699,213.9016,655.23212
14,0.108,-54.78155,275.36414,683.72235,11.61335,277.46127,623.31104,56.25699,213.9016,655.23212
15,0.117,-54.78155,275.36414,683.72235,11.61335,277.46127,623.31104,56.25699,213.9016,655.23212
16,0.125,-54.71515,275.50592,683.56787,11.61335,277.46127,623.31104,56.25699,213.9016,655.23212
17,0.133,-54.83512,275.76578,683.50824,11.72776,277.72125,623.25891,56.45959,213.84889,655.40588
18,0.142,-54.78155,275.36414,683.72235,11.80694,277.4357,623.27179,56.45959,213.84889,655.40588
19,0.15,-54.71515,275.50592,683.56787,11.92135,277.69568,623.21967,56.45959,213.84889,655.40588
20,0.158,-54.90152,275.62399,683.66278,11.72776,277.72125,623.25891,56.45959,213.84889,655.40588
21,0.167,-54.78155,275.36414,683.72235,11.80694,277.4357,623.27179,56.25699,213.9016,655.23212
22,0.175,-54.63786,275.56363,683.65186,11.72776,277.72125,623.25891,56.28286,213.9064,655.58954
23,0.183,-54.75783,275.82349,683.59229,11.92135,277.69568,623.21967,56.45959,213.84889,655.40588
24,0.192,-54.63786,275.56363,683.65186,11.92135,277.69568,623.21967,56.45959,213.84889,655.40588
25,0.2,-54.63786,275.56363,683.65186,11.92135,277.69568,623.21967,56.45959,213.84889,655.40588
26,0.208,-54.75783,275.82349,683.59229,11.92135,277.69568,623.21967,56.45959,213.84889,655.40588
27,0.217,-54.63786,275.56363,683.65186,12.15624,277.55423,623.27625,56.45959,213.84889,655.40588
28,0.225,-54.63786,275.56363,683.65186,12.11608,277.64847,623.20056,56.45959,213.84889,655.40588
29,0.233,-54.63786,275.56363,683.65186,12.11608,277.64847,623.20056,56.45959,213.84889,655.40588
30,0.242,-54.63786,275.56363,683.65186,12.34634,277.53854,623.22913,56.45959,213.84889,655.40588
31,0.25,-54.34251,275.40479,683.67334,12.11608,277.64847,623.20056,56.45959,213.84889,655.40588
32,0.258,-54.34251,275.40479,683.67334,12.11608,277.64847,623.20056,56.45959,213.84889,655.40588
33,0.267,-54.63786,275.56363,683.65186,12.57226,276.67642,623.0777,56.45959,213.84889,655.40588
34,0.275,-54.04719,275.24619,683.69476,12.38912,277.54108,623.13312,56.45959,213.84889,655.40588
35,0.283,-54.34251,275.40479,683.67334,12.80257,276.56641,623.1062,56.45959,213.84889,655.40588
36,0.292,-54.45071,275.86746,683.58704,12.80257,276.56641,623.1062,56.25699,213.9016,655.23212
37,0.3,-53.68017,275.79318,683.38171,12.50455,276.66122,622.85297,56.25699,213.9016,655.23212
38,0.308,-54.26762,275.64508,683.24829,12.50455,276.66122,622.85297,56.52268,213.86978,655.11951
39,0.317,-54.04719,275.24619,683.69476,12.57226,276.67642,623.0777,56.72526,213.81708,655.29321
40,0.325,-53.93361,275.3475,683.60107,12.73486,276.55124,622.88147,56.45959,213.84889,655.40588
41,0.333,-53.66447,275.33276,683.55853,12.32143,277.52591,622.90851,56.45959,213.84889,655.40588
42,0.342,-53.74649,275.65137,683.53619,12.55171,277.41592,622.93701,56.25699,213.9016,655.23212
43,0.35,-54.04177,275.81,683.51477,12.95247,276.87714,622.88324,56.72526,213.81708,655.29321
44,0.358,-53.4773,275.63666,683.49365,12.6194,277.43109,623.16168,56.72526,213.81708,655.29321
45,0.367,-53.74649,275.65137,683.53619,12.83695,277.75681,623.16339,56.45959,213.84889,655.40588
46,0.375,-53.68017,275.79318,683.38171,12.83695,277.75681,623.16339,56.88739,213.85938,655.22601
47,0.383,-53.66447,275.33276,683.55853,12.83695,277.75681,623.16339,56.72526,213.81708,655.29321
48,0.392,-53.4773,275.63666,683.49365,12.83695,277.75681,623.16339,56.72526,213.81708,655.29321
49,0.4,-53.4773,275.63666,683.49365,13.04703,278.06155,623.31854,56.72526,213.81708,655.29321
50,0.408,-53.4773,275.63666,683.49365,13.04703,278.06155,623.31854,56.45959,213.84889,655.40588
51,0.417,-53.59088,275.53531,683.58734,13.04703,278.06155,623.31854,56.45959,213.84889,655.40588
52,0.425,-53.59088,275.53531,683.58734,13.04703,278.06155,623.31854,56.72526,213.81708,655.29321
53,0.433,-53.4773,275.63666,683.49365,13.04703,278.06155,623.31854,56.72526,213.81708,655.29321
54,0.442,-53.4773,275.63666,683.49365,13.04703,278.06155,623.31854,56.45959,213.84889,655.40588
55,0.45,-53.74649,275.65137,683.53619,12.83695,277.75681,623.16339,56.45959,213.84889,655.40588
56,0.458,-53.74649,275.65137,683.53619,12.83695,277.75681,623.16339,56.45959,213.84889,655.40588
57,0.467,-53.41099,275.77847,683.33911,12.60668,277.86679,623.13489,56.72526,213.81708,655.29321
58,0.475,-53.4773,275.63666,683.49365,12.83695,277.75681,623.16339,56.72526,213.81708,655.29321
59,0.483,-53.68017,275.79318,683.38171,12.60668,277.86679,623.13489,56.88739,213.85938,655.22601
60,0.492,-53.8673,275.48932,683.44659,12.02791,277.64548,623.00513,56.88739,213.85938,655.22601
61,0.5,-54.22891,275.50613,683.57965,12.6194,277.43109,623.16168,56.68481,213.91211,655.05231
62,0.508,-54.34251,275.40479,683.67334,12.32143,277.52591,622.90851,56.52268,213.86978,655.11951
63,0.517,-54.27615,275.5466,683.5188,12.32143,277.52591,622.90851,56.72526,213.81708,655.29321
64,0.525,-53.98086,275.38797,683.54022,12.50455,276.66122,622.85297,56.52268,213.86978,655.11951
65,0.533,-54.27615,275.5466,683.5188,12.57226,276.67642,623.0777,56.72526,213.81708,655.29321
66,0.542,-54.04719,275.24619,683.69476,12.80257,276.56641,623.1062,56.45959,213.84889,655.40588
67,0.55,-54.04719,275.24619,683.69476,12.21096,276.78085,622.94965,56.45959,213.84889,655.40588
68,0.558,-54.04719,275.24619,683.69476,12.62045,276.29108,622.93353,56.45959,213.84889,655.40588
69,0.567,-54.04719,275.24619,683.69476,12.45785,276.41632,623.12976,56.72526,213.81708,655.29321
70,0.575,-54.27615,275.5466,683.5188,12.80257,276.56641,623.1062,56.45959,213.84889,655.40588
71,0.583,-53.98086,275.38797,683.54022,12.80257,276.56641,623.1062,56.45959,213.84889,655.40588
72,0.592,-53.98086,275.38797,683.54022,12.80257,276.56641,623.1062,56.72526,213.81708,655.29321
73,0.6,-53.79059,275.22617,683.38489,12.57226,276.67642,623.0777,56.72526,213.81708,655.29321
74,0.608,-53.8934,275.63327,683.38257,12.57226,276.67642,623.0777,56.72526,213.81708,655.29321
75,0.617,-54.16257,275.64798,683.42511,12.38912,277.54108,623.13312,56.72526,213.81708,655.29321
76,0.625,-54.57148,275.70544,683.49731,12.57226,276.67642,623.0777,56.45959,213.84889,655.40588
77,0.633,-53.98086,275.38797,683.54022,12.55171,277.41592,622.93701,56.72526,213.81708,655.29321
78,0.642,-54.16257,275.64798,683.42511,12.52944,276.67392,623.17371,56.72526,213.81708,655.29321
79,0.65,-54.45787,275.80682,683.40369,12.60668,277.86679,623.13489,56.72526,213.81708,655.29321
80,0.658,-54.16257,275.64798,683.42511,12.29916,276.78387,623.14514,56.72526,213.81708,655.29321
81,0.667,-53.93361,275.3475,683.60107,12.57226,276.67642,623.0777,56.45959,213.84889,655.40588
82,0.675,-53.98086,275.38797,683.54022,12.45785,276.41632,623.12976,56.45959,213.84889,655.40588
83,0.683,-53.98086,275.38797,683.54022,12.57226,276.67642,623.0777,56.72526,213.81708,655.29321
84,0.692,-54.34251,275.40479,683.67334,12.80257,276.56641,623.1062,56.45959,213.84889,655.40588
85,0.7,-53.93361,275.3475,683.60107,12.39012,276.40112,622.90497,56.72526,213.81708,655.29321
86,0.708,-54.04719,275.24619,683.69476,12.68817,276.30627,623.15826,56.45959,213.84889,655.40588
87,0.717,-53.85691,275.08438,683.53943,12.68817,276.30627,623.15826,56.45959,213.84889,655.40588
88,0.725,-54.04719,275.24619,683.69476,12.39012,276.40112,622.90497,56.45959,213.84889,655.40588
89,0.733,-54.14181,275.06964,683.55939,12.68817,276.30627,623.15826,56.45959,213.84889,655.40588
90,0.742,-54.08744,275.11554,683.66376,12.68817,276.30627,623.15826,56.72526,213.81708,655.29321
91,0.75,-54.00052,274.88489,683.60992,12.68817,276.30627,623.15826,56.45959,213.84889,655.40588
92,0.758,-54.00052,274.88489,683.60992,12.45785,276.41632,623.12976,56.45959,213.84889,655.40588
93,0.767,-54.1908,275.04669,683.76526,12.68817,276.30627,623.15826,56.72526,213.81708,655.29321
94,0.775,-54.15224,275.24301,683.51794,12.68817,276.30627,623.15826,56.72526,213.81708,655.29321
95,0.783,-54.00052,274.88489,683.60992,12.68817,276.30627,623.15826,56.45959,213.84889,655.40588
96,0.792,-54.1908,275.04669,683.76526,12.45785,276.41632,623.12976,56.72526,213.81708,655.29321
97,0.8,-54.04719,275.24619,683.69476,12.80257,276.56641,623.1062,56.72526,213.81708,655.29321
98,0.808,-54.04719,275.24619,683.69476,12.57226,276.67642,623.0777,56.72526,213.81708,655.29321
99,0.817,-54.15224,275.24301,683.51794,12.68817,276.30627,623.15826,56.33797,213.47383,655.26752
100,0.825,-54.34251,275.40479,683.67334,12.57226,276.67642,623.0777,56.72526,213.81708,655.29321
101,0.833,-54.34251,275.40479,683.67334,12.29916,276.78387,623.14514,56.72526,213.81708,655.29321
102,0.842,-54.34251,275.40479,683.67334,12.11608,277.64847,623.20056,56.45959,213.84889,655.40588
103,0.85,-54.04719,275.24619,683.69476,12.38912,277.54108,623.13312,56.45959,213.84889,655.40588
104,0.858,-54.04719,275.24619,683.69476,12.38912,277.54108,623.13312,56.45959,213.84889,655.40588
105,0.867,-54.1908,275.04669,683.76526,12.80257,276.56641,623.1062,56.45959,213.84889,655.40588
106,0.875,-54.48616,275.20532,683.74384,12.68817,276.30627,623.15826,56.72526,213.81708,655.29321
107,0.883,-54.63786,275.56363,683.65186,12.38912,277.54108,623.13312,56.45959,213.84889,655.40588
108,0.892,-54.34251,275.40479,683.67334,11.98995,276.57095,623.21631,56.45959,213.84889,655.40588
109,0.9,-54.04719,275.24619,683.69476,12.57226,276.67642,623.0777,56.45959,213.84889,655.40588
110,0.908,-54.04719,275.24619,683.69476,12.37748,276.72369,623.0968,56.72526,213.81708,655.29321
111,0.917,-54.04719,275.24619,683.69476,12.57226,276.67642,623.0777,56.72526,213.81708,655.29321
112,0.925,-54.04719,275.24619,683.69476,12.80257,276.56641,623.1062,56.45959,213.84889,655.40588
113,0.933,-54.04719,275.24619,683.69476,12.68817,276.30627,623.15826,56.45959,213.84889,655.40588
114,0.942,-53.77803,275.23141,683.65222,12.80257,276.56641,623.1062,56.45959,213.84889,655.40588
115,0.95,-53.86007,275.55005,683.62988,12.18472,276.52374,623.1972,56.45959,213.84889,655.40588
116,0.958,-54.04719,275.24619,683.69476,12.41502,276.41379,623.22577,56.45959,213.84889,655.40588
117,0.967,-54.1908,275.04669,683.76526,12.68817,276.30627,623.15826,56.45959,213.84889,655.40588
118,0.975,-54.04719,275.24619,683.69476,12.68817,276.30627,623.15826,56.45959,213.84889,655.40588
119,0.983,-54.04719,275.24619,683.69476,12.45785,276.41632,623.12976,56.45959,213.84889,655.40588
120,0.992,-54.34251,275.40479,683.67334,12.52944,276.67392,623.17371,56.45959,213.84889,655.40588
121,1,-54.34251,275.40479,683.67334,12.57226,276.67642,623.0777,56.72526,213.81708,655.29321
122,1.008,-54.63786,275.56363,683.65186,12.02791,277.64548,623.00513,56.45959,213.84889,655.40588
123,1.017,-54.63786,275.56363,683.65186,12.11608,277.64847,623.20056,56.33797,213.47383,655.26752
124,1.025,-54.45787,275.80682,683.40369,12.02791,277.64548,623.00513,56.45959,213.84889,655.40588
125,1.033,-54.57148,275.70544,683.49731,12.02791,277.64548,623.00513,56.45959,213.84889,655.40588
126,1.042,-54.45787,275.80682,683.40369,12.32143,277.52591,622.90851,56.52268,213.86978,655.11951
127,1.05,-54.45787,275.80682,683.40369,12.32143,277.52591,622.90851,56.88739,213.85938,655.22601
128,1.058,-54.45787,275.80682,683.40369,12.21096,276.78085,622.94965,56.52268,213.86978,655.11951
129,1.067,-54.26762,275.64508,683.24829,12.21096,276.78085,622.94965,56.45959,213.84889,655.40588
130,1.075,-54.40125,275.91748,683.16351,12.02791,277.64548,623.00513,56.25699,213.9016,655.23212
131,1.083,-54.21097,275.75574,683.00806,12.21096,276.78085,622.94965,56.52268,213.86978,655.11951
132,1.092,-54.40125,275.91748,683.16351,12.50455,276.66122,622.85297,56.25699,213.9016,655.23212
133,1.1,-54.38121,275.54367,683.34198,12.50455,276.66122,622.85297,56.52268,213.86978,655.11951
134,1.108,-54.41925,275.46548,683.11694,12.50455,276.66122,622.85297,56.68481,213.91211,655.05231
135,1.117,-54.12391,275.30664,683.13837,12.50455,276.66122,622.85297,56.52268,213.86978,655.11951
136,1.125,-53.67703,275.32755,683.2912,12.50455,276.66122,622.85297,56.88739,213.85938,655.22601
137,1.133,-53.67703,275.32755,683.2912,12.73486,276.55124,622.88147,56.72526,213.81708,655.29321
138,1.142,-53.67703,275.32755,683.2912,12.73486,276.55124,622.88147,56.88739,213.85938,655.22601
139,1.15,-53.67703,275.32755,683.2912,12.73486,276.55124,622.88147,56.72526,213.81708,655.29321
140,1.158,-53.39214,275.3421,683.2713,12.73486,276.55124,622.88147,56.88739,213.85938,655.22601
141,1.167,-53.39214,275.3421,683.2713,12.73486,276.55124,622.88147,56.88739,213.85938,655.22601
142,1.175,-53.39214,275.3421,683.2713,12.50455,276.66122,622.85297,56.88739,213.85938,655.22601
143,1.183,-53.39214,275.3421,683.2713,13.02017,276.8923,623.10797,56.72526,213.81708,655.29321
144,1.192,-53.39214,275.3421,683.2713,12.95247,276.87714,622.88324,56.88739,213.85938,655.22601
145,1.2,-53.20495,275.64597,683.20636,12.76928,277.74167,622.93878,56.72526,213.81708,655.29321
146,1.208,-53.20495,275.64597,683.20636,12.6194,277.43109,623.16168,56.88739,213.85938,655.22601
147,1.217,-53.39214,275.3421,683.2713,13.02017,276.8923,623.10797,56.88739,213.85938,655.22601
148,1.225,-53.39214,275.3421,683.2713,12.76928,277.74167,622.93878,56.88739,213.85938,655.22601
149,1.233,-53.39214,275.3421,683.2713,13.02017,276.8923,623.10797,56.88739,213.85938,655.22601
150,1.242,-53.39214,275.3421,683.2713,12.76928,277.74167,622.93878,56.88739,213.85938,655.22601
151,1.25,-53.39214,275.3421,683.2713,12.50455,276.66122,622.85297,56.72526,213.81708,655.29321
152,1.258,-53.79059,275.22617,683.38489,12.50455,276.66122,622.85297,56.72526,213.81708,655.29321
153,1.267,-53.67703,275.32755,683.2912,12.32143,277.52591,622.90851,56.88739,213.85938,655.22601
154,1.275,-53.67703,275.32755,683.2912,12.50455,276.66122,622.85297,56.88739,213.85938,655.22601
155,1.283,-53.97231,275.48621,683.26971,12.50455,276.66122,622.85297,56.72526,213.81708,655.29321
156,1.292,-53.67703,275.32755,683.2912,12.73486,276.55124,622.88147,56.52268,213.86978,655.11951
157,1.3,-53.97231,275.48621,683.26971,12.50455,276.66122,622.85297,56.72526,213.81708,655.29321
158,1.308,-53.67703,275.32755,683.2912,12.50455,276.66122,622.85297,56.72526,213.81708,655.29321
159,1.317,-53.62041,275.43823,683.05096,12.50455,276.66122,622.85297,56.88739,213.85938,655.22601
160,1.325,-53.79059,275.22617,683.38489,12.50455,276.66122,622.85297,56.88739,213.85938,655.22601
161,1.333,-54.19024,275.16483,683.29291,12.73486,276.55124,622.88147,56.88739,213.85938,655.22601
162,1.342,-54.21097,275.75574,683.00806,12.50455,276.66122,622.85297,56.88739,213.85938,655.22601
163,1.35,-54.23749,275.20526,683.23206,12.50455,276.66122,622.85297,56.68481,213.91211,655.05231
164,1.358,-54.24722,275.17416,683.14636,12.50455,276.66122,622.85297,56.52268,213.86978,655.11951
165,1.367,-53.62041,275.43823,683.05096,12.50455,276.66122,622.85297,56.72526,213.81708,655.29321
166,1.375,-53.77199,275.25867,682.91962,12.50455,276.66122,622.85297,56.72526,213.81708,655.29321
167,1.383,-53.77199,275.25867,682.91962,12.73486,276.55124,622.88147,56.68481,213.91211,655.05231
168,1.392,-54.06729,275.4173,682.89813,12.50455,276.66122,622.85297,56.72526,213.81708,655.29321
169,1.4,-54.36261,275.57617,682.87671,12.50455,276.66122,622.85297,56.68481,213.91211,655.05231
170,1.408,-54.06729,275.4173,682.89813,12.50455,276.66122,622.85297,56.72526,213.81708,655.29321
171,1.417,-53.91568,275.59689,683.02954,12.50455,276.66122,622.85297,56.68481,213.91211,655.05231
172,1.425,-54.06729,275.4173,682.89813,12.50455,276.66122,622.85297,56.52268,213.86978,655.11951
173,1.433,-54.06729,275.4173,682.89813,12.50455,276.66122,622.85297,56.72526,213.81708,655.29321
174,1.442,-54.36261,275.57617,682.87671,12.50455,276.66122,622.85297,56.88739,213.85938,655.22601
175,1.45,-54.06729,275.4173,682.89813,12.32143,277.52591,622.90851,56.88739,213.85938,655.22601
176,1.458,-54.36261,275.57617,682.87671,12.50455,276.66122,622.85297,56.68481,213.91211,655.05231
177,1.467,-54.06729,275.4173,682.89813,12.50455,276.66122,622.85297,56.68481,213.91211,655.05231
178,1.475,-54.36261,275.57617,682.87671,12.50455,276.66122,622.85297,56.52268,213.86978,655.11951
179,1.483,-54.06729,275.4173,682.89813,12.50455,276.66122,622.85297,56.34013,213.99777,654.99042
180,1.492,-54.06729,275.4173,682.89813,12.50455,276.66122,622.85297,56.52268,213.86978,655.11951
181,1.5,-54.36261,275.57617,682.87671,12.50455,276.66122,622.85297,56.68481,213.91211,655.05231
182,1.508,-54.36261,275.57617,682.87671,12.50455,276.66122,622.85297,56.52268,213.86978,655.11951
183,1.517,-54.36261,275.57617,682.87671,12.50455,276.66122,622.85297,56.52268,213.86978,655.11951
184,1.525,-54.06729,275.4173,682.89813,12.50455,276.66122,622.85297,56.52268,213.86978,655.11951
185,1.533,-54.51652,275.34418,682.93939,12.50455,276.66122,622.85297,56.52268,213.86978,655.11951
186,1.542,-54.36261,275.57617,682.87671,12.50455,276.66122,622.85297,56.52268,213.86978,655.11951
187,1.55,-54.36261,275.57617,682.87671,12.50455,276.66122,622.85297,56.68481,213.91211,655.05231
188,1.558,-54.36261,275.57617,682.87671,12.50455,276.66122,622.85297,56.52268,213.86978,655.11951
189,1.567,-54.36261,275.57617,682.87671,12.50455,276.66122,622.85297,56.52268,213.86978,655.11951
190,1.575,-54.36261,275.57617,682.87671,12.50455,276.66122,622.85297,56.52268,213.86978,655.11951
191,1.583,-53.91568,275.59689,683.02954,12.50455,276.66122,622.85297,56.68481,213.91211,655.05231
192,1.592,-54.36261,275.57617,682.87671,12.50455,276.66122,622.85297,56.52268,213.86978,655.11951
193,1.6,-54.36261,275.57617,682.87671,12.50455,276.66122,622.85297,56.60582,213.96597,654.87775
194,1.608,-54.36261,275.57617,682.87671,12.50455,276.66122,622.85297,56.68481,213.91211,655.05231
195,1.617,-54.48258,275.83597,682.81708,12.32143,277.52591,622.90851,56.60582,213.96597,654.87775
196,1.625,-54.36261,275.57617,682.87671,12.32143,277.52591,622.90851,56.52268,213.86978,655.11951
197,1.633,-54.33092,276.01556,682.94849,12.50455,276.66122,622.85297,56.62171,213.8912,655.33868
198,1.642,-54.33092,276.01556,682.94849,12.50455,276.66122,622.85297,56.88739,213.85938,655.22601
199,1.65,-54.06729,275.4173,682.89813,12.32143,277.52591,622.90851,56.88739,213.85938,655.22601
200,1.658,-54.06729,275.4173,682.89813,12.32143,277.52591,622.90851,56.88739,213.85938,655.22601
201,1.667,-53.62041,275.43823,683.05096,12.32143,277.52591,622.90851,56.88739,213.85938,655.22601
202,1.675,-53.6581,275.69434,682.88934,12.50455,276.66122,622.85297,56.88739,213.85938,655.22601
203,1.683,-53.36284,275.53571,682.91077,12.50455,276.66122,622.85297,56.88739,213.85938,655.22601
204,1.692,-53.77199,275.25867,682.91962,12.73486,276.55124,622.88147,56.88739,213.85938,655.22601
205,1.7,-53.5093,275.30084,682.92487,12.73486,276.55124,622.88147,56.88739,213.85938,655.22601
