Frame#,Time,L.Forearm.x,L.Forearm.y,L.Forearm.z,L.Ulna.x,L.Ulna.y,L.Ulna.z,L.Radius.x,L.Radius.y,L.Radius.z
1,0,156.6145,427.17639,1377.55029,227.19514,447.67612,1303.0719,274.28799,376.51974,1367.5498
2,0.008,156.6145,427.17639,1377.55029,227.19514,447.67612,1303.0719,274.28799,376.51974,1367.5498
3,0.017,156.6145,427.17639,1377.55029,227.19514,447.67612,1303.0719,274.28799,376.51974,1367.5498
4,0.025,156.6145,427.17639,1377.55029,227.19514,447.67612,1303.0719,274.45929,377.47235,1367.40063
5,0.033,156.6145,427.17639,1377.55029,227.19514,447.67612,1303.0719,274.45929,377.47235,1367.40063
6,0.042,156.6145,427.17639,1377.55029,226.62827,447.79541,1302.98254,274.12399,376.35617,1367.38428
7,0.05,156.6145,427.17639,1377.55029,226.62827,447.79541,1302.98254,274.29456,377.28763,1367.22888
8,0.058,156.33168,426.99915,1377.46838,226.62827,447.79541,1302.98254,274.45929,377.47235,1367.40063
9,0.067,156.6145,427.17639,1377.55029,226.62827,447.79541,1302.98254,274.29456,377.28763,1367.22888
10,0.075,156.52403,426.95035,1378.04053,226.62827,447.79541,1302.98254,274.29456,377.28763,1367.22888
11,0.083,156.52403,426.95035,1378.04053,226.62827,447.79541,1302.98254,274.29456,377.28763,1367.22888
12,0.092,156.52403,426.95035,1378.04053,226.62827,447.79541,1302.98254,274.29456,377.28763,1367.22888
13,0.1,156.1093,426.70053,1377.92932,226.62827,447.79541,1302.98254,273.84448,377.42676,1367.33154
14,0.108,156.1093,426.70053,1377.92932,227.31979,449.15506,1303.29578,273.84448,377.42676,1367.33154
15,0.117,156.1093,426.70053,1377.92932,226.62827,447.79541,1302.98254,273.84448,377.42676,1367.33154
16,0.125,156.1093,426.70053,1377.92932,227.31979,449.15506,1303.29578,273.84448,377.42676,1367.33154
17,0.133,156.1093,426.70053,1377.92932,227.31979,449.15506,1303.29578,273.86359,378.29013,1367.2854
18,0.142,156.21921,426.6311,1378.03601,227.31979,449.15506,1303.29578,273.86359,378.29013,1367.2854
19,0.15,156.1093,426.70053,1377.92932,226.62827,447.79541,1302.98254,274.02838,378.47485,1367.45715
20,0.158,155.94627,426.65845,1378.12012,226.62827,447.79541,1302.98254,273.86359,378.29013,1367.2854
21,0.167,155.44182,427.61441,1378.52405,226.62827,447.79541,1302.98254,274.02838,378.47485,1367.45715
22,0.175,155.60455,427.90137,1377.98865,226.62827,447.79541,1302.98254,274.02838,378.47485,1367.45715
23,0.183,155.35677,428.00308,1377.97815,226.62827,447.79541,1302.98254,274.02838,378.47485,1367.45715
24,0.192,155.35677,428.00308,1377.97815,226.785,447.97171,1303.34473,274.02838,378.47485,1367.45715
25,0.2,155.33946,428.17148,1378.28357,226.785,447.97171,1303.34473,273.91235,378.75467,1367.61841
26,0.208,155.37785,428.20502,1378.16589,227.28008,448.98224,1303.61719,273.91235,378.75467,1367.61841
27,0.217,155.33946,428.17148,1378.28357,227.05809,449.05048,1303.78528,273.91235,378.75467,1367.61841
28,0.225,155.33946,428.17148,1378.28357,226.53011,448.02393,1303.56006,273.80045,378.88834,1367.91846
29,0.233,155.33946,428.17148,1378.28357,227.11981,449.3924,1304.09363,273.80045,378.88834,1367.91846
30,0.242,155.31837,427.96954,1378.09583,226.53011,448.02393,1303.56006,273.80045,378.88834,1367.91846
31,0.25,155.33946,428.17148,1378.28357,226.53011,448.02393,1303.56006,273.83997,378.79205,1367.72168
32,0.258,155.33946,428.17148,1378.28357,226.53011,448.02393,1303.56006,273.72803,378.92572,1368.02173
33,0.267,155.33946,428.17148,1378.28357,227.11981,449.3924,1304.09363,273.72803,378.92572,1368.02173
34,0.275,155.31837,427.96954,1378.09583,227.11981,449.3924,1304.09363,273.80045,378.88834,1367.91846
35,0.283,155.19235,427.87549,1378.87317,226.53011,448.02393,1303.56006,273.72803,378.92572,1368.02173
36,0.292,155.0995,427.64334,1378.64282,227.11981,449.3924,1304.09363,273.72803,378.92572,1368.02173
37,0.3,155.0995,427.64334,1378.64282,227.11981,449.3924,1304.09363,273.5929,378.07904,1368.04846
38,0.308,155.0995,427.64334,1378.64282,227.11981,449.3924,1304.09363,273.5929,378.07904,1368.04846
39,0.317,155.0995,427.64334,1378.64282,226.53011,448.02393,1303.56006,273.5929,378.07904,1368.04846
40,0.325,155.0995,427.64334,1378.64282,226.63602,449.62808,1304.13452,273.5929,378.07904,1368.04846
41,0.333,155.0995,427.64334,1378.64282,227.11981,449.3924,1304.09363,273.5929,378.07904,1368.04846
42,0.342,155.0995,427.64334,1378.64282,226.01141,448.2291,1303.63293,273.5929,378.07904,1368.04846
43,0.35,155.31837,427.96954,1378.09583,226.53011,448.02393,1303.56006,273.5929,378.07904,1368.04846
44,0.358,155.82306,426.92102,1377.96521,226.63602,449.62808,1304.13452,273.44641,378.05081,1368.08142
45,0.367,155.82306,426.92102,1377.96521,226.53145,449.61334,1304.20776,273.29993,378.02267,1368.1145
46,0.375,155.82306,426.92102,1377.96521,226.12314,449.17401,1304.25769,273.21378,378.80896,1368.15857
47,0.383,155.60939,426.96423,1378.06409,225.77171,448.35995,1303.93933,273.19455,377.94528,1368.20471
48,0.392,154.75526,426.41168,1378.11267,225.77171,448.35995,1303.93933,273.19455,377.94528,1368.20471
49,0.4,154.89407,426.35291,1378.3186,226.42361,449.75183,1304.37598,273.19455,377.94528,1368.20471
50,0.408,154.45654,426.50717,1378.16589,226.22037,449.49454,1304.46631,273.19455,377.94528,1368.20471
51,0.417,154.45654,426.50717,1378.16589,226.00375,449.05606,1304.35266,273.21378,378.80896,1368.15857
52,0.425,154.175,426.45444,1378.35779,226.00375,449.05606,1304.35266,273.21378,378.80896,1368.15857
53,0.433,154.45654,426.50717,1378.16589,226.00375,449.05606,1304.35266,273.21378,378.80896,1368.15857
54,0.442,154.31381,426.39566,1378.56372,225.93422,448.86313,1304.43921,273.09686,378.83322,1368.13098
55,0.45,153.9794,426.55716,1378.29517,225.93422,448.86313,1304.43921,273.09686,378.83322,1368.13098
56,0.458,154.03247,426.34274,1378.75574,225.93422,448.86313,1304.43921,273.09686,378.83322,1368.13098
57,0.467,153.83684,426.4455,1378.69312,225.93422,448.86313,1304.43921,272.65527,378.59747,1368.08704
58,0.475,154.03247,426.34274,1378.75574,225.93422,448.86313,1304.43921,273.07764,377.96954,1368.177
59,0.483,153.83684,426.4455,1378.69312,225.93422,448.86313,1304.43921,272.65527,378.59747,1368.08704
60,0.492,154.03247,426.34274,1378.75574,225.93422,448.86313,1304.43921,272.65527,378.59747,1368.08704
61,0.5,154.69159,426.99789,1378.64453,225.93422,448.86313,1304.43921,272.65527,378.59747,1368.08704
62,0.508,154.38234,427.94382,1378.83765,225.81479,448.74524,1304.53418,272.65527,378.59747,1368.08704
63,0.517,154.38234,427.94382,1378.83765,225.81479,448.74524,1304.53418,272.65527,378.59747,1368.08704
64,0.525,154.38234,427.94382,1378.83765,225.93851,449.09888,1304.70789,272.65527,378.59747,1368.08704
65,0.533,154.38234,427.94382,1378.83765,225.93422,448.86313,1304.43921,272.65527,378.59747,1368.08704
66,0.542,154.88712,426.89511,1378.70703,225.93422,448.86313,1304.43921,273.07764,377.96954,1368.177
67,0.55,154.03247,426.34274,1378.75574,225.81908,448.98099,1304.80298,272.63611,377.73376,1368.13318
68,0.558,154.03247,426.34274,1378.75574,225.81908,448.98099,1304.80298,272.66537,377.65845,1368.22046
69,0.567,154.03247,426.34274,1378.75574,225.81908,448.98099,1304.80298,272.38861,377.60706,1368.34863
70,0.575,154.03247,426.34274,1378.75574,225.81908,448.98099,1304.80298,272.66537,377.65845,1368.22046
71,0.583,154.03247,426.34274,1378.75574,225.81908,448.98099,1304.80298,272.38861,377.60706,1368.34863
72,0.592,154.03247,426.34274,1378.75574,225.81479,448.74524,1304.53418,272.33966,377.51465,1368.4563
73,0.6,154.03247,426.34274,1378.75574,225.81479,448.74524,1304.53418,272.33966,377.51465,1368.4563
74,0.608,154.03247,426.34274,1378.75574,225.81479,448.74524,1304.53418,272.33966,377.51465,1368.4563
75,0.617,154.03247,426.34274,1378.75574,225.81479,448.74524,1304.53418,272.33966,377.51465,1368.4563
76,0.625,154.03247,426.34274,1378.75574,225.81479,448.74524,1304.53418,272.31766,376.93265,1368.96082
77,0.633,154.03247,426.34274,1378.75574,225.81479,448.74524,1304.53418,272.44391,376.88214,1369.01929
78,0.642,154.03247,426.34274,1378.75574,225.81479,448.74524,1304.53418,272.31287,377.0314,1368.84595
79,0.65,154.03247,426.34274,1378.75574,225.81479,448.74524,1304.53418,272.31766,376.93265,1368.96082
80,0.658,154.03247,426.34274,1378.75574,225.81479,448.74524,1304.53418,272.31287,377.0314,1368.84595
81,0.667,154.03247,426.34274,1378.75574,225.81479,448.74524,1304.53418,272.31766,376.93265,1368.96082
82,0.675,154.03247,426.34274,1378.75574,225.81479,448.74524,1304.53418,272.31766,376.93265,1368.96082
83,0.683,153.17935,425.78894,1378.8042,225.81479,448.74524,1304.53418,272.42554,376.01849,1369.06543
84,0.692,154.32581,426.3013,1379.40698,225.81479,448.74524,1304.53418,272.42554,376.01849,1369.06543
85,0.7,154.32581,426.3013,1379.40698,225.81479,448.74524,1304.53418,272.29926,376.06903,1369.00696
86,0.708,154.32581,426.3013,1379.40698,225.91785,448.6666,1304.5957,272.29926,376.06903,1369.00696
87,0.717,154.32581,426.3013,1379.40698,225.91785,448.6666,1304.5957,272.29926,376.06903,1369.00696
88,0.725,154.32581,426.3013,1379.40698,225.81479,448.74524,1304.53418,272.42554,376.01849,1369.06543
89,0.733,154.32581,426.3013,1379.40698,225.91785,448.6666,1304.5957,272.29926,376.06903,1369.00696
90,0.742,154.32581,426.3013,1379.40698,225.91785,448.6666,1304.5957,272.29926,376.06903,1369.00696
91,0.75,154.32581,426.3013,1379.40698,225.91785,448.6666,1304.5957,272.42554,376.01849,1369.06543
92,0.758,154.03856,426.03754,1379.45117,226.0334,448.6427,1304.9939,272.29926,376.06903,1369.00696
93,0.767,154.32581,426.3013,1379.40698,225.9221,448.90234,1304.8645,272.42554,376.01849,1369.06543
94,0.775,152.99217,425.58981,1378.84314,226.0334,448.6427,1304.9939,272.42554,376.01849,1369.06543
95,0.783,152.99217,425.58981,1378.84314,226.0334,448.6427,1304.9939,272.42554,376.01849,1369.06543
96,0.792,152.99217,425.58981,1378.84314,225.85559,448.04565,1304.59619,272.42554,376.01849,1369.06543
97,0.8,153.84529,426.14365,1378.7948,225.32172,447.54031,1305.1665,272.46841,375.80826,1369.12732
98,0.808,153.84529,426.14365,1378.7948,225.32918,447.2244,1304.9928,272.46841,375.80826,1369.12732
99,0.817,153.84529,426.14365,1378.7948,225.46886,447.20895,1304.67444,272.29419,375.73346,1369.17505
100,0.825,153.84529,426.14365,1378.7948,225.32918,447.2244,1304.9928,272.33704,375.52316,1369.23706
101,0.833,153.84529,426.14365,1378.7948,225.86301,447.72974,1304.42261,272.08075,375.60938,1369.32043
102,0.842,153.84529,426.14365,1378.7948,225.46886,447.20895,1304.67444,272.03061,375.45132,1369.3219
103,0.85,153.84529,426.14365,1378.7948,225.46886,447.20895,1304.67444,272.03061,375.45132,1369.3219
104,0.858,153.84529,426.14365,1378.7948,225.46886,447.20895,1304.67444,271.98773,375.66159,1369.26001
105,0.867,153.84529,426.14365,1378.7948,225.46886,447.20895,1304.67444,271.59009,375.87799,1369.27258
106,0.875,153.84529,426.14365,1378.7948,225.46886,447.20895,1304.67444,271.5372,375.80093,1369.36255
107,0.883,153.84529,426.14365,1378.7948,225.19981,446.9729,1304.51685,271.27515,375.86108,1369.16882
108,0.892,153.84529,426.14365,1378.7948,225.19981,446.9729,1304.51685,271.31796,375.65088,1369.23083
109,0.9,152.99217,425.58981,1378.84314,225.09894,447.04871,1304.44702,271.57254,375.74591,1369.06604
110,0.908,152.99217,425.58981,1378.84314,225.09894,447.04871,1304.44702,270.97729,375.68243,1369.10828
111,0.917,152.99217,425.58981,1378.84314,224.99022,447.34531,1304.13733,270.97729,375.68243,1369.10828
112,0.925,152.49498,425.80728,1378.78967,224.99022,447.34531,1304.13733,270.97729,375.68243,1369.10828
113,0.933,152.79645,425.69254,1378.78064,224.78046,447.28955,1303.9436,270.96237,375.76917,1369.00745
114,0.942,152.49498,425.80728,1378.78967,224.78046,447.28955,1303.9436,270.96237,375.76917,1369.00745
115,0.95,152.22169,425.68176,1378.65881,224.72546,447.43475,1303.76306,270.98926,376.25223,1368.61792
116,0.958,152.22169,425.68176,1378.65881,224.72546,447.43475,1303.76306,270.98926,376.25223,1368.61792
117,0.967,152.22169,425.68176,1378.65881,224.72546,447.43475,1303.76306,270.98926,376.25223,1368.61792
118,0.975,152.22169,425.68176,1378.65881,224.32242,447.48184,1303.62256,270.98926,376.25223,1368.61792
119,0.983,152.22169,425.68176,1378.65881,224.32242,447.48184,1303.62256,270.66592,375.91516,1368.48401
120,0.992,151.95203,425.7645,1378.71509,223.86295,447.69965,1303.81921,270.98926,376.25223,1368.61792
121,1,151.95203,425.7645,1378.71509,223.86295,447.69965,1303.81921,270.98926,376.25223,1368.61792
122,1.008,151.95203,425.7645,1378.71509,223.86295,447.69965,1303.81921,270.98926,376.25223,1368.61792
123,1.017,151.95203,425.7645,1378.71509,223.86295,447.69965,1303.81921,270.98926,376.25223,1368.61792
124,1.025,151.95203,425.7645,1378.71509,223.86295,447.69965,1303.81921,270.98926,376.25223,1368.61792
125,1.033,151.95203,425.7645,1378.71509,223.86295,447.69965,1303.81921,271.00793,377.11606,1368.57178
126,1.042,151.95203,425.7645,1378.71509,223.86295,447.69965,1303.81921,270.98926,376.25223,1368.61792
127,1.05,151.95203,425.7645,1378.71509,223.86295,447.69965,1303.81921,271.00793,377.11606,1368.57178
128,1.058,151.95203,425.7645,1378.71509,223.86295,447.69965,1303.81921,271.00793,377.11606,1368.57178
129,1.067,151.95203,425.7645,1378.71509,223.86295,447.69965,1303.81921,270.99301,377.20279,1368.47083
130,1.075,151.95203,425.7645,1378.71509,223.86295,447.69965,1303.81921,270.99301,377.20279,1368.47083
131,1.083,151.95203,425.7645,1378.71509,223.86295,447.69965,1303.81921,270.97437,376.33902,1368.51697
132,1.092,151.95203,425.7645,1378.71509,223.86295,447.69965,1303.81921,270.67419,375.87274,1368.15747
133,1.1,151.95203,425.7645,1378.71509,224.09286,447.99768,1303.53931,270.34259,375.75949,1368.22827
134,1.108,151.95203,425.7645,1378.71509,223.6938,447.82278,1303.15796,270.67419,375.87274,1368.15747
135,1.117,151.95203,425.7645,1378.71509,223.6938,447.82278,1303.15796,270.02762,375.74265,1368.12463
136,1.125,151.95203,425.7645,1378.71509,223.6938,447.82278,1303.15796,270.03583,375.51929,1367.92004
137,1.133,151.95203,425.7645,1378.71509,223.66281,447.68207,1302.83325,269.66409,375.53558,1367.84045
138,1.142,151.95203,425.7645,1378.71509,223.6938,447.82278,1303.15796,269.75714,375.48331,1367.90088
139,1.15,151.95203,425.7645,1378.71509,223.48915,447.34323,1303.3335,269.66409,375.53558,1367.84045
140,1.158,151.95203,425.7645,1378.71509,223.06772,447.05823,1303.16528,269.599,375.45621,1367.93286
141,1.167,151.95203,425.7645,1378.71509,223.39667,447.9895,1303.85229,269.599,375.45621,1367.93286
142,1.175,151.95203,425.7645,1378.71509,223.66788,448.29984,1303.77112,269.599,375.45621,1367.93286
143,1.183,151.95203,425.7645,1378.71509,223.60913,446.8277,1302.98999,269.599,375.45621,1367.93286
144,1.192,151.71925,425.87311,1378.67383,223.78262,447.16647,1302.48987,269.57205,374.97339,1368.32227
145,1.2,151.71925,425.87311,1378.67383,223.73218,448.56543,1303.37659,269.57205,374.97339,1368.32227
146,1.208,151.71925,425.87311,1378.67383,223.66788,448.29984,1303.77112,269.57205,374.97339,1368.32227
147,1.217,151.71925,425.87311,1378.67383,223.73218,448.56543,1303.37659,269.57205,374.97339,1368.32227
148,1.225,151.65726,425.9859,1378.48328,223.06772,447.05823,1303.16528,269.89548,375.30997,1368.45605
149,1.233,151.71925,425.87311,1378.67383,223.66788,448.29984,1303.77112,269.46033,375.10651,1368.62219
150,1.242,151.65726,425.9859,1378.48328,223.69925,448.39404,1304.02954,269.599,375.45621,1367.93286
151,1.25,151.65726,425.9859,1378.48328,223.06772,447.05823,1303.16528,269.599,375.45621,1367.93286
152,1.258,151.65726,425.9859,1378.48328,223.06772,447.05823,1303.16528,269.599,375.45621,1367.93286
153,1.267,151.65726,425.9859,1378.48328,223.73218,448.56543,1303.37659,269.599,375.45621,1367.93286
154,1.275,151.65726,425.9859,1378.48328,223.24136,447.39706,1302.66504,269.599,375.45621,1367.93286
155,1.283,151.65726,425.9859,1378.48328,223.73218,448.56543,1303.37659,269.66409,375.53558,1367.84045
156,1.292,151.44832,425.95087,1378.31458,223.24136,447.39706,1302.66504,269.66409,375.53558,1367.84045
157,1.3,151.22838,426.21976,1378.27942,223.73218,448.56543,1303.37659,269.66409,375.53558,1367.84045
158,1.308,151.22838,426.21976,1378.27942,223.73218,448.56543,1303.37659,269.66409,375.53558,1367.84045
159,1.317,151.03168,426.20914,1377.59473,223.08769,447.23184,1302.7251,269.66409,375.53558,1367.84045
160,1.325,151.03168,426.20914,1377.59473,223.08769,447.23184,1302.7251,269.66409,375.53558,1367.84045
161,1.333,151.03168,426.20914,1377.59473,222.74934,447.07367,1302.57678,269.66409,375.53558,1367.84045
162,1.342,150.78479,426.03568,1377.54565,222.74934,447.07367,1302.57678,269.66409,375.53558,1367.84045
163,1.35,150.78479,426.03568,1377.54565,222.01512,447.17514,1302.70593,269.66409,375.53558,1367.84045
164,1.358,150.78479,426.03568,1377.54565,222.01512,447.17514,1302.70593,269.66409,375.53558,1367.84045
165,1.367,150.5361,425.64264,1377.36084,222.01512,447.17514,1302.70593,269.66409,375.53558,1367.84045
166,1.375,150.78479,426.03568,1377.54565,221.89456,447.25256,1302.65503,269.66409,375.53558,1367.84045
167,1.383,150.78479,426.03568,1377.54565,221.89456,447.25256,1302.65503,269.138,375.73849,1367.87085
168,1.392,150.51642,425.84662,1377.58704,221.39603,446.74161,1302.72705,269.04874,375.49103,1367.77148
169,1.4,150.51642,425.84662,1377.58704,221.89456,447.25256,1302.65503,269.138,375.73849,1367.87085
170,1.408,150.51642,425.84662,1377.58704,221.89456,447.25256,1302.65503,269.138,375.73849,1367.87085
171,1.417,150.51642,425.84662,1377.58704,221.89456,447.25256,1302.65503,269.17685,377.46704,1367.77893
172,1.425,150.28766,425.90463,1377.66418,221.89456,447.25256,1302.65503,269.17685,377.46704,1367.77893
173,1.433,150.26593,425.86716,1377.77576,221.89456,447.25256,1302.65503,269.08774,378.22897,1367.55054
174,1.442,150.26593,425.86716,1377.77576,221.89456,447.25256,1302.65503,269.08774,378.22897,1367.55054
175,1.45,150.26593,425.86716,1377.77576,221.89456,447.25256,1302.65503,269.08774,378.22897,1367.55054
176,1.458,150.26593,425.86716,1377.77576,221.39603,446.74161,1302.72705,269.08774,378.22897,1367.55054
177,1.467,150.26593,425.86716,1377.77576,221.89456,447.25256,1302.65503,269.08774,378.22897,1367.55054
178,1.475,150.26593,425.86716,1377.77576,221.39603,446.74161,1302.72705,269.08774,378.22897,1367.55054
179,1.483,150.28766,425.90463,1377.66418,221.89456,447.25256,1302.65503,269.08774,378.22897,1367.55054
180,1.492,150.28766,425.90463,1377.66418,221.89456,447.25256,1302.65503,269.08774,378.22897,1367.55054
181,1.5,150.28766,425.90463,1377.66418,221.39603,446.74161,1302.72705,269.08774,378.22897,1367.55054
182,1.508,150.28766,425.90463,1377.66418,221.39603,446.74161,1302.72705,269.08774,378.22897,1367.55054
183,1.517,150.05896,425.80261,1377.42761,221.89456,447.25256,1302.65503,268.92276,378.04379,1367.37878
184,1.525,150.5361,425.64264,1377.36084,221.39603,446.74161,1302.72705,268.92276,378.04379,1367.37878
185,1.533,150.05896,425.80261,1377.42761,221.39603,446.74161,1302.72705,268.88602,376.05377,1367.33301
186,1.542,150.05896,425.80261,1377.42761,221.39603,446.74161,1302.72705,268.88602,376.05377,1367.33301
187,1.55,150.05896,425.80261,1377.42761,221.32625,446.54895,1302.81348,268.97305,375.55344,1367.69922
188,1.558,150.05896,425.80261,1377.42761,221.32625,446.54895,1302.81348,268.97305,375.55344,1367.69922
189,1.567,150.05896,425.80261,1377.42761,221.32625,446.54895,1302.81348,268.97305,375.55344,1367.69922
190,1.575,150.05896,425.80261,1377.42761,221.32625,446.54895,1302.81348,268.97305,375.55344,1367.69922
191,1.583,150.05896,425.80261,1377.42761,221.32625,446.54895,1302.81348,268.97305,375.55344,1367.69922
192,1.592,150.05896,425.80261,1377.42761,221.32625,446.54895,1302.81348,268.97305,375.55344,1367.69922
193,1.6,149.98094,425.87204,1377.33386,221.32625,446.54895,1302.81348,268.97305,375.55344,1367.69922
194,1.608,149.68591,425.91583,1376.6676,221.32625,446.54895,1302.81348,268.97305,375.55344,1367.69922
195,1.617,149.54094,426.00452,1376.59094,221.32625,446.54895,1302.81348,268.85684,375.57037,1367.67993
196,1.625,149.83601,425.96075,1377.25732,221.32625,446.54895,1302.81348,268.97305,375.55344,1367.69922
