Frame#,Time,R.Forearm.x,R.Forearm.y,R.Forearm.z,R.Ulna.x,R.Ulna.y,R.Ulna.z,R.Radius.x,R.Radius.y,R.Radius.z
1,0,650.41296,-4.14899,1401.56396,735.14532,-50.72492,1394.04761,756.30261,35.61069,1403.74976
2,0.008,650.35339,-4.35487,1401.14319,735.14532,-50.72492,1394.04761,756.08478,35.55465,1403.81934
3,0.017,650.28186,-4.11784,1401.46802,735.27985,-50.52668,1393.86316,756.38141,35.23479,1403.8385
4,0.025,650.28186,-4.11784,1401.46802,735.45624,-50.32105,1393.75366,756.26001,35.76909,1403.54346
5,0.033,649.95502,-3.54814,1401.48657,734.88538,-50.48404,1393.67126,756.31335,35.51069,1403.599
6,0.042,649.44318,-3.65152,1400.74292,734.78503,-50.23569,1393.43054,756.31335,35.51069,1403.599
7,0.05,649.44318,-3.65152,1400.74292,734.7345,-49.887,1393.53796,756.31335,35.51069,1403.599
8,0.058,649.22046,-3.52785,1400.3136,734.7345,-49.887,1393.53796,756.31335,35.51069,1403.599
9,0.067,649.22046,-3.52785,1400.3136,734.38733,-49.50584,1393.40417,756.0907,35.38666,1403.69861
10,0.075,648.92053,-3.49145,1400.36523,734.28455,-49.33749,1393.27954,755.46112,36.95948,1403.71765
11,0.083,648.92053,-3.49145,1400.36523,734.36145,-48.91071,1393.33459,755.46112,36.95948,1403.71765
12,0.092,648.32977,-3.3502,1400.55017,734.15436,-48.88291,1393.42017,755.27167,37.17923,1403.52319
13,0.1,648.03168,-2.63335,1400.3949,734.06189,-48.99147,1393.55603,754.43585,37.48471,1403.78955
14,0.108,648.25189,-1.36133,1399.8833,733.76404,-48.92925,1393.76392,754.43585,37.48471,1403.78955
15,0.117,647.69,-1.45634,1399.75989,733.76404,-48.92925,1393.76392,754.21228,37.65587,1403.63574
16,0.125,647.69,-1.45634,1399.75989,733.76404,-48.92925,1393.76392,754.21228,37.65587,1403.63574
17,0.133,647.69,-1.45634,1399.75989,733.25476,-49.00788,1394.02686,754.21228,37.65587,1403.63574
18,0.142,647.69,-1.45634,1399.75989,733.34174,-48.83131,1394.34229,754.21228,37.65587,1403.63574
19,0.15,647.75195,-1.45335,1399.94287,733.34174,-48.83131,1394.34229,754.21228,37.65587,1403.63574
20,0.158,647.66113,-1.39619,1399.82788,733.36279,-48.71787,1394.48792,754.21228,37.65587,1403.63574
21,0.167,647.66113,-1.39619,1399.82788,733.51764,-48.8821,1394.73145,754.49481,37.27513,1403.97119
22,0.175,647.4837,-1.5056,1399.91919,733.43945,-48.85276,1394.90723,754.59833,37.16614,1403.98694
23,0.183,648.04559,-1.4106,1400.0426,733.79529,-48.60317,1394.90894,754.66608,36.06968,1404.34045
24,0.192,648.46667,-1.75624,1399.17688,733.31219,-48.78846,1395.02258,754.61542,35.8345,1404.54102
25,0.2,648.4057,-2.79159,1400.72302,733.62433,-48.67234,1395.11914,754.61542,35.8345,1404.54102
26,0.208,649.00769,-3.32464,1401.15356,733.89874,-49.0146,1395.19897,754.61542,35.8345,1404.54102
27,0.217,649.02246,-3.26977,1401.4729,733.89874,-49.0146,1395.19897,754.61542,35.8345,1404.54102
28,0.225,649.02246,-3.26977,1401.4729,734.02771,-48.69434,1395.33643,754.69305,35.62401,1404.72498
29,0.233,649.09161,-2.47243,1401.59753,733.77289,-48.56142,1395.2356,754.59741,36.41901,1405.01941
30,0.242,649.09161,-2.47243,1401.59753,734.05267,-48.0309,1395.20691,754.69305,35.62401,1404.72498
31,0.25,649.09161,-2.47243,1401.59753,734.20172,-47.71959,1395.27563,754.69305,35.62401,1404.72498
32,0.258,648.75793,-1.91418,1401.89539,734.46881,-47.66222,1395.22778,754.69305,35.62401,1404.72498
33,0.267,648.58179,-0.99427,1401.81555,734.37354,-47.59206,1395.34351,755.45575,35.7366,1404.93384
34,0.275,648.27203,-0.15793,1401.50928,734.20172,-47.71959,1395.27563,755.45575,35.7366,1404.93384
35,0.283,648.27203,-0.15793,1401.50928,734.1485,-47.90059,1395.04358,755.45575,35.7366,1404.93384
36,0.292,648.07446,-0.00425,1401.69812,734.1485,-47.90059,1395.04358,754.69305,35.62401,1404.72498
37,0.3,647.75409,0.63141,1402.14453,733.99579,-47.38297,1395.02637,754.53455,35.72913,1405.09875
38,0.308,647.75409,0.63141,1402.14453,733.8028,-47.50593,1394.90833,754.65417,36.78534,1404.39783
39,0.317,647.25037,0.84127,1402.23877,732.71973,-47.22721,1394.5426,754.65417,36.78534,1404.39783
40,0.325,647.25037,0.84127,1402.23877,732.71973,-47.22721,1394.5426,754.7049,37.02022,1404.19727
41,0.333,647.25037,0.84127,1402.23877,732.61456,-47.01974,1394.70508,754.45764,37.05032,1404.81348
42,0.342,646.63977,1.03923,1401.86707,732.43634,-47.15125,1394.79504,754.01727,38.93531,1404.19519
43,0.35,646.49902,1.13545,1401.43835,731.81738,-47.05084,1395.06702,753.77771,39.09434,1404.05042
44,0.358,646.12231,1.1007,1401.70618,731.21082,-46.62456,1395.23425,753.43695,39.238,1403.91602
45,0.367,646.12231,1.1007,1401.70618,731.20618,-46.06053,1395.17944,752.83063,40.42973,1403.93982
46,0.375,646.12231,1.1007,1401.70618,730.75366,-46.18367,1395.44714,752.56464,40.3611,1403.99084
47,0.383,645.77802,0.64171,1401.87463,730.56757,-46.46773,1395.63538,752.56464,40.3611,1403.99084
48,0.392,645.84589,1.02516,1401.59399,730.78424,-46.51969,1395.7738,752.50873,40.4242,1404.44678
49,0.4,645.58521,0.22156,1401.62451,731.08386,-46.75206,1396.16699,752.26392,40.18347,1404.64697
50,0.408,646.10724,0.25907,1401.1853,730.78571,-46.69015,1396.37488,752.26392,40.18347,1404.64697
51,0.417,646.10724,0.25907,1401.1853,730.72711,-46.66816,1396.50684,752.26392,40.18347,1404.64697
52,0.425,646.10724,0.25907,1401.1853,730.94568,-46.49087,1396.5575,752.26392,40.18347,1404.64697
53,0.433,646.36761,0.37906,1401.59143,731.20758,-46.38456,1396.63733,752.22467,39.23456,1404.79016
54,0.442,646.36761,0.37906,1401.59143,731.14929,-46.14029,1396.80334,752.75311,39.07398,1404.94434
55,0.45,645.8609,-0.32932,1401.9165,731.65063,-46.86267,1397.06714,753.06616,38.9012,1405.10339
56,0.458,646.47253,0.39954,1402.56287,732.26404,-46.44165,1397.19861,752.78943,39.34272,1406.01404
57,0.467,647.12634,0.89399,1402.19824,733.09344,-46.91581,1397.63611,752.78943,39.34272,1406.01404
58,0.475,646.62756,0.84543,1402.77075,733.26129,-47.09119,1398.18579,753.82922,39.39602,1407.5
59,0.483,646.7749,0.77723,1402.896,733.38849,-47.1554,1398.07031,754.10754,38.56701,1407.54724
60,0.492,647.284,0.65208,1403.21252,734.05328,-47.90187,1398.43445,754.10754,38.56701,1407.54724
61,0.5,647.77887,0.8993,1403.74036,734.52942,-47.48896,1398.69812,754.10754,38.56701,1407.54724
62,0.508,647.78131,0.67194,1404.50464,734.43427,-47.419,1398.81396,754.74109,38.4232,1407.44617
63,0.517,648.34534,0.78552,1404.62439,734.33429,-47.56799,1398.95361,755.36066,38.35012,1407.80261
64,0.525,648.68964,1.24472,1404.45605,734.52942,-47.48896,1398.69812,755.80225,37.3908,1407.57605
65,0.533,648.78064,1.47115,1404.724,734.52942,-47.48896,1398.69812,755.80225,37.3908,1407.57605
66,0.542,648.78064,1.47115,1404.724,734.66156,-47.36433,1398.39917,755.80225,37.3908,1407.57605
67,0.55,648.71283,1.8995,1404.28455,734.66156,-47.36433,1398.39917,756.25385,37.56384,1408.35156
68,0.558,648.69055,1.56398,1404.47424,734.95679,-47.19295,1398.19678,756.25385,37.56384,1408.35156
69,0.567,648.69055,1.56398,1404.47424,735.08881,-47.06849,1397.89771,756.04724,37.75933,1408.17712
70,0.575,648.69055,1.56398,1404.47424,735.08966,-46.98089,1398.0144,756.25385,37.56384,1408.35156
71,0.583,648.71283,1.8995,1404.28455,734.90759,-47.21106,1397.75061,756.25385,37.56384,1408.35156
72,0.592,648.62946,1.78337,1404.41443,735.08881,-47.06849,1397.89771,756.25385,37.56384,1408.35156
73,0.6,648.60718,1.44784,1404.60413,735.11456,-47.23881,1397.66504,755.36066,38.35012,1407.80261
74,0.608,648.71283,1.8995,1404.28455,735.43347,-46.43864,1397.81311,755.36066,38.35012,1407.80261
75,0.617,648.71283,1.8995,1404.28455,735.22974,-46.43225,1397.86963,755.80225,37.3908,1407.57605
76,0.625,648.71283,1.8995,1404.28455,735.22974,-46.43225,1397.86963,755.80225,37.3908,1407.57605
77,0.633,648.9035,1.96869,1403.88965,735.43347,-46.43864,1397.81311,755.89453,36.86655,1406.98254
78,0.642,649.69568,2.13467,1403.70313,735.23059,-46.34464,1397.98633,755.84454,38.44873,1406.92712
79,0.65,649.89349,2.16891,1403.73401,735.43347,-46.43864,1397.81311,757.38068,40.8594,1406.98071
80,0.658,650.01007,2.27423,1403.63257,736.41937,-45.70775,1398.02234,757.38068,40.8594,1406.98071
81,0.667,650.21344,2.30996,1403.66382,736.58282,-45.60148,1398.12268,757.2536,40.78251,1406.39001
82,0.675,650.55377,2.29344,1403.55334,736.99567,-45.57852,1398.0564,757.85754,40.88372,1406.34558
83,0.683,650.73273,1.73196,1403.75598,737.25012,-45.33537,1398.32117,758.08118,40.87091,1406.42761
84,0.692,651.27484,1.88524,1403.82776,737.48053,-45.12248,1398.31177,758.96973,40.76084,1406.18433
85,0.7,651.38098,1.5477,1403.60974,738.08392,-45.28728,1398.48193,759.22974,40.87554,1406.67383
86,0.708,651.67297,1.53307,1403.51111,738.45496,-45.094,1398.87231,759.51569,41.00558,1407.19019
87,0.717,652.61603,2.58085,1404.26965,738.77551,-44.60277,1398.76758,758.82739,44.88065,1407.16357
88,0.725,653.57697,2.30197,1403.91504,738.77551,-44.60277,1398.76758,760.17517,40.67907,1406.58813
89,0.733,653.99811,1.70778,1403.53052,739.95953,-44.17397,1399.2644,760.84082,40.60094,1406.56458
90,0.742,654.12231,2.59453,1403.72864,740.54382,-43.97154,1399.33594,761.08533,40.96945,1407.16614
91,0.75,655.01526,3.38259,1403.70886,740.84003,-43.71249,1399.25024,761.13763,41.16956,1406.99512
92,0.758,655.39966,3.46429,1403.72937,741.62787,-43.93962,1398.80164,761.55853,41.77079,1407.53589
93,0.767,655.61353,3.47704,1403.78003,741.88702,-43.58182,1398.50549,762.03516,42.02204,1407.87268
94,0.775,655.92505,3.60596,1403.92651,741.72986,-43.59557,1398.1499,762.79645,42.1393,1408.08179
95,0.783,655.92505,3.60596,1403.92651,742.06378,-43.31977,1397.77051,762.79645,42.1393,1408.08179
96,0.792,655.92505,3.60596,1403.92651,741.84637,-43.45346,1397.26855,763.05774,42.10868,1408.11621
97,0.8,655.97699,3.98382,1404.08801,741.92029,-43.32996,1397.13281,763.32544,41.97843,1408.23694
98,0.808,655.99146,3.44824,1403.73608,741.58972,-43.53342,1396.91003,763.05774,42.10868,1408.11621
99,0.817,655.99146,3.44824,1403.73608,741.73096,-42.89595,1396.88196,763.05774,42.10868,1408.11621
100,0.825,655.66541,3.85482,1403.94153,741.52905,-42.58011,1396.53381,763.05774,42.10868,1408.11621
101,0.833,655.49268,4.09039,1403.70605,741.84412,-42.18951,1396.40613,762.52881,42.555,1406.32788
102,0.842,655.77942,4.79865,1403.26746,741.39703,-41.55735,1396.03101,762.19672,42.25256,1405.74707
103,0.85,655.66876,4.4403,1402.78528,741.44531,-41.36673,1396.00537,762.70685,42.73835,1405.11548
104,0.858,655.59717,4.57449,1402.60376,741.30469,-40.72454,1395.49475,762.70441,42.94717,1404.93579
105,0.867,655.59198,6.08066,1401.98145,741.48157,-40.51881,1395.38513,762.84576,43.03353,1404.13831
106,0.875,655.66229,4.27492,1402.24414,741.61395,-40.39406,1395.08533,762.71002,43.71978,1403.87146
107,0.883,655.28882,4.82587,1402.12012,741.42029,-40.51695,1394.96667,762.71271,43.94966,1403.67358
108,0.892,655.42029,4.90089,1401.77136,741.80896,-40.26146,1394.96924,762.2619,45.4572,1403.8656
109,0.9,655.44965,5.07159,1401.57751,741.80896,-40.26146,1394.96924,760.97626,45.18764,1403.73926
110,0.908,655.35858,4.84477,1401.3092,741.6153,-40.38436,1394.85059,761.36853,45.31256,1403.58337
111,0.917,655.26782,4.99012,1401.10901,742.02789,-40.08425,1395.01965,761.21503,44.7445,1403.28125
112,0.925,655.19867,4.71717,1400.59729,742.02789,-40.08425,1395.01965,761.21503,44.7445,1403.28125
113,0.933,655.19867,4.71717,1400.59729,742.1059,-39.95909,1395.08655,761.21503,44.7445,1403.28125
114,0.942,655.39795,4.50137,1400.8573,742.1059,-39.95909,1395.08655,761.21503,44.7445,1403.28125
115,0.95,655.19867,4.71717,1400.59729,741.97351,-40.08392,1395.38647,761.21503,44.7445,1403.28125
116,0.958,655.39795,4.50137,1400.8573,741.97351,-40.08392,1395.38647,761.0293,44.60611,1403.39478
117,0.967,655.45935,4.18532,1401.25159,741.8175,-40.17968,1395.49536,760.97626,45.18764,1403.73926
118,0.975,655.67542,3.56564,1401.29785,741.80713,-40.30512,1395.98889,760.97626,45.18764,1403.73926
119,0.983,655.44196,3.51924,1401.69263,741.80713,-40.30512,1395.98889,761.16382,45.07727,1403.88477
120,0.992,655.79242,3.78606,1401.99268,741.62604,-40.50792,1396.08252,761.14691,44.25586,1403.91101
121,1,656.00964,5.28794,1401.49609,741.62604,-40.50792,1396.08252,761.35364,44.06091,1404.08508
122,1.008,656.00964,5.28794,1401.49609,741.99884,-40.87591,1396.69238,761.35364,44.06091,1404.08508
123,1.017,655.75183,5.25483,1401.46069,741.6662,-41.30549,1396.68103,761.09967,44.2054,1405.38416
124,1.025,655.80762,1.75707,1401.81641,741.64032,-42.19321,1396.89746,761.32013,43.26935,1405.62842
125,1.033,655.1344,3.28871,1402.31787,741.73157,-42.42163,1396.94092,761.28345,42.31964,1405.77173
126,1.042,654.85034,3.43622,1402.92981,741.552,-42.62268,1396.68616,761.31653,42.2174,1405.77722
127,1.05,655.03552,3.04686,1402.98145,741.58972,-43.53342,1396.91003,761.03522,41.16929,1406.08093
128,1.058,655.01526,3.38259,1403.70886,741.48938,-43.68243,1397.04968,761.10364,40.89384,1406.32031
129,1.067,654.76489,3.22107,1403.52209,741.271,-43.88835,1397.08887,760.89325,40.80096,1406.39355
130,1.075,654.53931,3.14045,1403.54907,740.9375,-43.76083,1397.2428,760.74786,41.12376,1407.15735
131,1.083,653.52325,2.70864,1404.22656,740.59424,-43.83985,1397.21753,760.99255,41.49117,1407.75854
132,1.092,653.52325,2.70864,1404.22656,740.11102,-44.12202,1397.46411,760.21863,41.72857,1408.24658
133,1.1,653.23193,2.81412,1404.35999,739.49982,-44.48814,1397.95251,760.21863,41.72857,1408.24658
134,1.108,653.23193,2.81412,1404.35999,738.66022,-44.52463,1398.15588,759.38293,42.03235,1408.51172
135,1.117,653.02979,2.24631,1404.92932,738.59607,-44.57324,1398.25916,759.38293,42.03235,1408.51172
136,1.125,652.76453,1.74986,1404.88855,738.52008,-44.82348,1398.31714,759.38293,42.03235,1408.51172
137,1.133,652.35815,1.1199,1405.03101,738.45197,-45.44765,1398.64636,759.38293,42.03235,1408.51172
138,1.142,652.35815,1.1199,1405.03101,738.45197,-45.44765,1398.64636,759.38293,42.03235,1408.51172
139,1.15,652.88623,0.19953,1405.29907,738.47498,-45.73574,1399.1886,759.38293,42.03235,1408.51172
140,1.158,652.83203,-0.1149,1405.65735,738.07855,-46.52168,1399.85718,759.41425,40.89006,1408.90466
141,1.167,652.83203,-0.1149,1405.65735,738.17828,-46.77106,1400.0979,759.41425,40.89006,1408.90466
142,1.175,653.0976,-0.51476,1405.71106,738.29834,-47.02223,1400.42505,759.33856,40.71692,1409.05127
143,1.183,653.15912,-0.81336,1406.12561,738.60126,-46.95966,1400.4375,759.56696,40.52052,1409.22803
144,1.192,653.0567,-0.99491,1406.40869,738.60126,-46.95966,1400.4375,759.56696,40.52052,1409.22803
145,1.2,653.38409,-0.82567,1406.60266,739.21356,-47.51053,1401.13696,759.56696,40.52052,1409.22803
146,1.208,653.52795,-0.47886,1406.71655,739.31042,-48.0188,1401.21155,759.57391,40.61533,1409.65698
147,1.217,653.52795,-0.47886,1406.71655,739.48364,-48.02857,1401.46667,759.92548,37.0004,1410.15942
148,1.225,654.14197,-1.63114,1407.62927,739.5899,-48.01811,1401.65576,759.72845,36.86596,1410.26843
149,1.233,654.14197,-1.63114,1407.62927,739.41187,-48.14938,1401.74548,759.80859,36.62116,1410.48242
150,1.242,653.89929,-1.93042,1407.77588,739.17291,-48.29813,1401.81763,759.67639,36.69773,1410.92395
151,1.25,653.89929,-1.93042,1407.77588,739.17291,-48.29813,1401.81763,759.67639,36.69773,1410.92395
152,1.258,654.22491,-1.2828,1407.62891,739.17291,-48.29813,1401.81763,759.6239,36.49755,1411.09546
153,1.267,653.80157,-2.12545,1407.91528,738.86255,-48.53139,1401.70166,759.6239,36.49755,1411.09546
154,1.275,653.44452,-3.83,1408.0769,738.86255,-48.53139,1401.70166,759.45856,36.23103,1411.19873
155,1.283,653.2439,-4.56374,1407.89355,739.0174,-48.87107,1401.83167,759.45856,36.23103,1411.19873
156,1.292,653.71759,-6.44677,1408.09814,738.25726,-48.94621,1401.55286,759.43774,36.35872,1411.20959
157,1.3,653.04669,-4.41038,1408.08179,738.00812,-49.18634,1401.35547,759.05988,37.01836,1411.9303
158,1.308,652.30975,-4.88049,1408.24585,737.97003,-49.16063,1401.21167,758.91528,35.31209,1411.97192
159,1.317,652.30975,-4.88049,1408.24585,737.77814,-49.35282,1401.22888,758.91528,35.31209,1411.97192
160,1.325,652.14655,-5.0285,1408.37268,737.77814,-49.35282,1401.22888,758.91528,35.31209,1411.97192
161,1.333,651.75354,-5.04059,1408.3689,737.77814,-49.35282,1401.22888,758.73932,34.75129,1411.62
162,1.342,651.75354,-5.04059,1408.3689,737.65375,-49.51236,1401.34094,758.5827,34.58436,1411.75928
163,1.35,651.22577,-4.11954,1408.10071,737.65375,-49.51236,1401.34094,758.46771,35.21228,1411.72461
164,1.358,651.138,-3.81387,1407.98035,737.31268,-49.24529,1401.31311,758.81012,34.85416,1411.12415
165,1.367,651.138,-3.81387,1407.98035,736.97144,-48.97848,1401.2854,758.98083,34.95196,1410.99902
166,1.375,651.138,-3.81387,1407.98035,736.97144,-48.97848,1401.2854,759.11761,34.08961,1410.89856
167,1.383,651.138,-3.81387,1407.98035,736.97144,-48.97848,1401.2854,759.15527,35.04034,1410.75366
168,1.392,651.138,-3.81387,1407.98035,737.04907,-48.55141,1401.34082,759.15527,35.04034,1410.75366
169,1.4,651.138,-3.81387,1407.98035,737.04907,-48.55141,1401.34082,759.15527,35.04034,1410.75366
170,1.408,651.138,-3.81387,1407.98035,737.04907,-48.55141,1401.34082,759.05536,35.25632,1410.56311
171,1.417,650.92786,-3.40274,1407.94592,736.89374,-48.51424,1401.42688,759.05536,35.25632,1410.56311
172,1.425,651.11273,-1.99519,1407.51904,736.89374,-48.51424,1401.42688,759.05536,35.25632,1410.56311
173,1.433,650.92786,-3.40274,1407.94592,736.80164,-48.62245,1401.5625,759.05536,35.25632,1410.56311
174,1.442,650.92786,-3.40274,1407.94592,736.80164,-48.62245,1401.5625,759.15527,35.04034,1410.75366
175,1.45,650.92786,-3.40274,1407.94592,736.85779,-48.63337,1401.70996,759.05536,35.25632,1410.56311
176,1.458,650.92786,-3.40274,1407.94592,737.03094,-48.6432,1401.96509,759.15527,35.04034,1410.75366
177,1.467,650.92786,-3.40274,1407.94592,737.03094,-48.6432,1401.96509,759.15527,35.04034,1410.75366
178,1.475,650.92786,-3.40274,1407.94592,737.22278,-48.451,1401.94775,759.15527,35.04034,1410.75366
179,1.483,650.92786,-3.40274,1407.94592,737.22278,-48.451,1401.94775,759.15527,35.04034,1410.75366
180,1.492,650.92786,-3.40274,1407.94592,737.22278,-48.451,1401.94775,758.7771,35.70159,1411.47485
181,1.5,650.92786,-3.40274,1407.94592,737.07043,-48.53123,1402.10522,758.48566,35.7663,1411.40918
182,1.508,650.92786,-3.40274,1407.94592,737.03094,-48.6432,1401.96509,758.01141,36.23427,1411.89783
183,1.517,650.92786,-3.40274,1407.94592,737.07043,-48.53123,1402.10522,757.21796,36.1537,1412.05566
184,1.525,650.92786,-3.40274,1407.94592,737.07043,-48.53123,1402.10522,757.07129,36.15802,1412.6062
185,1.533,650.92786,-3.40274,1407.94592,736.73712,-48.40405,1402.25891,757.35602,35.76411,1412.55261
186,1.542,650.92786,-3.40274,1407.94592,737.07043,-48.53123,1402.10522,757.35602,35.76411,1412.55261
187,1.55,650.92786,-3.40274,1407.94592,737.07043,-48.53123,1402.10522,757.35602,35.76411,1412.55261
188,1.558,650.92786,-3.40274,1407.94592,737.07043,-48.53123,1402.10522,757.35602,35.76411,1412.55261
189,1.567,650.92786,-3.40274,1407.94592,736.69763,-48.51605,1402.11865,757.35602,35.76411,1412.55261
190,1.575,650.92786,-3.40274,1407.94592,736.73712,-48.40405,1402.25891,757.35602,35.76411,1412.55261
191,1.583,650.93884,-2.65012,1407.87244,736.73712,-48.40405,1402.25891,757.35602,35.76411,1412.55261
192,1.592,650.93884,-2.65012,1407.87244,736.48615,-48.46802,1402.05725,757.35602,35.76411,1412.55261
193,1.6,650.91815,-1.76269,1407.63098,736.46832,-48.49532,1401.71606,757.17975,35.2034,1412.20081
194,1.608,650.77808,-1.60616,1407.76746,736.31305,-48.45816,1401.80212,756.74908,35.32126,1412.08447
195,1.617,650.79822,-1.5644,1407.98779,736.12714,-47.96092,1401.63818,756.71387,36.56842,1412.51233
196,1.625,650.08643,-0.64526,1407.66516,735.82446,-48.02344,1401.62573,756.32996,36.49735,1412.49731
197,1.633,649.85321,-0.36763,1407.76819,736.12305,-48.08516,1401.4176,754.75555,38.26622,1410.85815
198,1.642,648.94641,-0.28895,1407.74585,735.56256,-48.12951,1401.54565,754.59509,39.5159,1409.91125
199,1.65,648.4527,-0.49096,1407.64771,734.8493,-47.69923,1401.32068,755.19,39.19122,1411.64087
200,1.658,647.87665,0.19855,1406.76001,734.76733,-47.68266,1400.96313,754.58575,39.08909,1411.68542
201,1.667,647.96198,0.43399,1406.84875,734.42029,-47.30138,1400.82983,753.63147,39.55342,1411.08582
