Frame#,Time,L.Forearm.x,L.Forearm.y,L.Forearm.z,L.Ulna.x,L.Ulna.y,L.Ulna.z,L.Radius.x,L.Radius.y,L.Radius.z
1,0,-89.61324,469.21146,999.97693,-25.55097,436.76974,933.70959,-26.81624,340.08197,997.02942
2,0.008,-89.71571,469.26675,999.82813,-25.55097,436.76974,933.70959,-26.81624,340.08197,997.02942
3,0.017,-89.71571,469.26675,999.82813,-25.55097,436.76974,933.70959,-26.43174,340.88776,997.52191
4,0.025,-89.91537,468.99515,999.90039,-25.55097,436.76974,933.70959,-26.89471,340.00131,997.13544
5,0.033,-89.91537,468.99515,999.90039,-25.55097,436.76974,933.70959,-26.89471,340.00131,997.13544
6,0.042,-89.96902,469.18909,999.83221,-25.55669,436.35672,933.68787,-26.43174,340.88776,997.52191
7,0.05,-90.02201,468.97168,999.66968,-25.87887,436.04739,933.48291,-26.43174,340.88776,997.52191
8,0.058,-90.24515,468.99612,999.55951,-25.67442,436.31729,933.32922,-26.43174,340.88776,997.52191
9,0.067,-90.37698,469.064,999.59705,-25.73234,435.99472,932.96814,-26.89471,340.00131,997.13544
10,0.075,-90.43908,469.08304,999.47992,-25.73234,435.99472,932.96814,-26.85147,339.89197,997.25568
11,0.083,-90.43908,469.08304,999.47992,-25.93678,435.72482,933.12183,-26.85147,339.89197,997.25568
12,0.092,-90.43908,469.08304,999.47992,-25.93678,435.72482,933.12183,-26.6433,340.67783,997.76312
13,0.1,-90.43908,469.08304,999.47992,-25.93678,435.72482,933.12183,-26.6433,340.67783,997.76312
14,0.108,-90.55261,469.10956,999.31635,-26.08361,435.63519,932.82983,-26.6433,340.67783,997.76312
15,0.117,-90.55261,469.10956,999.31635,-26.08361,435.63519,932.82983,-26.6433,340.67783,997.76312
16,0.125,-90.43908,469.08304,999.47992,-25.97049,435.65829,932.6084,-26.6433,340.67783,997.76312
17,0.133,-90.43908,469.08304,999.47992,-25.97049,435.65829,932.6084,-26.85147,339.89197,997.25568
18,0.142,-90.43908,469.08304,999.47992,-25.97049,435.65829,932.6084,-26.40435,340.76712,997.65436
19,0.15,-90.43908,469.08304,999.47992,-25.7074,435.9881,932.47784,-26.89471,340.00131,997.13544
20,0.158,-90.43908,469.08304,999.47992,-25.7074,435.9881,932.47784,-26.89471,340.00131,997.13544
21,0.167,-90.43908,469.08304,999.47992,-25.61924,436.01782,932.74683,-26.81624,340.08197,997.02942
22,0.175,-90.29714,469.22501,999.50116,-25.73234,435.99472,932.96814,-26.81624,340.08197,997.02942
23,0.183,-90.23502,469.20596,999.61823,-25.73234,435.99472,932.96814,-26.66408,340.3609,996.93341
24,0.192,-90.23502,469.20596,999.61823,-25.67442,436.31729,933.32922,-26.66408,340.3609,996.93341
25,0.2,-90.0869,469.08496,999.68396,-25.85359,436.46704,933.56445,-26.66408,340.3609,996.93341
26,0.208,-90.11712,469.31012,999.76648,-25.85359,436.46704,933.56445,-26.66408,340.3609,996.93341
27,0.217,-89.96902,469.18909,999.83221,-25.55097,436.76974,933.70959,-26.32601,340.99286,997.40143
28,0.225,-90.1149,469.21844,999.85498,-25.55097,436.76974,933.70959,-26.89471,340.00131,997.13544
29,0.233,-90.1149,469.21844,999.85498,-25.55097,436.76974,933.70959,-26.89471,340.00131,997.13544
30,0.242,-90.23502,469.20596,999.61823,-25.85359,436.46704,933.56445,-26.89471,340.00131,997.13544
31,0.25,-90.23502,469.20596,999.61823,-25.85359,436.46704,933.56445,-26.89471,340.00131,997.13544
32,0.258,-89.96765,469.60086,999.41541,-25.85359,436.46704,933.56445,-26.89471,340.00131,997.13544
33,0.267,-90.10915,469.47281,999.46033,-25.85359,436.46704,933.56445,-26.89471,340.00131,997.13544
34,0.275,-90.2395,469.35205,999.31482,-25.67442,436.31729,933.32922,-26.89471,340.00131,997.13544
35,0.283,-90.2395,469.35205,999.31482,-25.73234,435.99472,932.96814,-26.89471,340.00131,997.13544
36,0.292,-90.21527,469.25769,998.90906,-25.73234,435.99472,932.96814,-26.89471,340.00131,997.13544
37,0.3,-90.21527,469.25769,998.90906,-25.82047,435.965,932.69922,-26.89471,340.00131,997.13544
38,0.308,-90.21527,469.25769,998.90906,-25.7074,435.9881,932.47784,-26.89471,340.00131,997.13544
39,0.317,-90.21527,469.25769,998.90906,-25.7074,435.9881,932.47784,-26.89471,340.00131,997.13544
40,0.325,-90.21527,469.25769,998.90906,-25.94622,435.94943,932.09424,-26.89471,340.00131,997.13544
41,0.333,-90.35722,469.11569,998.88782,-25.94622,435.94943,932.09424,-26.89471,340.00131,997.13544
42,0.342,-90.35722,469.11569,998.88782,-25.94622,435.94943,932.09424,-26.89471,340.00131,997.13544
43,0.35,-90.35722,469.11569,998.88782,-25.94622,435.94943,932.09424,-27.07476,339.94476,997.22974
44,0.358,-90.41483,468.98865,999.07416,-26.21059,434.98569,932.026,-27.05177,339.84024,997.34766
45,0.367,-90.41483,468.98865,999.07416,-26.32368,434.96265,932.24744,-27.28284,339.66263,997.51093
46,0.375,-90.41483,468.98865,999.07416,-26.34349,434.70288,931.87061,-27.28284,339.66263,997.51093
47,0.383,-90.41483,468.98865,999.07416,-26.34349,434.70288,931.87061,-27.65124,339.68054,997.27142
48,0.392,-90.41483,468.98865,999.07416,-26.34349,434.70288,931.87061,-27.65124,339.68054,997.27142
49,0.4,-90.41483,468.98865,999.07416,-26.34349,434.70288,931.87061,-27.65124,339.68054,997.27142
50,0.408,-90.41483,468.98865,999.07416,-26.34349,434.70288,931.87061,-27.67423,339.78503,997.1535
51,0.417,-90.41483,468.98865,999.07416,-26.34349,434.70288,931.87061,-27.4431,339.96265,996.99023
52,0.425,-90.41483,468.98865,999.07416,-25.94743,435.31549,931.89551,-27.26303,340.01923,996.89594
53,0.433,-90.35722,469.11569,998.88782,-25.94622,435.94943,932.09424,-27.18453,340.09985,996.78992
54,0.442,-90.05589,469.21732,998.89227,-25.94622,435.94943,932.09424,-27.18453,340.09985,996.78992
55,0.45,-90.05589,469.21732,998.89227,-25.94622,435.94943,932.09424,-27.18453,340.09985,996.78992
56,0.458,-90.05589,469.21732,998.89227,-26.07903,435.6666,931.93884,-27.18453,340.09985,996.78992
57,0.467,-90.02634,469.36539,998.79663,-26.07903,435.6666,931.93884,-27.03233,340.37878,996.69397
58,0.475,-90.07163,469.32483,998.49872,-26.07903,435.6666,931.93884,-27.03233,340.37878,996.69397
59,0.483,-90.07163,469.32483,998.49872,-26.00718,435.10916,931.6474,-27.03233,340.37878,996.69397
60,0.492,-90.07686,469.45392,998.05267,-26.00718,435.10916,931.6474,-27.03233,340.37878,996.69397
61,0.5,-90.43076,469.15833,997.81903,-26.00718,435.10916,931.6474,-27.03233,340.37878,996.69397
62,0.508,-90.49296,469.17734,997.7019,-26.00718,435.10916,931.6474,-27.03233,340.37878,996.69397
63,0.517,-90.47599,469.10019,997.28375,-26.00718,435.10916,931.6474,-27.03233,340.37878,996.69397
64,0.525,-90.62428,468.82861,996.98975,-26.24614,435.07089,931.26355,-27.18453,340.09985,996.78992
65,0.533,-90.65608,468.90424,996.92743,-26.00718,435.10916,931.6474,-27.18453,340.09985,996.78992
66,0.542,-90.7504,468.89267,996.84338,-26.17427,435.19879,931.58447,-27.03233,340.37878,996.69397
67,0.55,-90.7504,468.89267,996.84338,-26.26433,434.93488,931.16229,-27.18453,340.09985,996.78992
68,0.558,-90.7504,468.89267,996.84338,-26.50339,434.89645,930.77838,-27.18453,340.09985,996.78992
69,0.567,-90.7504,468.89267,996.84338,-26.51978,434.84116,931.46387,-26.73007,340.94617,997.13757
70,0.575,-90.65608,468.90424,996.92743,-26.51978,434.84116,931.46387,-26.73007,340.94617,997.13757
71,0.583,-90.65608,468.90424,996.92743,-26.51978,434.84116,931.46387,-27.18453,340.09985,996.78992
72,0.592,-90.65608,468.90424,996.92743,-26.99089,434.26193,931.68744,-27.89681,340.26654,996.65741
73,0.6,-90.74995,468.91391,997.16309,-26.99089,434.26193,931.68744,-28.12804,340.0889,996.82074
74,0.608,-90.74995,468.91391,997.16309,-26.99089,434.26193,931.68744,-28.3867,339.95157,997.02094
75,0.617,-90.74995,468.91391,997.16309,-26.84088,434.17328,931.7525,-28.3867,339.95157,997.02094
76,0.625,-90.74995,468.91391,997.16309,-26.99089,434.26193,931.68744,-28.3867,339.95157,997.02094
77,0.633,-90.68684,468.75861,997.48694,-26.99089,434.26193,931.68744,-28.3867,339.95157,997.02094
78,0.642,-90.6412,468.90579,997.40796,-26.84088,434.17328,931.7525,-28.3867,339.95157,997.02094
79,0.65,-90.68684,468.75861,997.48694,-26.84088,434.17328,931.7525,-28.3867,339.95157,997.02094
80,0.658,-90.56118,468.67334,997.31366,-26.84088,434.17328,931.7525,-28.3867,339.95157,997.02094
81,0.667,-90.39929,468.75681,997.25568,-26.84088,434.17328,931.7525,-27.97534,340.18591,996.76343
82,0.675,-90.51553,468.82053,997.23462,-26.51218,434.34348,931.35828,-27.18453,340.09985,996.78992
83,0.683,-90.50803,468.76492,997.0108,-26.33624,434.80688,930.84137,-27.18453,340.09985,996.78992
84,0.692,-90.50803,468.76492,997.0108,-26.15709,434.65771,930.60602,-27.18453,340.09985,996.78992
85,0.7,-90.50803,468.76492,997.0108,-25.95297,434.66995,930.55652,-26.90777,340.40042,996.4519
86,0.708,-90.42332,468.83463,996.91315,-25.97057,434.7919,930.43304,-26.97251,340.05466,995.52814
87,0.717,-90.42332,468.83463,996.91315,-25.97057,434.7919,930.43304,-26.63665,339.86398,995.30579
88,0.725,-90.51763,468.82306,996.82916,-26.18504,434.88562,930.37439,-26.63665,339.86398,995.30579
89,0.733,-90.25256,468.89056,996.65674,-26.18504,434.88562,930.37439,-26.62817,340.11945,995.06458
90,0.742,-90.24234,468.71188,996.62726,-26.18504,434.88562,930.37439,-26.62817,340.11945,995.06458
91,0.75,-90.29837,468.80374,996.55762,-26.18504,434.88562,930.37439,-26.62817,340.11945,995.06458
92,0.758,-90.29837,468.80374,996.55762,-26.18504,434.88562,930.37439,-26.62817,340.11945,995.06458
93,0.767,-90.19157,468.99588,996.12531,-26.18504,434.88562,930.37439,-26.62817,340.11945,995.06458
94,0.775,-90.20609,469.11313,996.0119,-26.23026,434.91016,930.08063,-26.62817,340.11945,995.06458
95,0.783,-90.34577,469.13568,996.03912,-26.23026,434.91016,930.08063,-26.63665,339.86398,995.30579
96,0.792,-90.31892,469.11691,996.04791,-26.23026,434.91016,930.08063,-26.63665,339.86398,995.30579
97,0.8,-90.34577,469.13568,996.03912,-26.18504,434.88562,930.37439,-26.63665,339.86398,995.30579
98,0.808,-90.20609,469.11313,996.0119,-26.18504,434.88562,930.37439,-26.63665,339.86398,995.30579
99,0.817,-90.20609,469.11313,996.0119,-26.18504,434.88562,930.37439,-26.63665,339.86398,995.30579
100,0.825,-90.31892,469.11691,996.04791,-26.18504,434.88562,930.37439,-26.97251,340.05466,995.52814
101,0.833,-90.31892,469.11691,996.04791,-26.18504,434.88562,930.37439,-27.12475,339.7757,995.62402
102,0.842,-90.58221,469.22357,996.24908,-26.18504,434.88562,930.37439,-27.39294,339.9791,996.32373
103,0.85,-90.60206,468.90289,996.56812,-26.36983,434.85541,930.43903,-27.39294,339.9791,996.32373
104,0.858,-90.70184,468.87036,996.63495,-26.36983,434.85541,930.43903,-27.39294,339.9791,996.32373
105,0.867,-90.70184,468.87036,996.63495,-26.36983,434.85541,930.43903,-27.89681,340.26654,996.65741
106,0.875,-90.95002,468.90942,996.73425,-26.36983,434.85541,930.43903,-27.89681,340.26654,996.65741
107,0.883,-90.95002,468.90942,996.73425,-26.32426,434.74731,930.54303,-28.30034,340.0303,996.91583
108,0.892,-90.95002,468.90942,996.73425,-26.73927,434.24554,930.67584,-28.3867,339.95157,997.02094
109,0.9,-90.95002,468.90942,996.73425,-26.79528,434.16809,930.76648,-28.3867,339.95157,997.02094
110,0.908,-90.95002,468.90942,996.73425,-26.79528,434.16809,930.76648,-28.3867,339.95157,997.02094
111,0.917,-90.95002,468.90942,996.73425,-26.73927,434.24554,930.67584,-28.3867,339.95157,997.02094
112,0.925,-90.81722,468.80777,996.57318,-26.73927,434.24554,930.67584,-28.3867,339.95157,997.02094
113,0.933,-90.81722,468.80777,996.57318,-26.73927,434.24554,930.67584,-28.32463,339.90051,996.56934
114,0.942,-90.81722,468.80777,996.57318,-26.36983,434.85541,930.43903,-27.92109,340.13669,996.31097
115,0.95,-90.71743,468.8403,996.50635,-26.18504,434.88562,930.37439,-27.24923,339.75427,995.86609
116,0.958,-90.59181,468.75482,996.33307,-26.18504,434.88562,930.37439,-26.78886,339.58499,995.40167
117,0.967,-90.44205,469.02087,996.18921,-25.99105,434.66846,930.21014,-26.63665,339.86398,995.30579
118,0.975,-90.44205,469.02087,996.18921,-25.99105,434.66846,930.21014,-26.63665,339.86398,995.30579
119,0.983,-90.19157,468.99588,996.12531,-25.99105,434.66846,930.21014,-26.63665,339.86398,995.30579
120,0.992,-90.04445,469.35394,995.96942,-25.99105,434.66846,930.21014,-26.62817,340.11945,995.06458
121,1,-90.93195,469.30847,995.48639,-25.99105,434.66846,930.21014,-26.01793,340.97,995.14716
122,1.008,-90.04445,469.35394,995.96942,-25.99105,434.66846,930.21014,-26.01793,340.97,995.14716
123,1.017,-90.04445,469.35394,995.96942,-25.99105,434.66846,930.21014,-26.01793,340.97,995.14716
124,1.025,-90.04445,469.35394,995.96942,-26.0363,434.69296,929.91638,-26.01793,340.97,995.14716
125,1.033,-90.04445,469.35394,995.96942,-25.99105,434.66846,930.21014,-26.01793,340.97,995.14716
126,1.042,-90.04445,469.35394,995.96942,-25.99105,434.66846,930.21014,-26.62817,340.11945,995.06458
127,1.05,-89.93017,469.27252,995.65485,-25.99105,434.66846,930.21014,-26.77338,340.20715,994.98572
128,1.058,-90.80755,469.19897,995.14563,-25.99105,434.66846,930.21014,-26.16604,341.05063,995.06396
129,1.067,-90.95,469.1077,995.08313,-25.99105,434.66846,930.21014,-26.16604,341.05063,995.06396
130,1.075,-90.88093,469.15854,994.94122,-25.99105,434.66846,930.21014,-26.01793,340.97,995.14716
131,1.083,-91.09971,468.74982,994.75012,-26.0363,434.69296,929.91638,-26.07633,340.66928,995.41418
132,1.092,-91.09971,468.74982,994.75012,-26.0363,434.69296,929.91638,-26.44279,340.39117,995.43439
133,1.1,-91.09971,468.74982,994.75012,-26.0363,434.69296,929.91638,-26.44279,340.39117,995.43439
134,1.108,-91.09971,468.74982,994.75012,-26.40595,434.16672,930.3429,-26.78886,339.58499,995.40167
135,1.117,-91.09971,468.74982,994.75012,-26.37743,434.29657,929.96387,-26.44279,340.39117,995.43439
136,1.125,-91.09971,468.74982,994.75012,-26.37743,434.29657,929.96387,-27.55808,339.9129,995.44592
137,1.133,-91.30167,468.82031,994.39374,-26.37743,434.29657,929.96387,-27.12036,340.59409,995.60101
138,1.142,-91.14581,468.78445,994.36639,-26.37743,434.29657,929.96387,-27.55808,339.9129,995.44592
139,1.15,-91.30167,468.82031,994.39374,-26.37743,434.29657,929.96387,-27.55808,339.9129,995.44592
140,1.158,-91.14581,468.78445,994.36639,-26.37743,434.29657,929.96387,-26.97224,340.51349,995.6842
141,1.167,-91.14581,468.78445,994.36639,-26.37743,434.29657,929.96387,-26.72872,340.19373,995.25049
142,1.175,-91.14581,468.78445,994.36639,-26.19821,434.14758,929.72845,-27.03283,339.30099,994.99597
143,1.183,-91.14581,468.78445,994.36639,-26.19821,434.14758,929.72845,-27.46385,339.22989,994.55957
144,1.192,-91.1127,468.9108,994.07813,-26.19821,434.14758,929.72845,-26.96808,340.42471,994.03729
145,1.2,-90.97007,468.85336,994.07867,-25.94898,434.19754,929.37335,-26.74984,340.78391,993.9342
146,1.208,-90.87679,468.90039,993.99164,-25.85715,434.54395,929.68103,-26.4795,340.65582,993.69672
147,1.217,-90.87679,468.90039,993.99164,-25.81106,434.64102,929.57214,-26.25976,340.76917,993.57153
148,1.225,-90.77398,469.07663,993.94971,-25.90289,434.29459,929.2644,-26.25976,340.76917,993.57153
149,1.233,-90.57026,469.23495,994.01752,-25.81106,434.64102,929.57214,-26.25976,340.76917,993.57153
150,1.242,-90.01397,469.07751,993.89825,-25.87442,434.73953,929.48157,-26.25976,340.76917,993.57153
151,1.25,-89.84581,469.58267,993.99988,-25.87442,434.73953,929.48157,-26.72066,339.61902,992.99158
152,1.258,-89.84581,469.58267,993.99988,-25.87442,434.73953,929.48157,-26.72066,339.61902,992.99158
153,1.267,-89.80449,469.50226,994.0661,-25.87442,434.73953,929.48157,-26.72066,339.61902,992.99158
154,1.275,-89.79038,469.45566,994.2832,-25.87442,434.73953,929.48157,-26.8654,339.70782,992.92358
155,1.283,-89.79038,469.45566,994.2832,-25.87442,434.73953,929.48157,-26.8654,339.70782,992.92358
156,1.292,-89.79038,469.45566,994.2832,-25.81106,434.64102,929.57214,-26.8654,339.70782,992.92358
157,1.3,-89.57121,469.10217,994.2077,-25.85715,434.54395,929.68103,-26.8654,339.70782,992.92358
158,1.308,-89.86429,468.9516,993.72369,-25.81106,434.64102,929.57214,-26.40789,340.85043,993.50061
159,1.317,-89.47697,469.1033,993.74988,-25.85715,434.54395,929.68103,-27.15546,339.5773,993.28009
160,1.325,-89.47697,469.1033,993.74988,-25.85715,434.54395,929.68103,-27.15546,339.5773,993.28009
161,1.333,-89.82285,468.69794,993.72235,-25.37931,434.38324,929.75122,-26.40789,340.85043,993.50061
162,1.342,-89.82285,468.69794,993.72235,-25.16478,434.28934,929.80981,-26.62218,340.75208,993.61066
163,1.35,-89.6393,468.69119,993.68073,-25.25648,433.94293,929.5022,-27.33094,339.52109,993.37244
164,1.358,-90.02657,468.53955,993.65454,-25.25648,433.94293,929.5022,-27.1887,339.4202,993.4538
165,1.367,-90.15357,468.54611,993.38733,-25.35222,433.88077,929.20905,-26.4795,340.65582,993.69672
166,1.375,-89.66599,467.99591,993.42084,-25.35222,433.88077,929.20905,-26.4795,340.65582,993.69672
167,1.383,-90.05325,467.84418,993.39465,-25.32148,433.99515,929.08484,-27.01072,339.48849,993.34808
168,1.392,-90.05325,467.84418,993.39465,-25.3795,433.03839,928.5246,-26.25976,340.76917,993.57153
169,1.4,-90.05325,467.84418,993.39465,-25.32597,432.45654,928.47272,-27.1887,339.4202,993.4538
170,1.408,-90.39035,467.64832,993.43835,-25.56015,432.25635,928.22406,-26.25976,340.76917,993.57153
171,1.417,-90.25697,467.57248,993.46179,-25.59089,432.14188,928.34833,-27.1887,339.4202,993.4538
172,1.425,-90.25697,467.57248,993.46179,-25.56015,432.25635,928.22406,-26.86562,340.31577,993.72284
173,1.433,-90.39035,467.64832,993.43835,-25.86637,431.75317,928.06549,-26.86562,340.31577,993.72284
174,1.442,-90.25697,467.57248,993.46179,-25.8971,431.63867,928.18982,-26.86562,340.31577,993.72284
175,1.45,-90.25697,467.57248,993.46179,-25.89227,431.67346,927.79974,-27.49369,339.19577,993.47638
176,1.458,-90.25697,467.57248,993.46179,-25.89227,431.67346,927.79974,-26.62218,340.75208,993.61066
177,1.467,-90.25697,467.57248,993.46179,-25.89227,431.67346,927.79974,-26.40789,340.85043,993.50061
178,1.475,-89.66599,467.99591,993.42084,-25.58603,432.1767,927.95837,-26.25976,340.76917,993.57153
179,1.483,-89.20739,467.70508,993.58185,-24.76818,432.74646,928.14392,-27.01162,339.349,992.74774
180,1.492,-89.0036,467.86359,993.64972,-24.49763,432.83499,928.35651,-26.25976,340.76917,993.57153
181,1.5,-88.9673,467.89322,993.85657,-24.55375,433.78015,928.39319,-26.03125,340.82584,993.50189
182,1.508,-88.46053,467.92245,994.70538,-24.33932,433.93646,928.2442,-25.87353,340.96869,993.35175
183,1.517,-88.46053,467.92245,994.70538,-24.35287,433.7334,928.40582,-26.554,339.38052,992.63013
184,1.525,-88.27238,468.58621,994.5661,-24.35287,433.7334,928.40582,-25.87353,340.96869,993.35175
185,1.533,-88.51529,468.57614,994.68384,-24.35287,433.7334,928.40582,-26.554,339.38052,992.63013
186,1.542,-88.51529,468.57614,994.68384,-24.35287,433.7334,928.40582,-26.554,339.38052,992.63013
187,1.55,-88.51529,468.57614,994.68384,-24.55375,433.78015,928.39319,-26.554,339.38052,992.63013
188,1.558,-88.51529,468.57614,994.68384,-24.43989,433.79184,928.91675,-26.67212,339.2789,992.76007
189,1.567,-88.51529,468.57614,994.68384,-24.23904,433.74509,928.92932,-26.67212,339.2789,992.76007
190,1.575,-88.46053,467.92245,994.70538,-24.23904,433.74509,928.92932,-26.25976,340.76917,993.57153
191,1.583,-88.51529,468.57614,994.68384,-24.44315,433.73267,928.97864,-26.25976,340.76917,993.57153
192,1.592,-88.21767,467.93259,994.58765,-24.44315,433.73267,928.97864,-26.86685,339.26019,992.8158
193,1.6,-88.21767,467.93259,994.58765,-24.20515,433.00104,928.83807,-26.86685,339.26019,992.8158
194,1.608,-88.73729,467.85086,993.5271,-24.20515,433.00104,928.83807,-27.01072,339.48849,993.34808
195,1.617,-88.73729,467.85086,993.5271,-24.20515,433.00104,928.83807,-27.01072,339.48849,993.34808
196,1.625,-88.73729,467.85086,993.5271,-24.20515,433.00104,928.83807,-27.01072,339.48849,993.34808
197,1.633,-88.34498,467.68765,993.38202,-24.26205,432.67831,928.47687,-27.01072,339.48849,993.34808
198,1.642,-88.45163,467.67123,993.44299,-24.20515,433.00104,928.83807,-27.01072,339.48849,993.34808
199,1.65,-88.34498,467.68765,993.38202,-24.26205,432.67831,928.47687,-26.50317,340.33289,993.68378
200,1.658,-88.45163,467.67123,993.44299,-24.26205,432.67831,928.47687,-26.72293,340.21945,993.8089
201,1.667,-88.73729,467.85086,993.5271,-24.26205,432.67831,928.47687,-26.31678,340.15744,994.19531
202,1.675,-88.701,467.88049,993.73395,-24.20515,433.00104,928.83807,-26.62407,339.83087,994.42731
