Frame#,Time,L.Forearm.x,L.Forearm.y,L.Forearm.z,L.Ulna.x,L.Ulna.y,L.Ulna.z,L.Radius.x,L.Radius.y,L.Radius.z
1,0,-237.50142,294.12985,657.57562,-170.03314,295.92224,593.84814,-118.9425,242.4662,637.55652
2,0.008,-237.50142,294.12985,657.57562,-170.2523,296.04575,593.81317,-118.97366,242.34933,637.66644
3,0.017,-237.94388,294.37231,657.5282,-170.28615,296.02948,593.68512,-118.97366,242.34933,637.66644
4,0.025,-238.11853,294.05878,657.86133,-170.50531,296.15292,593.65015,-119.05379,242.33775,637.90778
5,0.033,-238.11853,294.05878,657.86133,-170.76387,296.23822,593.66534,-118.97366,242.34933,637.66644
6,0.042,-238.11853,294.05878,657.86133,-170.76387,296.23822,593.66534,-119.05379,242.33775,637.90778
7,0.05,-238.11853,294.05878,657.86133,-170.76387,296.23822,593.66534,-119.05379,242.33775,637.90778
8,0.058,-238.55614,294.16058,658.11011,-170.76387,296.23822,593.66534,-119.05379,242.33775,637.90778
9,0.067,-238.76309,293.99036,657.81415,-170.85649,296.17087,593.72021,-119.55803,242.77361,637.74255
10,0.075,-238.73486,293.61023,658.07861,-170.89729,296.03848,593.65405,-119.4766,241.38118,637.82581
11,0.083,-238.77296,293.54727,658.1629,-170.64426,295.93137,593.81714,-119.19759,242.48657,637.86542
12,0.092,-238.57788,293.41824,658.56207,-170.47397,295.98325,594.13745,-119.05379,242.33775,637.90778
13,0.1,-238.60884,293.27628,658.63251,-169.69394,296.40616,593.6394,-119.05379,242.33775,637.90778
14,0.108,-238.55396,293.18936,658.6991,-170.12549,296.02954,593.81567,-119.05379,242.33775,637.90778
15,0.117,-238.78413,292.95422,658.80164,-170.12549,296.02954,593.81567,-119.05379,242.33775,637.90778
16,0.125,-237.83226,293.229,659.20789,-170.41568,295.71249,594.29651,-119.4766,241.38118,637.82581
17,0.133,-237.41942,293.17319,659.06055,-170.61513,295.83997,594.25067,-119.4766,241.38118,637.82581
18,0.142,-237.94637,293.9501,659.61969,-170.61513,295.83997,594.25067,-119.05379,242.33775,637.90778
19,0.15,-238.11092,293.96652,659.66534,-170.37961,295.77112,594.22852,-119.4766,241.38118,637.82581
20,0.158,-238.49756,294.31409,660.05408,-170.41568,295.71249,594.29651,-119.4766,241.38118,637.82581
21,0.167,-238.94255,294.04294,659.96606,-170.61513,295.83997,594.25067,-119.4766,241.38118,637.82581
22,0.175,-239.07619,294.09225,660.09174,-170.72499,295.80725,594.14124,-119.63443,241.06645,637.66882
23,0.183,-238.74553,292.604,659.17981,-170.72499,295.80725,594.14124,-119.54601,240.91695,637.42584
24,0.192,-238.18596,292.27451,659.0929,-170.72499,295.80725,594.14124,-119.63443,241.06645,637.66882
25,0.2,-239.13393,292.64035,658.82648,-170.5916,296.00699,594.15253,-119.63443,241.06645,637.66882
26,0.208,-238.9881,292.77185,658.53156,-170.8446,296.11417,593.98944,-119.63443,241.06645,637.66882
27,0.217,-239.14436,292.80984,658.74243,-170.8446,296.11417,593.98944,-119.63443,241.06645,637.66882
28,0.225,-238.87053,293.10242,658.8819,-170.72302,296.10947,593.77051,-119.63443,241.06645,637.66882
29,0.233,-238.94041,292.99225,659.01245,-170.72302,296.10947,593.77051,-120.1389,241.50262,637.50348
30,0.242,-239.17361,292.746,658.8233,-170.90862,295.86453,593.5954,-120.1389,241.50262,637.50348
31,0.25,-239.12994,292.80341,659.06537,-170.94946,295.99329,593.49023,-120.12475,241.96609,637.6181
32,0.258,-238.94041,292.99225,659.01245,-170.72302,296.10947,593.77051,-119.4766,241.38118,637.82581
33,0.267,-238.66655,293.28473,659.15198,-170.5916,296.00699,594.15253,-119.19759,242.48657,637.86542
34,0.275,-238.66655,293.28473,659.15198,-170.59554,295.98788,594.35645,-119.05379,242.33775,637.90778
35,0.283,-238.66655,293.28473,659.15198,-170.59554,295.98788,594.35645,-119.05379,242.33775,637.90778
36,0.292,-238.28215,293.08539,659.26642,-170.59554,295.98788,594.35645,-119.05379,242.33775,637.90778
37,0.3,-237.7226,292.75598,659.1795,-169.90465,295.68951,594.53754,-119.05379,242.33775,637.90778
38,0.308,-237.85759,292.46759,659.31671,-169.86987,295.57748,594.85925,-119.05379,242.33775,637.90778
39,0.317,-237.85759,292.46759,659.31671,-169.92418,295.5416,594.43176,-119.4766,241.38118,637.82581
40,0.325,-237.57549,292.75293,659.28113,-169.92418,295.5416,594.43176,-119.42686,241.22241,637.92078
41,0.333,-237.57549,292.75293,659.28113,-169.92418,295.5416,594.43176,-119.42686,241.22241,637.92078
42,0.342,-237.57549,292.75293,659.28113,-169.37297,296.06476,594.6106,-119.42686,241.22241,637.92078
43,0.35,-237.57549,292.75293,659.28113,-169.37297,296.06476,594.6106,-119.42686,241.22241,637.92078
44,0.358,-237.57549,292.75293,659.28113,-169.92418,295.5416,594.43176,-119.24397,240.91072,637.74182
45,0.367,-237.41924,292.71487,659.07031,-169.92418,295.5416,594.43176,-119.24397,240.91072,637.74182
46,0.375,-237.41924,292.71487,659.07031,-169.92418,295.5416,594.43176,-119.24397,240.91072,637.74182
47,0.383,-237.41924,292.71487,659.07031,-169.92418,295.5416,594.43176,-119.24397,240.91072,637.74182
48,0.392,-237.35272,292.88474,659.00616,-169.55843,295.84164,594.26904,-119.40177,240.59598,637.58484
49,0.4,-237.32948,292.94946,658.60773,-169.55843,295.84164,594.26904,-119.40177,240.59598,637.58484
50,0.408,-237.5791,292.80264,658.65631,-169.8026,295.53693,594.21283,-119.29372,241.0695,637.64679
51,0.417,-237.51222,292.92471,658.49988,-169.8026,295.53693,594.21283,-119.29372,241.0695,637.64679
52,0.425,-237.53975,292.85403,658.58356,-169.56464,295.85638,594.21014,-119.29372,241.0695,637.64679
53,0.433,-237.31868,293.16174,658.28644,-169.56464,295.85638,594.21014,-119.29372,241.0695,637.64679
54,0.442,-237.22649,293.38205,658.35901,-169.8176,295.96344,594.04718,-119.29372,241.0695,637.64679
55,0.45,-237.44174,293.13821,658.36475,-169.8176,295.96344,594.04718,-119.29372,241.0695,637.64679
56,0.458,-237.47981,293.07526,658.44904,-169.32042,296.16101,594.26636,-119.4766,241.38118,637.82581
57,0.467,-237.5791,292.80264,658.65631,-169.57338,296.26804,594.10333,-119.4766,241.38118,637.82581
58,0.475,-237.53545,292.85999,658.89825,-170.0556,295.64398,594.0498,-119.63443,241.06645,637.66882
59,0.483,-238.10841,293.16473,658.77826,-170.0556,295.64398,594.0498,-119.49811,240.67813,637.31738
60,0.492,-238.13934,293.02274,658.84869,-169.8026,295.53693,594.21283,-119.45154,240.75478,637.48981
61,0.5,-237.56635,292.71793,658.96869,-169.92418,295.5416,594.43176,-119.45154,240.75478,637.48981
62,0.508,-237.56635,292.71793,658.96869,-169.92418,295.5416,594.43176,-119.92153,241.30319,637.4234
63,0.517,-238.13934,293.02274,658.84869,-170.17719,295.64868,594.26874,-119.61103,240.6167,636.91675
64,0.525,-238.52299,293.33133,658.62866,-170.0556,295.64398,594.0498,-119.73866,240.99158,637.24432
65,0.533,-238.48085,292.90179,658.33014,-170.0556,295.64398,594.0498,-119.73866,240.99158,637.24432
66,0.542,-238.85175,293.12576,658.42261,-170.18503,295.46326,593.83453,-120.06535,241.45201,637.38098
67,0.55,-238.92731,293.36163,658.30359,-170.38747,295.58575,593.79431,-120.44138,241.62714,637.05664
68,0.558,-238.64355,294.09698,658.09436,-170.38747,295.58575,593.79431,-120.44138,241.62714,637.05664
69,0.567,-238.5706,294.13422,657.88849,-170.38747,295.58575,593.79431,-120.44138,241.62714,637.05664
70,0.575,-238.50372,294.25626,657.73199,-170.66386,295.78345,593.7113,-120.6242,241.93851,637.23566
71,0.583,-238.50372,294.25626,657.73199,-170.53442,295.96411,593.92657,-120.6242,241.93851,637.23566
72,0.592,-238.50372,294.25626,657.73199,-170.53442,295.96411,593.92657,-120.6242,241.93851,637.23566
73,0.6,-238.52409,294.27078,657.5025,-170.29642,296.28351,593.92395,-120.6242,241.93851,637.23566
74,0.608,-238.52409,294.27078,657.5025,-170.29642,296.28351,593.92395,-120.6242,241.93851,637.23566
75,0.617,-238.25026,294.56311,657.64203,-170.29642,296.28351,593.92395,-120.06535,241.45201,637.38098
76,0.625,-238.25026,294.56311,657.64203,-169.79359,296.50272,593.9649,-120.6242,241.93851,637.23566
77,0.633,-238.25026,294.56311,657.64203,-169.79359,296.50272,593.9649,-120.06535,241.45201,637.38098
78,0.642,-238.25026,294.56311,657.64203,-169.79359,296.50272,593.9649,-120.6242,241.93851,637.23566
79,0.65,-238.25026,294.56311,657.64203,-169.90001,296.3468,593.7179,-120.6242,241.93851,637.23566
80,0.658,-238.2177,294.07993,657.38861,-170.16725,296.01752,593.69348,-120.44138,241.62714,637.05664
81,0.667,-238.2177,294.07993,657.38861,-170.31888,295.77277,593.65533,-119.88249,241.14044,637.20197
82,0.675,-238.23904,294.0394,657.17865,-170.83052,295.96524,593.50751,-120.44138,241.62714,637.05664
83,0.683,-238.23904,294.0394,657.17865,-170.57191,295.87991,593.49231,-120.44138,241.62714,637.05664
84,0.692,-238.02419,294.26514,657.24829,-170.57191,295.87991,593.49231,-120.44138,241.62714,637.05664
85,0.7,-238.02419,294.26514,657.24829,-170.37866,296.5231,593.39624,-120.44138,241.62714,637.05664
86,0.708,-238.27757,293.95828,657.33832,-170.05167,296.10214,593.67975,-120.44138,241.62714,637.05664
87,0.717,-238.49245,293.73257,657.26862,-170.40526,295.69806,593.69611,-120.44138,241.62714,637.05664
88,0.725,-238.47108,293.77307,657.47858,-170.40526,295.69806,593.69611,-120.44138,241.62714,637.05664
89,0.733,-238.77756,293.9639,657.59247,-170.40526,295.69806,593.69611,-120.6242,241.93851,637.23566
90,0.742,-238.77756,293.9639,657.59247,-170.91692,295.89053,593.54822,-120.44138,241.62714,637.05664
91,0.75,-238.33058,294.45596,657.36218,-170.66386,295.78345,593.7113,-120.6242,241.93851,637.23566
92,0.758,-238.25026,294.56311,657.64203,-170.29024,296.26877,593.98279,-120.6242,241.93851,637.23566
93,0.767,-238.25026,294.56311,657.64203,-170.29024,296.26877,593.98279,-120.06535,241.45201,637.38098
94,0.775,-238.50372,294.25626,657.73199,-170.53442,295.96411,593.92657,-120.06535,241.45201,637.38098
95,0.783,-238.77756,293.9639,657.59247,-170.03783,296.19815,593.90869,-120.06535,241.45201,637.38098
96,0.792,-238.52409,294.27078,657.5025,-170.02003,296.08588,594.00696,-120.06535,241.45201,637.38098
97,0.8,-238.25026,294.56311,657.64203,-170.02003,296.08588,594.00696,-120.06535,241.45201,637.38098
98,0.808,-238.25026,294.56311,657.64203,-169.8176,295.96344,594.04718,-119.92153,241.30319,637.4234
99,0.817,-238.25026,294.56311,657.64203,-170.01384,296.07114,594.0658,-120.06535,241.45201,637.38098
100,0.825,-238.25026,294.56311,657.64203,-169.81142,295.9487,594.10602,-119.92153,241.30319,637.4234
101,0.833,-238.50372,294.25626,657.73199,-170.0556,295.64398,594.0498,-119.73866,240.99158,637.24432
102,0.842,-238.77756,293.9639,657.59247,-170.0556,295.64398,594.0498,-119.73866,240.99158,637.24432
103,0.85,-238.77756,293.9639,657.59247,-170.09866,295.53796,593.79382,-119.73866,240.99158,637.24432
104,0.858,-238.50372,294.25626,657.73199,-170.30109,295.66043,593.7536,-119.88249,241.14044,637.20197
105,0.867,-238.19727,294.06546,657.61816,-170.623,295.6546,593.81647,-120.2976,241.47849,637.099
106,0.875,-238.50372,294.25626,657.73199,-170.65831,295.80524,593.53302,-120.2976,241.47849,637.099
107,0.883,-238.50372,294.25626,657.73199,-170.83052,295.96524,593.50751,-120.44138,241.62714,637.05664
108,0.892,-238.50372,294.25626,657.73199,-170.87605,295.76178,593.65338,-120.44138,241.62714,637.05664
109,0.9,-238.25026,294.56311,657.64203,-170.49356,295.8353,594.03168,-120.6242,241.93851,637.23566
110,0.908,-238.50372,294.25626,657.73199,-170.49356,295.8353,594.03168,-120.6242,241.93851,637.23566
111,0.917,-238.5706,294.13422,657.88849,-170.49356,295.8353,594.03168,-120.6242,241.93851,637.23566
112,0.925,-238.86674,294.01294,658.46173,-170.49356,295.8353,594.03168,-120.6242,241.93851,637.23566
113,0.933,-238.74855,293.91205,658.33508,-170.01132,296.45935,594.08527,-120.6242,241.93851,637.23566
114,0.942,-238.60973,293.7114,658.68518,-169.57338,296.26804,594.10333,-120.06535,241.45201,637.38098
115,0.95,-238.65344,293.65405,658.44312,-169.69496,296.27274,594.32233,-120.06535,241.45201,637.38098
116,0.958,-238.76602,293.74939,658.89606,-169.442,296.16568,594.48529,-119.63443,241.06645,637.66882
117,0.967,-238.6356,293.4267,659.08154,-169.22583,296.29465,594.58795,-119.63443,241.06645,637.66882
118,0.975,-238.71114,293.66254,658.96265,-169.22583,296.29465,594.58795,-119.4766,241.38118,637.82581
119,0.983,-237.92523,293.62164,659.01147,-169.26041,296.6377,594.96313,-119.58467,240.90768,637.76385
120,0.992,-237.12737,293.15985,659.01184,-169.19106,296.18268,594.90961,-119.58467,240.90768,637.76385
121,1,-237.12737,293.15985,659.01184,-169.20209,296.37415,595.26697,-119.44798,240.54153,637.4082
122,1.008,-237.12737,293.15985,659.01184,-169.20209,296.37415,595.26697,-119.58467,240.90768,637.76385
123,1.017,-237.2836,293.19791,659.22266,-169.19106,296.18268,594.90961,-119.40177,240.59598,637.58484
124,1.025,-237.2836,293.19791,659.22266,-169.20209,296.37415,595.26697,-119.40177,240.59598,637.58484
125,1.033,-237.12737,293.15985,659.01184,-169.19106,296.18268,594.90961,-119.46185,240.25987,637.68384
126,1.042,-237.12737,293.15985,659.01184,-169.3382,295.95279,594.93225,-119.46185,240.25987,637.68384
127,1.05,-237.2836,293.19791,659.22266,-169.3382,295.95279,594.93225,-119.46185,240.25987,637.68384
128,1.058,-237.12737,293.15985,659.01184,-169.22583,296.29465,594.58795,-119.40177,240.59598,637.58484
129,1.067,-237.2836,293.19791,659.22266,-169.22583,296.29465,594.58795,-119.40177,240.59598,637.58484
130,1.075,-237.2836,293.19791,659.22266,-169.22583,296.29465,594.58795,-119.40177,240.59598,637.58484
131,1.083,-237.2836,293.19791,659.22266,-169.22583,296.29465,594.58795,-119.58467,240.90768,637.76385
132,1.092,-237.67259,293.73798,659.50653,-169.19106,296.18268,594.90961,-119.58467,240.90768,637.76385
133,1.1,-237.66798,294.08112,659.66742,-169.20209,296.37415,595.26697,-119.42686,241.22241,637.92078
134,1.108,-237.59244,293.84525,659.78638,-169.20209,296.37415,595.26697,-119.40853,240.76286,637.6051
135,1.117,-237.66798,294.08112,659.66742,-169.20209,296.37415,595.26697,-119.65296,241.73752,638.3468
136,1.125,-237.59244,293.84525,659.78638,-169.20209,296.37415,595.26697,-119.65296,241.73752,638.3468
137,1.133,-237.63976,293.90945,660.02576,-169.38676,296.49063,595.36383,-119.76604,241.33446,638.41907
138,1.142,-237.80734,293.6507,660.24768,-169.38676,296.49063,595.36383,-119.76604,241.33446,638.41907
139,1.15,-238.02377,293.38644,660.21014,-169.38676,296.49063,595.36383,-119.76604,241.33446,638.41907
140,1.158,-237.70628,293.73965,660.08997,-169.38676,296.49063,595.36383,-119.72405,241.10336,638.59192
141,1.167,-237.70628,293.73965,660.08997,-169.43361,296.52921,595.46826,-119.76604,241.33446,638.41907
142,1.175,-237.20168,293.6586,660.00415,-169.20209,296.37415,595.26697,-119.76604,241.33446,638.41907
143,1.183,-237.20168,293.6586,660.00415,-169.20209,296.37415,595.26697,-119.76604,241.33446,638.41907
144,1.192,-237.20168,293.6586,660.00415,-169.20209,296.37415,595.26697,-119.76604,241.33446,638.41907
145,1.2,-237.20168,293.6586,660.00415,-169.20209,296.37415,595.26697,-119.76604,241.33446,638.41907
146,1.208,-237.63976,293.90945,660.02576,-169.20209,296.37415,595.26697,-119.76604,241.33446,638.41907
147,1.217,-237.59244,293.84525,659.78638,-169.20209,296.37415,595.26697,-119.99003,240.69342,638.16046
148,1.225,-237.63976,293.90945,660.02576,-169.20209,296.37415,595.26697,-119.46185,240.25987,637.68384
149,1.233,-237.0331,293.5159,659.69952,-169.34921,296.14426,595.28961,-119.46185,240.25987,637.68384
150,1.242,-237.0331,293.5159,659.69952,-169.34921,296.14426,595.28961,-119.46185,240.25987,637.68384
151,1.25,-237.0331,293.5159,659.69952,-169.34921,296.14426,595.28961,-119.64474,240.57162,637.86285
152,1.258,-237.70628,293.73965,660.08997,-169.20209,296.37415,595.26697,-119.64474,240.57162,637.86285
153,1.267,-237.74083,293.8205,660.18347,-169.20209,296.37415,595.26697,-119.64474,240.57162,637.86285
154,1.275,-237.74083,293.8205,660.18347,-169.43361,296.52921,595.46826,-119.64474,240.57162,637.86285
155,1.283,-237.69473,294.16147,660.18475,-169.43361,296.52921,595.46826,-119.64474,240.57162,637.86285
156,1.292,-237.69473,294.16147,660.18475,-169.38676,296.49063,595.36383,-119.64474,240.57162,637.86285
157,1.3,-237.69473,294.16147,660.18475,-169.43361,296.52921,595.46826,-119.64474,240.57162,637.86285
158,1.308,-237.76126,293.99173,660.24896,-169.43361,296.52921,595.46826,-119.48695,240.88635,638.01978
159,1.317,-237.8623,293.90277,660.40662,-169.38676,296.49063,595.36383,-119.48695,240.88635,638.01978
160,1.325,-237.8623,293.90277,660.40662,-169.5023,296.37372,595.54657,-119.48695,240.88635,638.01978
161,1.333,-237.76205,293.79913,660.64691,-169.38676,296.49063,595.36383,-119.48695,240.88635,638.01978
162,1.342,-237.22215,293.57117,660.59729,-169.38676,296.49063,595.36383,-119.59209,240.33704,638.02972
163,1.35,-237.46048,293.84308,660.66876,-169.53201,296.28519,595.38501,-119.59209,240.33704,638.02972
164,1.358,-237.05614,293.61661,660.68054,-169.38676,296.49063,595.36383,-119.59209,240.33704,638.02972
165,1.367,-237.05614,293.61661,660.68054,-169.38676,296.49063,595.36383,-119.59209,240.33704,638.02972
166,1.375,-237.07408,293.93542,660.27094,-169.43361,296.52921,595.46826,-119.59209,240.33704,638.02972
167,1.383,-237.17514,293.8465,660.42865,-169.20209,296.37415,595.26697,-119.59209,240.33704,638.02972
168,1.392,-237.17514,293.8465,660.42865,-169.20209,296.37415,595.26697,-119.59209,240.33704,638.02972
169,1.4,-237.07408,293.93542,660.27094,-169.16243,296.35474,595.17993,-119.64474,240.57162,637.86285
170,1.408,-237.07408,293.93542,660.27094,-169.20209,296.37415,595.26697,-119.64474,240.57162,637.86285
171,1.417,-237.07408,293.93542,660.27094,-169.20209,296.37415,595.26697,-119.58467,240.90768,637.76385
172,1.425,-237.07408,293.93542,660.27094,-169.20209,296.37415,595.26697,-119.40177,240.59598,637.58484
173,1.433,-237.07408,293.93542,660.27094,-169.20209,296.37415,595.26697,-119.42686,241.22241,637.92078
174,1.442,-237.25819,293.69739,660.46826,-169.38676,296.49063,595.36383,-119.42686,241.22241,637.92078
175,1.45,-237.05614,293.61661,660.68054,-169.38676,296.49063,595.36383,-119.34593,241.01303,638.10449
176,1.458,-237.05614,293.61661,660.68054,-169.58778,296.70367,595.53021,-119.16062,241.12343,638.24286
177,1.467,-237.46048,293.84308,660.66876,-169.58778,296.70367,595.53021,-119.27882,241.14835,638.52502
178,1.475,-237.51698,294.01263,660.7652,-169.51106,296.60583,595.65942,-119.2651,240.80389,638.28827
179,1.483,-237.59605,293.8446,660.73022,-169.58485,296.57782,596.00574,-119.27882,241.14835,638.52502
180,1.492,-237.59605,293.8446,660.73022,-169.80856,296.27338,596.22772,-119.1115,240.87836,638.85278
181,1.5,-237.1171,293.52499,660.85272,-169.69785,296.41464,596.56476,-119.1115,240.87836,638.85278
182,1.508,-236.96892,293.41104,660.90442,-169.57234,296.34348,596.88904,-119.3541,240.79628,639.06165
183,1.517,-236.96892,293.41104,660.90442,-169.57234,296.34348,596.88904,-119.3541,240.79628,639.06165
184,1.525,-236.96892,293.41104,660.90442,-169.57234,296.34348,596.88904,-119.09776,240.53394,638.61609
185,1.533,-236.96892,293.41104,660.90442,-169.57234,296.34348,596.88904,-119.52329,240.64424,638.96008
186,1.542,-236.96892,293.41104,660.90442,-169.57234,296.34348,596.88904,-119.26695,240.38182,638.51447
187,1.55,-236.96892,293.41104,660.90442,-169.57234,296.34348,596.88904,-119.26695,240.38182,638.51447
188,1.558,-236.96892,293.41104,660.90442,-169.69785,296.41464,596.56476,-119.97851,240.55731,638.32745
189,1.567,-237.37332,293.6376,660.89258,-169.80856,296.27338,596.22772,-119.42469,240.06712,638.3576
190,1.575,-237.52147,293.7515,660.84088,-169.80856,296.27338,596.22772,-119.71191,240.30377,638.11218
191,1.583,-237.59605,293.8446,660.73022,-169.80856,296.27338,596.22772,-119.71191,240.30377,638.11218
192,1.592,-237.59605,293.8446,660.73022,-169.83154,296.24423,595.97015,-119.71191,240.30377,638.11218
193,1.6,-237.59605,293.8446,660.73022,-169.69308,296.39041,596.04498,-119.71191,240.30377,638.11218
194,1.608,-237.59605,293.8446,660.73022,-169.80681,296.47031,595.89777,-119.59209,240.33704,638.02972
195,1.617,-237.59605,293.8446,660.73022,-169.9223,296.35327,596.08051,-119.55412,240.61848,638.2691
196,1.625,-237.59605,293.8446,660.73022,-169.9223,296.35327,596.08051,-119.70087,240.90532,638.40186
