Frame#,Time,R.Forearm.x,R.Forearm.y,R.Forearm.z,R.Ulna.x,R.Ulna.y,R.Ulna.z,R.Radius.x,R.Radius.y,R.Radius.z
1,0,-1310.61023,-765.92255,1029.65515,-1369.07739,-794.5105,951.38257,-1282.81677,-779.42609,906.56177
2,0.008,-1304.79321,-767.07581,1028.76001,-1363.78748,-795.12946,951.25543,-1278.85107,-781.81116,906.32892
3,0.017,-1298.22974,-767.96716,1027.77332,-1358.06848,-795.87604,950.46185,-1273.36926,-782.86145,904.55872
4,0.025,-1294.12231,-770.14557,1027.57751,-1352.90955,-796.3443,949.71838,-1267.40979,-781.98669,904.75104
5,0.033,-1288.18115,-770.75232,1026.44189,-1348.99634,-797.36914,948.89319,-1262.88342,-785.57123,903.04346
6,0.042,-1281.7312,-769.28979,1026.34265,-1343.22192,-796.88824,948.12274,-1257.71729,-783.32806,901.31165
7,0.05,-1276.67786,-772.7666,1024.49451,-1337.59985,-797.19824,947.61011,-1251.21655,-785.01147,899.83118
8,0.058,-1269.92651,-770.96979,1022.29047,-1331.85095,-797.11072,946.43713,-1245.80798,-785.63623,898.71564
9,0.067,-1264.57349,-775.16022,1023.03992,-1326.55298,-797.60938,946.10815,-1240.1427,-787.41516,897.08698
10,0.075,-1258.84949,-773.25775,1020.55554,-1320.8689,-798.90729,945.00891,-1234.35095,-786.3172,896.80023
11,0.083,-1252.02393,-776.42474,1020.68121,-1314.3374,-799.6416,943.00354,-1228.74097,-790.53571,895.51904
12,0.092,-1245.32678,-775.51935,1019.19958,-1308.28479,-799.5116,942.91986,-1223.08862,-788.7019,892.1308
13,0.1,-1239.38269,-778.34259,1018.47363,-1302.34753,-801.25195,942.31921,-1213.96533,-795.3963,893.25262
14,0.108,-1231.8938,-778.18134,1017.53259,-1296.17603,-802.1665,941.58868,-1210.7887,-793.91406,892.63025
15,0.117,-1224.71973,-778.10474,1015.79126,-1288.59851,-801.98969,939.62592,-1203.82336,-794.57397,891.34888
16,0.125,-1218.7699,-781.85583,1014.1084,-1282.58362,-803.63135,940.01807,-1198.09375,-795.87799,890.39044
17,0.133,-1210.6853,-779.59644,1013.79675,-1276.94458,-804.83362,938.32709,-1190.90796,-796.91663,889.12164
18,0.142,-1202.74243,-782.45654,1012.2688,-1268.66699,-805.81604,937.00677,-1184.68909,-800.86664,888.1734
19,0.15,-1195.43079,-786.12183,1010.78491,-1261.62976,-807.43402,936.60553,-1178.13208,-799.53156,886.75055
20,0.158,-1188.09949,-787.0567,1009.80725,-1254.25269,-809.21869,935.1004,-1170.24121,-801.04822,884.10339
21,0.167,-1179.61926,-787.69305,1008.86768,-1246.49268,-811.58588,934.0697,-1162.49902,-803.30432,881.96991
22,0.175,-1171.27478,-790.67371,1007.58527,-1238.79761,-813.63385,932.85034,-1153.58752,-802.97791,880.84436
23,0.183,-1163.06055,-793.86188,1005.59192,-1229.93384,-814.29034,931.82343,-1146.60608,-804.35303,880.34406
24,0.192,-1156.19897,-794.88373,1005.30743,-1222.12268,-817.17896,929.60651,-1138.90002,-807.27057,878.37427
25,0.2,-1147.06372,-795.97198,1004.34735,-1212.95544,-818.19293,929.24542,-1130.5033,-808.62244,876.87769
26,0.208,-1137.39575,-797.1145,1002.53577,-1204.71594,-821.64618,928.47662,-1121.49109,-811.15521,875.58405
27,0.217,-1128.81482,-800.48907,1001.7879,-1195.80701,-822.72186,926.80646,-1113.50195,-812.93042,875.20685
28,0.225,-1120.83301,-802.41052,1000.1861,-1187.47705,-824.69873,926.79297,-1104.87427,-816.36261,874.53876
29,0.233,-1112.8324,-804.89606,1000.56281,-1178.75293,-826.79932,926.10767,-1096.14746,-818.94214,873.2301
30,0.242,-1102.5332,-804.74585,1000.81903,-1168.95166,-827.57635,925.84564,-1086.9812,-820.11755,873.80463
31,0.25,-1093.24597,-807.61707,1000.25,-1159.83533,-827.73712,924.88446,-1076.49231,-819.99628,873.5155
32,0.258,-1084.15308,-808.33496,1001.03613,-1151.05676,-829.37549,925.53845,-1067.06592,-821.16461,873.62091
33,0.267,-1075.99683,-810.35803,1001.37762,-1141.55334,-830.92841,925.79907,-1058.04688,-823.90338,874.20624
34,0.275,-1064.37231,-809.05853,1001.80743,-1131.54724,-832.38849,926.91919,-1047.96704,-825.37091,875.49371
35,0.283,-1055.505,-813.30475,1003.43195,-1122.00903,-833.14288,927.5813,-1037.37708,-825.78223,876.66223
36,0.292,-1046.04236,-815.68079,1005.40039,-1111.91309,-834.49164,929.16022,-1027.60913,-826.54559,879.10675
37,0.3,-1036.30359,-813.48981,1007.49646,-1101.84619,-835.73865,931.26642,-1017.82257,-828.55096,880.8399
38,0.308,-1025.62854,-814.97192,1008.66119,-1091.56677,-836.38611,932.20593,-1005.52118,-829.64825,881.84381
39,0.317,-1016.51904,-819.24493,1010.72089,-1081.33997,-839.00293,933.75055,-997.15015,-829.86621,884.0835
40,0.325,-1006.6853,-820.85217,1013.59875,-1070.30542,-839.198,935.43201,-986.99066,-832.03119,886.84717
41,0.333,-995.1756,-819.18835,1013.68604,-1059.38696,-841.27686,937.57391,-975.8573,-833.24158,888.76752
42,0.342,-985.69183,-820.85645,1016.48322,-1049.27649,-843.01971,939.22974,-964.88031,-835.47913,889.90021
43,0.35,-975.82446,-824.94824,1017.45697,-1038.58936,-845.01611,940.93353,-952.83765,-836.84271,893.58862
44,0.358,-965.53125,-826.49463,1019.4032,-1027.10242,-846.66589,941.75397,-941.56915,-836.07697,894.62292
45,0.367,-954.68384,-825.63849,1020.97339,-1017.00366,-849.96875,942.47089,-926.67126,-834.21375,896.75482
46,0.375,-943.9516,-829.06567,1020.98242,-1005.02344,-852.3739,945.29767,-921.69757,-836.46826,895.85541
47,0.383,-934.01581,-830.08728,1023.57666,-992.17157,-855.28192,943.88403,-908.56049,-839.83783,899.65833
48,0.392,-922.16431,-830.15002,1024.41821,-981.96259,-858.12927,946.37024,-895.15857,-839.92755,899.75232
49,0.4,-912.69775,-833.66992,1024.86584,-968.27155,-859.89063,946.58136,-883.64185,-842.90173,902.61273
50,0.408,-900.46899,-834.24078,1027.00708,-957.4696,-864.5025,948.92035,-875.62939,-844.64081,901.84283
51,0.417,-890.08197,-834.43457,1027.54431,-945.00671,-865.66882,948.86407,-859.992,-841.79773,902.85522
52,0.425,-879.75153,-836.38,1029.82068,-933.04926,-869.25262,951.47235,-849.04724,-847.20648,905.11218
53,0.433,-867.56793,-836.16174,1031.00671,-921.56909,-872.40247,951.40753,-837.25464,-848.3902,907.383
54,0.442,-857.09161,-840.26538,1032.63464,-909.91052,-875.31317,953.74957,-824.59894,-848.73926,909.59204
55,0.45,-846.69391,-839.66064,1033.82776,-896.91693,-876.37018,955.48987,-809.63916,-848.91162,910.39752
56,0.458,-836.17114,-840.97327,1033.61548,-885.99402,-879.34222,957.46594,-798.89508,-852.99927,912.14227
57,0.467,-825.39935,-843.87573,1036.54639,-875.06934,-881.93762,958.92871,-786.64886,-853.87268,914.68317
58,0.475,-815.4295,-845.55695,1037.62305,-862.98083,-883.84888,959.04822,-775.95093,-857.72717,917.1767
59,0.483,-804.96136,-845.36975,1038.84192,-850.65686,-884.96033,959.37695,-764.67499,-858.42859,917.13611
60,0.492,-794.91302,-847.51324,1040.38062,-840.76221,-888.15735,960.91644,-757.20947,-860.44464,921.7627
61,0.5,-784.2442,-846.59448,1040.79871,-830.36023,-891.8114,961.61414,-743.96631,-859.74341,922.01355
62,0.508,-774.39911,-849.25031,1042.90332,-818.74982,-891.82996,962.62494,-733.3186,-863.06134,924.57214
63,0.517,-764.28473,-850.75897,1043.85669,-807.53741,-890.98572,962.77301,-719.66248,-860.59521,925.43585
64,0.525,-754.15753,-850.39166,1046.47729,-795.90234,-891.3634,963.48303,-710.95612,-862.54852,926.54822
65,0.533,-744.52881,-851.90759,1046.38599,-786.00385,-894.9151,963.52356,-698.25128,-862.20221,928.5827
66,0.542,-735.05969,-852.453,1046.80371,-775.86859,-895.01355,964.5105,-686.09222,-861.61932,930.9696
67,0.55,-725.06299,-852.86102,1047.19861,-764.13202,-895.55273,965.08563,-675.85968,-863.75256,930.74884
68,0.558,-715.79004,-852.76221,1048.22925,-751.76105,-894.26807,964.99408,-666.13031,-862.01886,932.00781
69,0.567,-706.4386,-851.71802,1048.52661,-742.54742,-895.49121,966.13916,-655.10577,-862.38708,934.98358
70,0.575,-696.22253,-851.81488,1049.0498,-730.9856,-894.41724,966.94592,-644.61395,-862.60455,934.52118
71,0.583,-687.55811,-851.48297,1050.21692,-721.41608,-894.98352,967.06976,-636.79559,-858.78766,935.25323
72,0.592,-678.4707,-849.50043,1049.81433,-712.29199,-894.84778,966.77063,-626.5899,-859.76495,936.18518
73,0.6,-669.57916,-848.24756,1050.34607,-700.40961,-892.21594,968.47882,-615.19611,-859.33765,937.29401
74,0.608,-661.3963,-846.91028,1050.95203,-692.67841,-894.82874,968.71832,-605.61646,-856.18835,938.18158
75,0.617,-653.09772,-845.93073,1050.15222,-682.50006,-892.10931,967.99188,-595.46161,-853.62811,938.89911
76,0.625,-644.41064,-845.0965,1049.48242,-672.36084,-889.59045,967.12036,-587.82922,-853.43799,938.38245
77,0.633,-636.73456,-843.15375,1049.11633,-664.30493,-890.03479,968.59802,-578.09906,-852.49384,939.59601
78,0.642,-628.03259,-841.78894,1049.1073,-655.15753,-888.66656,968.2796,-567.61884,-850.28906,939.20782
79,0.65,-620.76453,-839.29102,1049.01575,-645.40192,-885.24945,967.1416,-558.85535,-845.53308,940.11285
80,0.658,-613.88489,-839.08417,1048.01624,-638.55267,-885.02094,966.83832,-550.78601,-844.16205,939.56006
81,0.667,-604.53412,-834.79822,1048.37549,-629.1275,-882.08069,964.63843,-542.71375,-841.75256,939.17792
82,0.675,-596.01709,-832.26508,1047.66882,-620.79022,-878.60022,964.13287,-535.99982,-840.4375,937.44763
83,0.683,-588.35095,-831.24225,1046.19287,-613.1145,-877.10364,962.70996,-526.56055,-835.55597,936.85315
84,0.692,-582.78204,-829.54608,1045.23914,-605.27197,-875.17847,961.3125,-519.88947,-834.2392,936.15692
85,0.7,-573.8924,-826.64294,1044.00366,-597.40369,-871.92102,959.49274,-510.70932,-833.07806,935.32239
86,0.708,-567.55695,-823.76501,1043.24377,-590.26599,-869.81934,958.79431,-502.55502,-829.84253,935.17157
87,0.717,-559.63965,-821.13678,1041.87244,-582.90936,-865.98096,956.68036,-496.59393,-826.17615,933.22046
88,0.725,-552.50183,-817.93433,1040.30579,-575.30151,-863.44269,955.55707,-489.05112,-822.90466,931.65515
89,0.733,-546.70782,-816.61688,1039.55664,-569.05548,-861.69226,953.81165,-482.32489,-818.96783,930.58954
90,0.742,-539.97131,-814.17053,1037.40149,-561.81329,-858.57928,952.21228,-477.19693,-817.34991,928.96307
91,0.75,-531.91254,-810.50067,1034.70337,-554.7901,-854.55609,951.29736,-470.16025,-813.30951,926.63123
92,0.758,-526.43018,-807.79333,1034.16882,-548.01263,-850.67529,949.90076,-462.98947,-811.3573,925.9743
93,0.767,-518.32825,-804.29865,1033.48584,-543.54449,-849.45447,949.49591,-455.90121,-808.61914,925.02216
94,0.775,-511.16489,-800.65387,1032.15833,-536.86298,-845.65295,948.29517,-449.18594,-804.64996,922.99646
95,0.783,-504.89505,-797.01422,1031.68311,-530.53864,-841.22473,947.49628,-444.50925,-803.09589,921.2049
96,0.792,-500.01474,-795.03638,1030.73901,-526.20068,-839.30847,947.22797,-443.53271,-798.73749,918.97418
97,0.8,-493.28839,-791.6601,1030.93225,-521.05389,-835.6615,946.70776,-436.16327,-795.26416,918.72766
98,0.808,-488.16827,-789.52179,1031.74231,-515.50903,-832.13147,947.33429,-430.70004,-792.56781,917.85004
99,0.817,-481.08548,-785.60449,1030.8252,-510.39877,-829.1012,948.34283,-428.19357,-789.63495,917.96454
100,0.825,-474.63147,-782.40918,1031.53345,-507.09894,-826.1051,948.66956,-421.17337,-786.35083,917.69489
101,0.833,-470.51117,-780.56873,1032.36768,-502.7948,-823.61804,948.49182,-419.14981,-785.37195,917.79144
102,0.842,-463.79089,-778.72363,1032.66846,-498.66922,-820.51593,947.9491,-412.90906,-782.16968,917.69977
103,0.85,-458.51566,-776.59888,1032.48169,-494.20285,-816.86743,947.44208,-408.95087,-780.80786,917.6604
104,0.858,-453.42584,-774.79584,1033.4967,-489.86981,-814.97827,948.27484,-404.05444,-777.06305,917.08252
105,0.867,-448.16403,-774.37994,1033.8208,-486.78781,-813.58807,947.84857,-399.62811,-777.62939,917.19244
106,0.875,-443.09296,-773.47925,1033.3407,-481.89874,-811.48352,948.5058,-395.22034,-775.07465,916.93768
107,0.883,-438.39566,-771.96497,1034.12134,-476.7789,-809.02875,948.77271,-391.76593,-774.39661,917.17529
108,0.892,-432.9328,-770.88202,1033.95837,-473.27097,-809.84039,948.80829,-386.7189,-774.06158,916.94611
109,0.9,-429.28281,-772.66675,1033.64294,-468.67166,-806.70111,949.05225,-381.44321,-773.81982,916.65967
110,0.908,-423.05371,-770.3847,1034.78381,-463.37698,-807.03387,949.99225,-378.19543,-772.25061,916.34119
111,0.917,-418.48926,-771.01617,1035.72803,-458.29486,-806.71887,950.50952,-372.57605,-773.14233,916.95496
112,0.925,-412.5014,-768.51398,1035.52393,-454.92786,-805.67578,951.81262,-368.14038,-772.6507,917.54224
113,0.933,-408.86658,-768.315,1036.32532,-449.55685,-806.3399,951.97693,-365.10992,-771.56152,917.36035
114,0.942,-402.61789,-767.32751,1037.01794,-444.78955,-805.12152,953.74683,-360.59103,-771.15173,918.28021
115,0.95,-396.62476,-767.3429,1036.79553,-439.22015,-804.44,955.24353,-355.76883,-772.21021,916.80426
116,0.958,-392.35876,-767.11639,1037.28015,-435.62036,-805.76685,955.07172,-351.49829,-772.7403,918.57214
117,0.967,-386.32944,-765.89825,1036.81104,-430.49005,-806.00873,956.48706,-346.54868,-773.41211,918.37726
118,0.975,-380.75995,-764.69464,1037.65283,-427.59482,-806.25299,958.65918,-343.63373,-772.47125,917.58911
119,0.983,-374.59641,-765.35382,1038.3103,-421.83725,-805.58673,959.38684,-338.99216,-774.34241,917.289
120,0.992,-369.86469,-766.23645,1037.78674,-416.86603,-806.25543,958.29364,-334.2515,-774.96106,917.67468
121,1,-365.7648,-766.83948,1037.93286,-413.46353,-807.11462,958.83252,-329.40604,-775.59222,918.25818
122,1.008,-360.31812,-767.15204,1037.48047,-408.00006,-805.56573,958.03357,-324.55841,-777.98315,917.4267
123,1.017,-355.13351,-768.36218,1036.57349,-403.19904,-806.00012,957.96405,-319.62723,-778.71045,915.9137
124,1.025,-351.06281,-769.06433,1036.37915,-399.39624,-806.75354,958.13098,-315.79895,-779.80145,915.73529
125,1.033,-345.3157,-770.71722,1036.59766,-395.25772,-806.78796,956.64484,-310.02768,-781.35065,914.44482
126,1.042,-339.73337,-771.13245,1035.26343,-391.30038,-806.77484,955.82751,-306.79599,-781.31805,913.79474
127,1.05,-335.33582,-772.40735,1034.89172,-385.66998,-807.27484,955.71613,-298.93826,-783.35284,913.44061
128,1.058,-329.33026,-773.17291,1034.32166,-381.18033,-807.3891,954.50592,-296.46112,-783.62036,912.20264
129,1.067,-324.50735,-773.84882,1033.5553,-376.22766,-806.81372,953.89282,-289.68478,-785.35272,912.15643
130,1.075,-318.95703,-773.52258,1032.60779,-370.34592,-808.17322,953.79791,-286.45987,-785.90387,910.68597
131,1.083,-312.46579,-775.44208,1032.36096,-365.6185,-808.68164,952.82019,-275.01825,-787.69519,910.48425
132,1.092,-306.9024,-774.31531,1030.57092,-360.26617,-808.63391,951.91357,-275.45068,-787.25848,908.11505
133,1.1,-301.22638,-774.12122,1029.6228,-355.53809,-809.349,951.66156,-269.5495,-788.28674,907.45166
134,1.108,-294.73206,-775.18768,1028.59778,-348.47815,-809.39124,950.17438,-264.52597,-787.67816,905.32813
135,1.117,-288.80429,-774.81921,1026.73926,-342.83029,-808.95697,949.36664,-258.36206,-789.82477,903.72601
136,1.125,-283.17429,-774.64087,1024.92139,-338.86087,-810.38367,948.60791,-253.99948,-790.60559,902.5965
137,1.133,-276.37067,-774.26379,1024.20837,-331.66232,-809.25549,946.42816,-249.82118,-789.375,901.17322
138,1.142,-272.41208,-775.20544,1024.21851,-325.41541,-810.08264,946.25903,-242.14667,-791.33313,899.90668
139,1.15,-263.2558,-774.50037,1023.36584,-320.13693,-811.03741,945.22803,-238.14673,-790.64417,897.64667
140,1.158,-257.39853,-776.16974,1020.73944,-314.72281,-810.20453,943.86633,-231.99327,-790.3205,896.22247
141,1.167,-251.21031,-775.93231,1019.60815,-308.85626,-810.58575,942.30945,-224.44385,-793.53717,895.60883
142,1.175,-244.94707,-775.83856,1017.42773,-302.20346,-809.44586,941.4364,-219.52176,-791.78955,895.0282
143,1.183,-239.24913,-777.5611,1015.95636,-296.60092,-810.30273,939.63629,-213.19275,-791.95093,893.23712
144,1.192,-231.95276,-777.35242,1014.07135,-290.54843,-810.33356,938.70258,-205.8983,-793.30658,891.29999
145,1.2,-225.26617,-778.18567,1013.52466,-284.18936,-811.04877,937.13422,-201.34831,-792.37732,889.03552
146,1.208,-218.96832,-778.87366,1011.88849,-276.63022,-812.3407,935.8559,-193.8903,-795.35205,887.71814
147,1.217,-211.62314,-781.08514,1011.14001,-270.15927,-811.40283,933.55396,-187.12521,-794.85645,886.31812
148,1.225,-204.11195,-781.34045,1009.91333,-263.02939,-811.66223,932.73077,-180.9014,-792.80841,885.49622
149,1.233,-197.01833,-782.55652,1007.91205,-256.87549,-811.7558,930.63989,-171.61111,-795.64539,883.24353
150,1.242,-190.55168,-782.90887,1005.73346,-249.30249,-811.55011,929.43262,-166.59474,-795.49738,880.54877
151,1.25,-180.93095,-784.46368,1004.72296,-241.80644,-812.38092,927.75879,-158.48068,-796.81702,880.66541
152,1.258,-174.09283,-785.30328,1003.29578,-234.62041,-812.6095,926.80652,-151.79126,-797.90521,878.7583
153,1.267,-164.65775,-785.97211,1002.05438,-226.21344,-814.53131,926.06055,-143.6064,-798.49158,877.4472
154,1.275,-157.01013,-786.52551,1001.64752,-217.34912,-815.13275,925.08185,-136.53072,-797.18842,876.35425
155,1.283,-148.57031,-787.22467,1000.17828,-209.99959,-816.20038,923.37762,-128.0894,-799.65002,875.17365
156,1.292,-139.72842,-788.79175,999.88757,-201.28471,-816.47888,923.28198,-120.90429,-798.95551,873.26575
157,1.3,-130.95847,-788.0293,998.85675,-193.06952,-818.28314,923.53754,-111.71555,-800.37256,872.43646
158,1.308,-121.88546,-790.62708,998.91406,-184.11937,-818.42401,922.95679,-103.34283,-800.48651,872.8606
159,1.317,-113.3174,-790.25641,998.92212,-175.73302,-819.01459,923.19543,-94.55374,-800.84778,872.08167
160,1.325,-103.27098,-791.43982,999.19049,-166.35313,-818.78418,923.54559,-86.22466,-802.42114,871.70789
161,1.333,-94.65811,-792.30762,999.44415,-157.46886,-819.93213,923.99762,-78.21647,-802.25409,872.44928
162,1.342,-86.4873,-792.33716,999.77563,-148.56308,-820.8233,924.25604,-68.29053,-803.51794,874.66864
163,1.35,-76.51459,-794.9751,1001.85791,-139.08322,-821.91547,925.71222,-59.43744,-801.91595,874.93188
164,1.358,-67.45325,-795.35913,1003.29144,-130.53151,-822.66901,926.84344,-49.15263,-803.72412,876.53937
165,1.367,-58.21469,-796.12561,1004.12341,-120.28743,-823.35211,928.37817,-39.56602,-803.28638,877.08014
166,1.375,-47.89947,-797.54016,1005.03955,-111.03632,-824.46539,929.82227,-30.53071,-803.88501,879.24982
167,1.383,-38.4073,-798.34607,1006.99176,-100.77285,-826.08368,930.88477,-20.78036,-805.29181,880.05975
168,1.392,-29.14507,-800.32733,1009.29919,-90.76247,-826.52295,931.89679,-9.13669,-806.9646,882.26178
169,1.4,-18.40127,-800.72211,1009.79144,-80.793,-828.84229,933.57336,1.87064,-808.16089,882.78278
170,1.408,-9.17628,-803.20081,1011.30133,-70.54059,-829.46686,934.56506,10.82858,-807.66052,884.95325
171,1.417,0.6783,-804.22449,1012.56311,-59.60077,-831.11652,935.67493,21.62512,-810.28546,887.23663
172,1.425,11.23821,-806.00055,1014.1037,-48.88369,-833.70355,936.00079,32.83256,-811.39874,888.67438
173,1.433,21.88462,-807.29871,1015.48029,-37.77912,-836.17621,937.35663,42.9837,-813.51068,889.22809
174,1.442,32.29774,-808.92114,1016.1817,-26.36668,-837.65234,938.36584,55.80312,-814.98584,890.22498
175,1.45,42.1957,-810.04486,1017.29999,-15.99019,-840.61682,939.11487,65.76588,-815.70551,892.23248
176,1.458,53.06369,-812.23615,1017.94812,-4.84168,-842.09363,939.98212,76.9357,-816.85968,893.39874
177,1.467,63.0689,-813.50525,1019.46033,8.04828,-845.33539,940.66327,89.57755,-818.50391,894.18292
178,1.475,74.00764,-815.74512,1020.16711,19.18049,-847.67816,941.83319,99.47015,-819.37592,895.20068
179,1.483,85.53126,-816.85693,1020.69165,31.06795,-849.84241,942.65692,111.68491,-821.0882,897.01648
180,1.492,97.04477,-817.63837,1021.69403,43.21982,-852.21045,942.66162,122.9028,-822.36292,897.33649
181,1.5,106.30685,-818.45642,1023.08038,54.00749,-855.06012,944.15314,134.79456,-823.69476,898.71973
182,1.508,117.27848,-820.29919,1023.5495,65.41167,-857.0838,945.02625,146.27831,-825.82996,899.67139
183,1.517,129.04015,-820.52271,1024.11072,77.43359,-859.20319,945.95728,158.45789,-826.92517,900.52887
184,1.525,140.10953,-822.23859,1025.85767,89.4241,-861.67377,946.60541,170.11273,-828.72516,902.07275
185,1.533,149.29681,-823.4198,1026.36926,101.31893,-863.34442,947.45514,183.00595,-829.89587,903.91431
186,1.542,160.16139,-824.00409,1027.28918,112.17202,-864.68427,947.59509,194.09322,-830.90173,904.86102
187,1.55,170.42166,-824.22314,1027.72827,124.80421,-865.57605,948.07928,205.79114,-830.13696,905.31049
188,1.558,181.23653,-825.35419,1028.35034,136.53636,-867.61127,949.37268,219.49728,-832.31958,908.89569
189,1.567,191.83777,-825.61798,1029.9231,147.534,-868.15765,950.18665,228.06403,-831.17279,908.14063
