Frame#,Time,L.Forearm.x,L.Forearm.y,L.Forearm.z,L.Ulna.x,L.Ulna.y,L.Ulna.z,L.Radius.x,L.Radius.y,L.Radius.z
1,0,-159.04416,323.18442,579.19873,-178.12018,358.16623,487.8418,-116.23612,326.90045,443.6207
2,0.008,-158.6472,322.98828,579.32642,-177.92732,358.40408,487.99918,-116.055,326.98578,443.55014
3,0.017,-158.6472,322.98828,579.32642,-177.2614,358.24908,488.146,-116.055,326.98578,443.55014
4,0.025,-158.62199,323.20163,580.01434,-177.31523,358.60718,488.51053,-115.88767,326.88623,443.63321
5,0.033,-158.58241,323.09326,580.10419,-177.17572,358.76157,489.01172,-115.75344,326.94,443.9118
6,0.042,-158.3842,323.05707,580.31372,-177.05569,358.66165,489.06128,-115.48066,326.91583,443.93271
7,0.05,-158.16753,323.03229,580.5235,-176.93567,358.39487,489.03137,-115.1637,326.74194,443.96814
8,0.058,-158.16753,323.03229,580.5235,-176.41203,358.52011,489.36639,-115.26848,326.80408,444.21173
9,0.067,-157.95081,323.00772,580.73328,-176.20599,358.37296,489.62521,-114.91039,326.52136,444.41022
10,0.075,-157.95081,323.00772,580.73328,-176.20599,358.37296,489.62521,-114.91039,326.52136,444.41022
11,0.083,-157.95081,323.00772,580.73328,-175.61165,358.40875,489.8699,-114.91039,326.52136,444.41022
12,0.092,-157.95081,323.00772,580.73328,-175.61165,358.40875,489.8699,-114.68114,326.57205,444.70175
13,0.1,-157.95081,323.00772,580.73328,-175.74185,358.30234,490.06717,-113.77242,326.01929,445.21985
14,0.108,-157.62195,322.47028,581.07892,-175.53751,358.27737,490.02313,-113.79643,325.90494,445.31497
15,0.117,-157.46683,322.20908,580.98584,-175.27873,358.47128,490.18576,-113.8894,325.79437,445.51901
16,0.125,-156.76369,322.37393,581.35321,-174.92839,358.37207,490.17181,-113.8894,325.79437,445.51901
17,0.133,-157.0697,321.86594,581.54547,-174.82521,358.54565,490.51184,-113.84608,325.86664,445.84927
18,0.142,-157.35025,321.19864,581.56256,-174.93347,358.41116,490.66614,-113.84608,325.86664,445.84927
19,0.15,-156.87231,321.27911,581.06323,-174.93347,358.41116,490.66614,-113.84608,325.86664,445.84927
20,0.158,-156.87231,321.27911,581.06323,-174.94363,358.43753,490.90088,-114.1412,325.25034,446.00644
21,0.167,-157.10989,321.37906,581.19366,-174.94363,358.43753,490.90088,-114.41418,325.17383,446.06985
22,0.175,-156.87231,321.27911,581.06323,-174.94363,358.43753,490.90088,-114.28445,325.11603,446.10812
23,0.183,-157.22337,321.28409,581.50226,-174.94363,358.43753,490.90088,-114.54816,325.03552,446.17438
24,0.192,-157.19698,321.0062,581.65668,-174.8983,358.22717,490.95218,-114.48352,324.60291,446.10318
25,0.2,-156.98579,321.1842,581.37183,-174.8983,358.22717,490.95218,-114.48352,324.60291,446.10318
26,0.208,-156.95937,320.90628,581.52625,-174.8983,358.22717,490.95218,-114.48352,324.60291,446.10318
27,0.217,-156.95937,320.90628,581.52625,-174.72476,358.19128,491.13904,-114.48352,324.60291,446.10318
28,0.225,-156.95937,320.90628,581.52625,-174.7355,358.02161,491.44287,-114.48352,324.60291,446.10318
29,0.233,-156.7813,320.84055,581.53656,-174.7355,358.02161,491.44287,-114.48352,324.60291,446.10318
30,0.242,-156.7813,320.84055,581.53656,-174.60011,358.10596,491.62637,-114.48352,324.60291,446.10318
31,0.25,-156.15125,320.70496,581.82495,-174.60011,358.10596,491.62637,-114.48352,324.60291,446.10318
32,0.258,-156.15125,320.70496,581.82495,-174.60011,358.10596,491.62637,-114.48352,324.60291,446.10318
33,0.267,-155.9137,320.60526,581.69452,-174.7355,358.02161,491.44287,-114.48352,324.60291,446.10318
34,0.275,-155.9137,320.60526,581.69452,-174.60011,358.10596,491.62637,-114.48352,324.60291,446.10318
35,0.283,-155.9137,320.60526,581.69452,-173.97949,358.44162,491.64841,-114.48352,324.60291,446.10318
36,0.292,-155.9137,320.60526,581.69452,-174.36351,357.98209,491.64203,-114.48352,324.60291,446.10318
37,0.3,-155.9137,320.60526,581.69452,-174.71455,357.84012,491.89417,-114.69298,324.55118,446.14709
38,0.308,-155.9137,320.60526,581.69452,-175.12643,357.2713,492.19046,-114.73588,324.2059,446.31223
39,0.317,-155.9137,320.60526,581.69452,-174.26506,358.04663,491.96451,-114.5264,324.25766,446.26828
40,0.325,-155.87836,320.3653,581.83698,-174.26506,358.04663,491.96451,-114.48352,324.60291,446.10318
41,0.333,-155.74704,320.54971,582.08813,-174.03403,358.23749,492.02252,-114.73588,324.2059,446.31223
42,0.342,-155.74704,320.54971,582.08813,-173.9606,357.98291,492.05029,-114.5264,324.25766,446.26828
43,0.35,-155.74704,320.54971,582.08813,-173.9606,357.98291,492.05029,-114.5264,324.25766,446.26828
44,0.358,-155.54878,320.51309,582.29773,-173.9606,357.98291,492.05029,-114.73588,324.2059,446.31223
45,0.367,-155.4493,320.51318,582.64838,-173.60538,357.98602,492.45987,-114.42247,324.13654,446.35336
46,0.375,-155.08087,320.40176,582.65759,-173.60538,357.98602,492.45987,-114.21282,324.09332,446.37878
47,0.383,-155.2121,320.21722,582.40649,-173.60631,357.892,492.54373,-114.42247,324.13654,446.35336
48,0.392,-155.08087,320.40176,582.65759,-173.60538,357.98602,492.45987,-114.24395,323.96713,446.47174
49,0.4,-155.08087,320.40176,582.65759,-173.5444,357.88455,492.53033,-114.41614,324.05716,446.41101
50,0.408,-154.87883,319.98392,582.59351,-173.61084,357.6171,492.68781,-114.24395,323.96713,446.47174
51,0.417,-155.08087,320.40176,582.65759,-173.38951,357.7229,492.62421,-114.24395,323.96713,446.47174
52,0.425,-154.87883,319.98392,582.59351,-173.61084,357.6171,492.68781,-114.24395,323.96713,446.47174
53,0.433,-154.87883,319.98392,582.59351,-173.45944,357.5498,492.69879,-114.24395,323.96713,446.47174
54,0.442,-154.81468,319.82352,582.9126,-173.30432,357.31573,492.59805,-114.24395,323.96713,446.47174
55,0.45,-154.97482,319.2283,582.23535,-173.30432,357.31573,492.59805,-114.24395,323.96713,446.47174
56,0.458,-155.0811,319.22461,582.09595,-173.45944,357.5498,492.69879,-114.24395,323.96713,446.47174
57,0.467,-155.0858,319.84787,582.96783,-173.43196,357.0694,492.80566,-114.24395,323.96713,446.47174
58,0.475,-154.90158,319.77417,582.98352,-173.55888,357.11914,492.96902,-114.24395,323.96713,446.47174
59,0.483,-155.48074,318.72757,582.84534,-173.43196,357.0694,492.80566,-114.24395,323.96713,446.47174
60,0.492,-154.91335,319.67538,583.07916,-173.58635,357.59958,492.86215,-114.24395,323.96713,446.47174
61,0.5,-154.79512,319.66586,583.05408,-173.55888,357.11914,492.96902,-114.24395,323.96713,446.47174
62,0.508,-154.81535,319.56784,583.15155,-173.55888,357.11914,492.96902,-114.24395,323.96713,446.47174
63,0.517,-155.0858,319.84787,582.96783,-173.55888,357.11914,492.96902,-114.24395,323.96713,446.47174
64,0.525,-154.91731,319.47617,583.18555,-173.55888,357.11914,492.96902,-114.24395,323.96713,446.47174
65,0.533,-154.91731,319.47617,583.18555,-173.55888,357.11914,492.96902,-114.24395,323.96713,446.47174
66,0.542,-154.91731,319.47617,583.18555,-173.53256,357.04858,493.28082,-114.24395,323.96713,446.47174
67,0.55,-154.91731,319.47617,583.18555,-173.69688,357.11478,493.4826,-114.24395,323.96713,446.47174
68,0.558,-154.91731,319.47617,583.18555,-173.89847,357.18774,493.64688,-114.24395,323.96713,446.47174
69,0.567,-154.91731,319.47617,583.18555,-173.56638,357.22119,493.28528,-114.24395,323.96713,446.47174
70,0.575,-154.91731,319.47617,583.18555,-173.56638,357.22119,493.28528,-114.24395,323.96713,446.47174
71,0.583,-154.91731,319.47617,583.18555,-173.69688,357.11478,493.4826,-114.38477,324.24026,446.70926
72,0.592,-154.91731,319.47617,583.18555,-174.05528,357.15198,493.53241,-114.38477,324.24026,446.70926
73,0.6,-154.91731,319.47617,583.18555,-173.89847,357.18774,493.64688,-114.38477,324.24026,446.70926
74,0.608,-154.91731,319.47617,583.18555,-173.89847,357.18774,493.64688,-114.38477,324.24026,446.70926
75,0.617,-155.11972,319.42108,583.44507,-173.89847,357.18774,493.64688,-114.45642,323.99536,446.87759
76,0.625,-154.91209,319.32733,583.31781,-173.89847,357.18774,493.64688,-114.45642,323.99536,446.87759
77,0.633,-155.11972,319.42108,583.44507,-173.85388,357.47577,493.76947,-114.45642,323.99536,446.87759
78,0.642,-155.11972,319.42108,583.44507,-173.89847,357.18774,493.64688,-114.45642,323.99536,446.87759
79,0.65,-155.11972,319.42108,583.44507,-173.53622,357.38791,493.77814,-114.45642,323.99536,446.87759
80,0.658,-155.1335,319.25574,583.54163,-173.53622,357.38791,493.77814,-114.45642,323.99536,446.87759
81,0.667,-155.08899,319.27527,583.77417,-173.53622,357.38791,493.77814,-114.45642,323.99536,446.87759
82,0.675,-154.89424,319.21985,583.96942,-173.51363,357.40326,493.9902,-114.45642,323.99536,446.87759
83,0.683,-154.89424,319.21985,583.96942,-173.37366,357.39688,494.15778,-114.45642,323.99536,446.87759
84,0.692,-154.89424,319.21985,583.96942,-173.11757,357.68253,494.19534,-114.45642,323.99536,446.87759
85,0.7,-154.87546,319.12814,584.05414,-173.11757,357.68253,494.19534,-114.45642,323.99536,446.87759
86,0.708,-154.87546,319.12814,584.05414,-172.73938,357.35077,494.09134,-114.45642,323.99536,446.87759
87,0.717,-154.66408,319.08224,584.24939,-172.73938,357.35077,494.09134,-114.44366,324.0007,447.34299
88,0.725,-154.43532,319.01031,584.24719,-172.73938,357.35077,494.09134,-114.40591,324.09561,447.70425
89,0.733,-154.26982,318.92017,584.28345,-172.73938,357.35077,494.09134,-114.01104,324.064,447.69476
90,0.742,-154.26982,318.92017,584.28345,-172.73938,357.35077,494.09134,-113.38654,323.90869,447.76141
91,0.75,-154.21664,318.82794,584.35785,-172.51146,357.29959,494.2124,-113.38654,323.90869,447.76141
92,0.758,-154.21664,318.82794,584.35785,-172.37845,357.48077,494.41235,-113.66943,324.15549,448.12411
93,0.767,-154.21664,318.82794,584.35785,-172.37845,357.48077,494.41235,-113.66943,324.15549,448.12411
94,0.775,-154.00525,318.78214,584.5531,-171.84537,357.4191,494.72214,-113.40298,323.64774,447.83792
95,0.783,-154.00525,318.78214,584.5531,-171.84537,357.4191,494.72214,-113.40298,323.64774,447.83792
96,0.792,-154.00525,318.78214,584.5531,-171.73503,357.22058,494.80807,-113.40298,323.64774,447.83792
97,0.8,-154.00525,318.78214,584.5531,-171.43846,357.12604,494.69217,-112.92699,323.42123,448.67575
98,0.808,-154.00525,318.78214,584.5531,-171.43925,356.87222,494.83847,-112.57354,323.51288,448.89746
99,0.817,-154.00525,318.78214,584.5531,-171.19992,356.79135,494.69882,-112.57354,323.51288,448.89746
100,0.825,-154.00525,318.78214,584.5531,-171.19992,356.79135,494.69882,-112.57354,323.51288,448.89746
101,0.833,-153.41122,318.48276,584.37109,-171.00743,357.02979,494.85602,-112.57354,323.51288,448.89746
102,0.842,-153.64928,318.65213,584.53778,-170.98489,357.04523,495.06802,-112.3306,323.47778,448.91589
103,0.85,-153.64928,318.65213,584.53778,-170.98489,357.04523,495.06802,-112.3306,323.47778,448.91589
104,0.858,-153.53912,318.45474,584.9588,-170.66731,356.95795,495.07672,-112.25265,323.94656,449.47067
105,0.867,-153.53912,318.45474,584.9588,-170.66731,356.95795,495.07672,-112.27599,324.62701,448.88434
106,0.875,-153.35081,318.67386,585.16309,-170.66731,356.95795,495.07672,-112.27599,324.62701,448.88434
107,0.883,-153.35081,318.67386,585.16309,-170.66731,356.95795,495.07672,-112.27599,324.62701,448.88434
108,0.892,-153.35081,318.67386,585.16309,-170.55943,356.8873,495.3569,-112.41662,323.37918,449.0332
109,0.9,-153.06642,318.55911,585.07983,-170.55943,356.8873,495.3569,-112.41662,323.37918,449.0332
110,0.908,-153.06642,318.55911,585.07983,-170.55943,356.8873,495.3569,-112.1714,323.13849,449.44818
111,0.917,-153.06642,318.55911,585.07983,-170.30907,357.35794,495.49838,-112.1714,323.13849,449.44818
112,0.925,-153.06642,318.55911,585.07983,-169.85719,357.48517,495.64478,-111.87295,322.86865,449.2735
113,0.933,-153.06642,318.55911,585.07983,-169.85719,357.48517,495.64478,-112.0269,322.61572,449.38519
114,0.942,-153.06642,318.55911,585.07983,-169.61266,357.73853,495.5723,-111.59961,323.01999,449.63492
115,0.95,-153.06642,318.55911,585.07983,-169.37376,359.08322,496.32147,-109.72497,324.61096,451.00598
116,0.958,-152.72009,318.94733,584.98248,-168.84715,359.10541,496.60956,-109.72497,324.61096,451.00598
117,0.967,-152.72009,318.94733,584.98248,-168.70012,359.08408,496.79858,-109.45694,324.66028,451.26053
118,0.975,-152.42534,319.13394,585.10126,-168.63419,358.29382,496.70932,-109.43414,324.23367,451.27097
119,0.983,-151.87685,318.31287,585.62848,-169.45329,357.33417,497.64191,-109.43414,324.23367,451.27097
120,0.992,-151.74585,318.20746,585.6908,-169.45329,357.33417,497.64191,-109.43414,324.23367,451.27097
121,1,-151.53304,318.72205,585.72284,-169.45329,357.33417,497.64191,-109.43414,324.23367,451.27097
122,1.008,-151.34296,318.67984,585.70361,-169.45329,357.33417,497.64191,-109.56342,323.05472,450.93549
123,1.017,-151.07831,318.50409,585.89545,-169.45329,357.33417,497.64191,-109.41239,324.09882,451.36871
124,1.025,-151.07831,318.50409,585.89545,-169.29068,357.27747,497.80081,-109.56342,323.05472,450.93549
125,1.033,-151.07831,318.50409,585.89545,-169.29068,357.27747,497.80081,-109.56342,323.05472,450.93549
126,1.042,-151.07831,318.50409,585.89545,-169.29068,357.27747,497.80081,-109.52596,323.15002,451.29642
127,1.05,-151.07831,318.50409,585.89545,-169.12901,357.20621,497.79837,-109.65147,322.92053,451.03613
128,1.058,-151.07831,318.50409,585.89545,-169.12901,357.20621,497.79837,-109.61402,323.01581,451.39703
129,1.067,-151.07831,318.50409,585.89545,-169.12901,357.20621,497.79837,-109.61402,323.01581,451.39703
130,1.075,-151.07831,318.50409,585.89545,-169.12901,357.20621,497.79837,-109.61402,323.01581,451.39703
131,1.083,-151.07831,318.50409,585.89545,-169.12901,357.20621,497.79837,-109.61402,323.01581,451.39703
132,1.092,-151.07831,318.50409,585.89545,-169.12901,357.20621,497.79837,-109.61402,323.01581,451.39703
133,1.1,-151.07831,318.50409,585.89545,-169.12901,357.20621,497.79837,-109.61402,323.01581,451.39703
134,1.108,-151.07831,318.50409,585.89545,-169.12901,357.20621,497.79837,-109.61402,323.01581,451.39703
135,1.117,-151.07831,318.50409,585.89545,-169.12901,357.20621,497.79837,-109.61402,323.01581,451.39703
136,1.125,-151.07831,318.50409,585.89545,-169.31061,357.12943,497.88638,-109.61402,323.01581,451.39703
137,1.133,-151.07831,318.50409,585.89545,-169.14894,357.05814,497.88391,-109.59702,322.86188,451.50912
138,1.142,-151.27113,318.54227,585.91956,-169.12901,357.20621,497.79837,-109.61402,323.01581,451.39703
139,1.15,-151.27113,318.54227,585.91956,-169.31061,357.12943,497.88638,-109.61402,323.01581,451.39703
140,1.158,-151.07831,318.50409,585.89545,-169.42039,357.05231,498.14941,-109.59702,322.86188,451.50912
141,1.167,-151.07831,318.50409,585.89545,-169.42039,357.05231,498.14941,-109.61402,323.01581,451.39703
142,1.175,-151.07831,318.50409,585.89545,-169.64157,356.81326,498.15186,-109.61402,323.01581,451.39703
143,1.183,-151.23097,318.48846,586.21991,-169.82631,356.89291,498.29553,-109.61402,323.01581,451.39703
144,1.192,-151.07831,318.50409,585.89545,-169.76147,357.20282,498.4628,-109.61402,323.01581,451.39703
145,1.2,-151.27113,318.54227,585.91956,-169.76147,357.20282,498.4628,-109.61402,323.01581,451.39703
146,1.208,-151.27113,318.54227,585.91956,-169.86249,357.17792,498.5271,-109.72812,323.06076,451.73627
147,1.217,-151.23613,318.6937,586.53589,-169.86249,357.17792,498.5271,-109.59702,322.86188,451.50912
148,1.225,-151.23613,318.6937,586.53589,-170.08366,356.93881,498.5296,-109.72812,323.06076,451.73627
149,1.233,-151.23613,318.6937,586.53589,-170.29221,356.98279,498.5762,-109.72812,323.06076,451.73627
150,1.242,-151.5825,318.30533,586.63342,-170.08366,356.93881,498.5296,-109.72812,323.06076,451.73627
151,1.25,-151.45985,318.79095,586.64691,-170.29221,356.98279,498.5762,-109.72812,323.06076,451.73627
152,1.258,-151.42992,318.84097,587.15295,-170.29221,356.98279,498.5762,-109.72812,323.06076,451.73627
153,1.267,-151.42992,318.84097,587.15295,-170.09322,356.95627,498.72964,-109.72812,323.06076,451.73627
154,1.275,-151.42992,318.84097,587.15295,-170.08366,356.93881,498.5296,-109.72812,323.06076,451.73627
155,1.283,-151.42992,318.84097,587.15295,-170.30174,357.00021,498.77625,-109.72812,323.06076,451.73627
156,1.292,-151.42992,318.84097,587.15295,-170.27213,356.89642,498.85791,-109.57719,324.10477,452.16919
157,1.3,-151.22607,318.89566,587.28375,-170.27213,356.89642,498.85791,-109.57719,324.10477,452.16919
158,1.308,-151.55202,318.81055,587.22235,-170.13132,356.97461,499.23434,-109.57719,324.10477,452.16919
159,1.317,-151.42992,318.84097,587.15295,-170.22078,357.147,499.45035,-109.72812,323.06076,451.73627
160,1.325,-151.22607,318.89566,587.28375,-170.0795,356.8623,498.80896,-109.57719,324.10477,452.16919
161,1.333,-151.22607,318.89566,587.28375,-170.16898,357.03476,499.02499,-109.72812,323.06076,451.73627
162,1.342,-151.42992,318.84097,587.15295,-170.27213,356.89642,498.85791,-109.57719,324.10477,452.16919
163,1.35,-151.42992,318.84097,587.15295,-170.30174,357.00021,498.77625,-109.57719,324.10477,452.16919
164,1.358,-151.42992,318.84097,587.15295,-170.30174,357.00021,498.77625,-109.57719,324.10477,452.16919
165,1.367,-151.69722,318.53723,587.09961,-170.29221,356.98279,498.5762,-109.72812,323.06076,451.73627
166,1.375,-151.80624,318.40259,586.74445,-170.29221,356.98279,498.5762,-109.74512,323.21469,451.62421
167,1.383,-151.45985,318.79095,586.64691,-170.42618,356.99841,498.46609,-109.57719,324.10477,452.16919
168,1.392,-151.4547,318.58578,586.33093,-170.42618,356.99841,498.46609,-109.74512,323.21469,451.62421
169,1.4,-151.49486,318.63959,586.03058,-170.42618,356.99841,498.46609,-109.74512,323.21469,451.62421
170,1.408,-151.98991,318.35352,586.07434,-170.59627,356.83035,498.45383,-109.61402,323.01581,451.39703
171,1.417,-152.05432,318.08633,586.06165,-170.74678,356.64688,498.32462,-109.74512,323.21469,451.62421
172,1.425,-152.52875,318.34976,585.75037,-170.74678,356.64688,498.32462,-109.74512,323.21469,451.62421
173,1.433,-152.52875,318.34976,585.75037,-169.95825,357.10593,497.19287,-110.18318,323.23978,451.59879
174,1.442,-153.48854,318.37054,585.4964,-170.77647,356.74554,498.01816,-112.27949,321.10663,450.5101
175,1.45,-153.67673,318.82227,585.41693,-170.77647,356.74554,498.01816,-112.27949,321.10663,450.5101
176,1.458,-153.67673,318.82227,585.41693,-171.06363,356.79114,497.75607,-112.2195,322.44336,450.76266
177,1.467,-153.67673,318.82227,585.41693,-171.53296,356.72479,497.34045,-112.68768,321.46292,450.24402
178,1.475,-153.67673,318.82227,585.41693,-171.53296,356.72479,497.34045,-112.22029,321.68271,450.70596
179,1.483,-153.67673,318.82227,585.41693,-171.6709,356.83371,497.2991,-112.60229,321.66122,450.52414
180,1.492,-153.67673,318.82227,585.41693,-171.6709,356.83371,497.2991,-112.60229,321.66122,450.52414
181,1.5,-153.8495,318.67523,585.48297,-171.6709,356.83371,497.2991,-112.86938,321.66229,450.53079
182,1.508,-153.86505,318.60318,585.21271,-172.06033,356.91736,497.32935,-113.03376,322.70901,450.61551
183,1.517,-154.03784,318.45615,585.27875,-172.23282,356.89413,496.95822,-113.11217,321.59274,449.94089
184,1.525,-154.21666,318.72647,585.19427,-172.42235,357.10657,497.35019,-113.25388,322.82108,450.2511
185,1.533,-154.38948,318.57944,585.26031,-172.42235,357.10657,497.35019,-113.25388,322.82108,450.2511
186,1.542,-154.51309,318.54996,585.3291,-172.55276,356.77805,496.80865,-113.25388,322.82108,450.2511
187,1.55,-154.51309,318.54996,585.3291,-172.55276,356.77805,496.80865,-113.25168,323.16428,450.20422
188,1.558,-154.85046,318.61185,585.3761,-172.55276,356.77805,496.80865,-113.21196,323.47867,451.37271
189,1.567,-154.85046,318.61185,585.3761,-172.55276,356.77805,496.80865,-113.54198,323.20282,450.26877
190,1.575,-154.70483,318.62155,585.31964,-172.55276,356.77805,496.80865,-113.80183,324.01071,450.09021
191,1.583,-154.85046,318.61185,585.3761,-172.84036,356.4761,496.86417,-113.80183,324.01071,450.09021
192,1.592,-154.85046,318.61185,585.3761,-172.942,356.5191,496.92877,-113.96226,324.25839,449.66769
193,1.6,-154.85046,318.61185,585.3761,-173.52408,357.21521,497.1868,-114.05956,324.29404,449.27634
194,1.608,-154.86971,318.58429,585.15411,-173.52408,357.21521,497.1868,-114.18834,324.19061,449.35547
195,1.617,-155.07788,318.63455,584.99585,-173.24985,356.64551,496.94373,-114.02287,324.44263,449.16708
196,1.625,-155.07788,318.63455,584.99585,-173.75815,357.05988,496.59885,-114.15781,324.3421,449.24417
