Frame#,Time,R.Forearm.x,R.Forearm.y,R.Forearm.z,R.Ulna.x,R.Ulna.y,R.Ulna.z,R.Radius.x,R.Radius.y,R.Radius.z
1,0,-1568.34058,-254.57938,948.55414,-1616.06677,-278.12405,859.06982,-1543.20178,-246.20491,843.60822
2,0.008,-1561.74207,-254.48338,945.58124,-1612.34497,-278.83057,858.63263,-1539.67224,-245.87132,843.48108
3,0.017,-1556.94409,-253.81702,945.96167,-1605.94812,-278.17288,858.15863,-1534.36194,-244.69594,841.87024
4,0.025,-1554.10376,-254.30916,945.6554,-1599.96765,-277.13153,857.74298,-1526.97815,-244.75404,838.93677
5,0.033,-1546.71436,-252.81831,944.74115,-1595.0033,-278.07025,857.34937,-1523.01404,-246.30104,839.39496
6,0.042,-1541.8103,-251.24323,943.37537,-1590.57727,-278.71838,857.06116,-1519.1947,-244.28043,837.12183
7,0.05,-1538.82971,-251.29225,943.23438,-1584.20276,-277.51453,856.0025,-1514.74011,-243.89838,837.48907
8,0.058,-1531.81494,-252.98512,942.84796,-1578.88171,-277.12378,855.79529,-1510.44824,-244.04665,837.00153
9,0.067,-1525.51074,-253.14127,941.99255,-1575.67444,-277.20145,855.05365,-1504.06079,-243.83871,835.73145
10,0.075,-1520.64087,-251.49025,941.94788,-1571.55444,-276.87631,854.12964,-1501.9115,-243.2858,834.71777
11,0.083,-1517.72437,-251.43266,941.76599,-1565.27954,-276.44714,854.11133,-1494.00415,-242.11716,834.50226
12,0.092,-1512.57471,-249.03822,941.18164,-1561.9845,-275.60938,853.42236,-1491.55164,-240.19101,834.58234
13,0.1,-1508.43372,-249.05518,941.29486,-1556.71008,-274.72043,853.0224,-1485.22266,-241.56787,834.30206
14,0.108,-1504.34521,-249.64253,940.83136,-1551.66943,-273.93634,852.06781,-1481.69702,-239.08931,833.23242
15,0.117,-1497.68079,-247.65213,940.57806,-1546.20679,-273.27066,851.23596,-1476.92798,-238.57082,832.14795
16,0.125,-1493.43347,-247.25,939.53394,-1543.04578,-271.91656,850.28375,-1471.22009,-237.45207,832.15741
17,0.133,-1489.7605,-245.12959,937.77991,-1538.6394,-272.78696,850.26752,-1466.47095,-237.00424,830.2027
18,0.142,-1484.54382,-243.78778,936.56299,-1532.99316,-271.25113,849.05859,-1462.54175,-237.22757,829.56506
19,0.15,-1477.349,-246.49547,936.95746,-1527.51294,-270.20926,846.91144,-1458.35071,-234.94,829.26996
20,0.158,-1473.04492,-245.60384,936.63452,-1523.36682,-271.11777,847.56128,-1452.31201,-235.33495,829.33167
21,0.167,-1470.24963,-244.84451,934.58881,-1517.27307,-268.48032,846.49121,-1450.53418,-234.4317,829.16791
22,0.175,-1465.24548,-243.17331,933.39758,-1514.18201,-267.21725,845.84027,-1443.50403,-234.03889,827.19763
23,0.183,-1461.57544,-242.4035,932.85565,-1511.98755,-267.57138,845.31281,-1439.20581,-232.3494,825.94403
24,0.192,-1457.0022,-242.28044,931.40106,-1505.28198,-265.99258,842.95801,-1432.44141,-232.877,825.19104
25,0.2,-1452.02441,-240.53661,930.61273,-1500.03076,-265.74622,841.66797,-1430.72571,-230.03183,823.4613
26,0.208,-1447.41431,-239.8495,929.36853,-1496.00073,-265.54773,841.10236,-1426.19214,-229.52689,823.70502
27,0.217,-1443.1123,-239.41576,927.8808,-1490.95532,-263.41284,840.25842,-1421.98022,-229.26993,822.32727
28,0.225,-1438.81372,-237.1752,927.16022,-1487.88074,-263.59348,840.1507,-1415.40027,-228.17479,821.40155
29,0.233,-1432.10156,-236.72618,926.77698,-1481.25684,-261.53189,838.6098,-1411.28918,-229.17854,821.07629
30,0.242,-1424.55994,-238.06737,925.47614,-1478.09509,-260.64893,838.90765,-1404.78772,-228.51151,819.9823
31,0.25,-1419.87439,-237.00214,926.03198,-1472.36707,-260.31113,836.70935,-1401.42932,-226.96637,818.25574
32,0.258,-1415.70886,-235.45105,924.14923,-1465.4751,-258.93066,836.41956,-1397.09253,-224.58868,816.74121
33,0.267,-1410.55627,-233.38132,923.88342,-1463.12036,-258.40396,835.63721,-1390.91602,-224.02861,813.37573
34,0.275,-1403.88086,-233.22089,922.33929,-1457.64844,-257.77774,834.8844,-1386.39172,-223.73048,813.46228
35,0.283,-1399.18604,-231.28229,920.98743,-1452.89429,-256.39233,834.81598,-1381.32056,-221.58772,813.401
36,0.292,-1394.22412,-230.0106,919.63202,-1447.6521,-255.41513,835.03186,-1374.50854,-221.41461,812.36658
37,0.3,-1389.28589,-228.30745,919.68243,-1440.19629,-254.60446,834.03229,-1372.31506,-219.90141,812.01447
38,0.308,-1383.93835,-226.79999,919.63245,-1434.27991,-254.42833,834.16351,-1363.71497,-218.90161,811.76727
39,0.317,-1377.49023,-225.47534,920.69232,-1429.53467,-253.6541,834.65527,-1360.98926,-217.4809,811.41595
40,0.325,-1369.69763,-224.27046,922.11163,-1423.62231,-251.0638,834.60297,-1353.20447,-215.90952,811.50458
41,0.333,-1364.95715,-223.55466,920.63116,-1418.37878,-251.40977,835.02521,-1351.16443,-215.05823,811.35394
42,0.342,-1360.26404,-221.54797,923.00769,-1411.927,-249.41762,835.87531,-1343.7655,-215.52916,812.32001
43,0.35,-1354.59753,-218.71143,922.27008,-1406.39844,-248.92947,837.00848,-1339.99487,-212.78827,813.05487
44,0.358,-1350.35547,-218.32748,923.91895,-1401.19617,-247.65913,838.83417,-1332.71619,-213.57126,814.38678
45,0.367,-1343.33521,-215.94565,923.22137,-1395.06848,-247.13374,839.32074,-1327.09546,-210.42938,814.66309
46,0.375,-1336.78796,-217.39171,925.94122,-1391.4751,-245.29573,841.9295,-1321.06067,-210.01732,816.21777
47,0.383,-1329.22571,-217.2831,929.19617,-1385.14355,-244.00058,843.203,-1313.52869,-208.45178,817.3454
48,0.392,-1324.97998,-215.65211,929.00153,-1380.34143,-242.62097,844.75305,-1311.16675,-207.57869,818.78497
49,0.4,-1319.21436,-213.74969,930.4151,-1375.099,-242.48347,846.28174,-1305.29285,-206.96997,821.18286
50,0.408,-1314.12402,-214.16882,931.03839,-1368.60168,-241.25594,847.20654,-1299.81714,-205.73209,822.65045
51,0.417,-1308.43982,-213.74208,933.93115,-1363.61731,-239.1389,848.51587,-1293.94751,-205.39363,824.48462
52,0.425,-1302.09985,-210.58649,934.84912,-1357.9071,-238.44115,850.41144,-1289.27173,-203.72887,825.91901
53,0.433,-1298.20593,-210.62859,936.28931,-1352.69751,-237.02954,852.25385,-1283.49658,-202.46397,827.56531
54,0.442,-1293.53247,-207.6147,938.12909,-1347.82043,-236.56407,853.6673,-1279.11755,-202.86682,829.97742
55,0.45,-1287.51221,-206.38225,940.51477,-1342.84192,-235.16136,854.76013,-1273.14514,-201.39885,831.09875
56,0.458,-1283.79077,-206.03642,941.95264,-1339.34924,-232.92494,858.17908,-1268.26416,-202.58159,832.13647
57,0.467,-1278.99243,-203.38559,942.72833,-1333.99683,-230.51756,858.65253,-1263.45569,-201.71062,833.61456
58,0.475,-1273.55408,-202.51324,943.22375,-1330.4303,-229.63481,859.28296,-1256.62219,-199.95488,834.39136
59,0.483,-1267.94043,-201.0246,944.20398,-1325.60095,-227.93964,860.26721,-1253.7522,-199.51126,836.1825
60,0.492,-1264.00305,-200.06549,944.77069,-1320.71301,-226.67973,861.4259,-1248.54346,-199.49939,837.14307
61,0.5,-1260.26086,-200.30569,945.39972,-1315.44092,-224.8622,862.71179,-1244.50427,-196.75082,837.20251
62,0.508,-1254.28564,-198.43318,946.61035,-1310.78979,-223.12309,862.10132,-1238.88098,-197.18347,838.29321
63,0.517,-1249.76208,-197.06279,947.23755,-1307.73291,-221.34421,863.24225,-1234.76184,-195.40569,837.96741
64,0.525,-1245.64075,-196.05078,947.46521,-1302.55896,-221.19344,863.38165,-1230.04102,-193.45598,838.34546
65,0.533,-1239.75427,-194.92014,947.53528,-1297.99158,-219.14787,863.72015,-1226.00781,-192.91815,839.53094
66,0.542,-1236.03381,-194.36067,948.73877,-1293.92419,-217.99409,864.67133,-1221.04443,-190.21298,838.4978
67,0.55,-1230.19604,-192.96484,948.94305,-1289.09485,-216.60684,864.59717,-1217.39148,-190.2704,839.61072
68,0.558,-1225.99805,-191.84146,949.56165,-1285.09351,-215.63751,865.18701,-1213.68884,-188.57564,840.08527
69,0.567,-1221.74622,-190.31529,949.63092,-1279.89014,-214.7899,866.18872,-1207.52759,-187.59464,840.14966
70,0.575,-1217.05139,-186.76495,949.92102,-1274.57288,-213.49016,866.44238,-1203.94263,-186.1292,841.31757
71,0.583,-1213.09534,-187.0347,950.88855,-1270.61621,-213.4039,867.362,-1197.72278,-184.43042,842.31281
72,0.592,-1208.953,-185.27779,951.56104,-1266.01843,-212.0302,868.26892,-1194.95276,-183.3042,843.52515
73,0.6,-1204.271,-186.88148,952.47992,-1261.52368,-211.23331,868.51825,-1191.07581,-183.26582,843.50305
74,0.608,-1200.15393,-185.36188,953.65753,-1257.36768,-210.44592,869.21368,-1185.70313,-179.40564,843.77802
75,0.617,-1195.93469,-184.50829,953.52881,-1253.17261,-209.21227,869.23328,-1182.12048,-179.0784,843.72144
76,0.625,-1192.224,-183.75046,953.73157,-1249.23511,-207.74826,869.83606,-1178.37744,-178.6376,843.86438
77,0.633,-1188.43616,-182.70387,953.77789,-1245.68115,-208.02136,869.65503,-1173.69348,-176.72575,844.08124
78,0.642,-1185.30371,-182.51874,953.98712,-1241.49707,-206.87265,869.95288,-1169.95813,-178.70067,843.54559
79,0.65,-1181.08472,-179.86427,953.64966,-1237.64465,-205.32922,870.08728,-1167.22168,-179.0889,843.84351
80,0.658,-1177.52576,-180.58507,953.81458,-1234.61218,-206.43394,870.26819,-1161.68689,-177.86607,844.05859
81,0.667,-1173.69177,-180.79445,953.62433,-1230.53186,-204.23497,870.13525,-1159.01904,-176.87608,844.27966
82,0.675,-1170.54468,-179.84123,953.73822,-1226.97083,-203.58289,868.8219,-1155.76355,-176.44255,843.82996
83,0.683,-1165.9834,-178.19754,952.66895,-1224.10901,-202.51561,868.38934,-1152.52881,-177.53061,843.76495
84,0.692,-1162.90442,-179.6115,952.75385,-1221.37439,-202.47926,868.53448,-1148.81226,-175.63803,843.84485
85,0.7,-1159.65808,-178.93198,951.55713,-1217.9447,-202.17499,868.75439,-1145.2865,-175.66339,843.71777
86,0.708,-1156.82532,-179.78473,951.59644,-1214.55737,-201.38805,868.18903,-1143.03308,-175.60193,842.78894
87,0.717,-1151.71863,-178.78246,950.87238,-1210.8374,-200.70007,867.73206,-1138.58301,-175.92001,842.85657
88,0.725,-1148.77966,-178.6019,950.91656,-1207.04858,-201.52538,868.07574,-1135.9198,-176.09583,842.43359
89,0.733,-1145.10291,-178.48636,950.83508,-1204.41602,-201.56677,868.10095,-1130.81018,-177.03714,842.06622
90,0.742,-1142.37915,-178.72447,950.64191,-1200.62463,-201.74933,868.21442,-1128.38452,-176.48457,841.80664
91,0.75,-1136.98364,-177.14668,949.93408,-1197.53967,-200.10304,868.23822,-1125.33142,-176.24834,840.94775
92,0.758,-1132.80054,-178.60866,949.64899,-1193.6355,-201.41599,867.63672,-1123.07349,-176.44246,841.09186
93,0.767,-1129.70154,-180.34137,949.08716,-1190.32104,-201.45769,867.64459,-1119.89526,-176.20714,840.3399
94,0.775,-1125.67065,-180.30927,948.70264,-1186.69324,-202.69391,866.30444,-1113.90686,-174.94075,838.94287
95,0.783,-1122.14282,-180.67062,948.11218,-1182.22571,-202.63406,866.10925,-1109.9624,-177.08287,837.99182
96,0.792,-1116.88123,-178.94556,947.81653,-1178.27722,-202.77789,865.95618,-1107.30212,-177.45056,838.14636
97,0.8,-1113.19202,-181.18568,947.229,-1175.17041,-203.44902,865.40204,-1103.67834,-178.68346,837.48938
98,0.808,-1109.73547,-182.70786,946.74414,-1170.69177,-205.14607,864.50885,-1100.82751,-178.90927,836.1814
99,0.817,-1104.41931,-183.69998,945.51434,-1166.54785,-206.82088,863.63788,-1095.73181,-177.63354,834.42926
100,0.825,-1101.1405,-182.6796,944.88049,-1162.78162,-207.69951,862.86932,-1090.60852,-180.56467,834.20361
101,0.833,-1096.59668,-183.27454,943.02118,-1158.46863,-207.56599,862.00146,-1087.07239,-181.19362,833.83826
102,0.842,-1091.84912,-185.00729,942.29779,-1153.70862,-207.75381,861.63159,-1083.18494,-181.60553,833.82196
103,0.85,-1087.38782,-186.31528,941.56763,-1149.97388,-208.45589,861.15161,-1079.17261,-182.86691,832.31421
104,0.858,-1082.48303,-185.32825,940.14014,-1145.0929,-209.12602,860.03046,-1074.59863,-183.28149,831.06488
105,0.867,-1078.8335,-187.25571,940.10199,-1140.57751,-210.87912,858.89038,-1070.03589,-184.07745,830.50085
106,0.875,-1073.84534,-188.08669,938.9975,-1136.49792,-210.60182,858.24695,-1065.80725,-183.52753,829.33124
107,0.883,-1069.86816,-188.24055,937.77679,-1131.97876,-211.7973,858.01251,-1060.74878,-186.9382,828.04437
108,0.892,-1063.85486,-190.09447,936.83789,-1126.91602,-212.58134,856.69061,-1055.45764,-187.62691,827.35541
109,0.9,-1059.15991,-192.08469,936.62665,-1121.60278,-214.54218,856.31689,-1051.9209,-186.74487,826.62787
110,0.908,-1054.16187,-192.45204,935.20789,-1117.08215,-215.31313,855.07825,-1045.92041,-187.45984,825.61304
111,0.917,-1047.73108,-192.5773,934.77307,-1111.99011,-216.50914,854.18048,-1040.72266,-190.19101,825.51471
112,0.925,-1042.80872,-195.02786,933.69208,-1105.65955,-216.60172,853.05762,-1036.19214,-190.67448,823.90875
113,0.933,-1037.86377,-195.8822,933.39099,-1100.75366,-218.01093,852.01233,-1030.27295,-192.48062,823.12061
114,0.942,-1032.03674,-198.96832,932.55573,-1096.25488,-219.76959,851.65961,-1023.85675,-192.15765,822.11847
115,0.95,-1027.31018,-199.51227,931.41644,-1089.62598,-221.95988,849.78436,-1019.10077,-193.35689,821.23523
116,0.958,-1020.51135,-199.01927,931.14716,-1084.17505,-222.62869,848.99554,-1012.51392,-196.37604,820.52332
117,0.967,-1015.12909,-202.02304,929.66443,-1078.07849,-223.03113,848.51508,-1007.55933,-196.87686,820.12433
118,0.975,-1008.60712,-203.53641,927.90515,-1071.90039,-225.27988,847.49384,-1000.32526,-198.02885,818.52283
119,0.983,-1002.60254,-204.84012,926.94855,-1065.68176,-227.48024,846.94183,-995.01825,-199.45631,817.4823
120,0.992,-996.30341,-206.50539,925.97388,-1058.97119,-228.69643,846.29089,-989.53058,-201.07434,816.57861
121,1,-989.5423,-209.53331,925.59033,-1052.58081,-229.54391,845.42841,-982.77411,-203.5079,816.50104
122,1.008,-982.3717,-210.42949,925.29657,-1045.66016,-231.74805,845.07227,-974.50623,-203.5811,816.11713
123,1.017,-975.39825,-212.69211,924.69757,-1039.40771,-233.88107,844.78894,-968.49457,-205.7838,815.53723
124,1.025,-968.87958,-213.5677,925.01007,-1031.99353,-234.67543,844.90448,-962.24664,-207.93822,815.63556
125,1.033,-959.63812,-215.04636,924.53876,-1023.90723,-236.33083,844.57208,-954.4743,-208.59654,814.96515
126,1.042,-953.59503,-217.84291,925.74158,-1016.16052,-238.823,844.55518,-946.87042,-209.49692,815.31128
127,1.05,-945.27045,-219.51642,925.77313,-1008.28973,-241.24261,844.66437,-939.78113,-211.33044,815.4325
128,1.058,-937.57855,-220.05597,925.89471,-1000.77301,-242.78226,845.44568,-932.42554,-213.14737,816.35083
129,1.067,-930.60303,-222.35704,926.12164,-992.3382,-245.21222,845.73285,-923.81152,-215.81729,816.72583
130,1.075,-922.47406,-223.25775,927.22656,-984.02271,-246.09154,845.67267,-914.58398,-216.47455,816.64276
131,1.083,-913.88934,-226.14865,927.1463,-976.76868,-248.51297,846.12921,-906.59094,-218.90694,817.22974
132,1.092,-907.48529,-227.23465,927.79498,-968.06152,-250.32458,846.08875,-898.51996,-218.80093,818.13525
133,1.1,-899.14862,-230.3129,928.19952,-960.1767,-252.93723,846.72162,-890.43384,-223.24832,818.82153
134,1.108,-891.07538,-230.33241,929.12927,-951.22778,-254.49019,846.43329,-880.99933,-222.24416,819.33118
135,1.117,-884.13391,-233.42624,929.10968,-943.63989,-254.42154,846.48608,-872.38123,-225.10428,819.54791
136,1.125,-875.75568,-236.2114,929.36224,-934.44592,-256.76321,846.40253,-864.88147,-227.33614,820.08594
137,1.133,-867.73792,-237.15442,929.54486,-926.41779,-259.98523,846.35046,-855.27039,-228.56157,820.47156
138,1.142,-859.93756,-239.05524,929.76221,-917.9906,-260.31046,846.10748,-847.27289,-231.03874,821.19373
139,1.15,-851.60645,-240.0468,929.80817,-909.20441,-262.14163,846.18927,-838.88507,-232.7016,821.60236
140,1.158,-844.24652,-243.32651,929.74866,-901.30463,-263.23187,845.92273,-830.84857,-234.22855,822.16791
141,1.167,-835.41339,-244.2173,929.98163,-892.31409,-265.91937,845.62952,-821.67328,-237.10532,821.92273
142,1.175,-827.88733,-246.66278,930.94177,-884.25659,-267.95758,845.41541,-812.72949,-238.2148,822.78497
143,1.183,-820.03674,-249.21735,931.97235,-875.40314,-268.88565,845.3233,-803.47491,-239.61494,822.85834
144,1.192,-810.41022,-249.66887,931.55707,-867.46429,-270.09952,844.77234,-796.03973,-241.88748,823.12762
145,1.2,-804.08655,-251.70197,931.66125,-858.35217,-271.83365,845.37537,-785.13599,-243.35713,823.57703
146,1.208,-794.90515,-252.653,931.65613,-850.25531,-273.45395,845.70374,-777.78003,-244.60394,823.58167
147,1.217,-786.71118,-253.22905,932.19788,-841.06555,-275.02588,845.77484,-768.7373,-245.27278,824.33716
148,1.225,-779.33563,-255.30914,932.63287,-832.6131,-276.61234,845.77386,-760.14087,-245.82617,824.84656
149,1.233,-770.46979,-257.24814,934.08698,-823.94196,-277.85617,846.52588,-751.33105,-248.9749,826.11407
150,1.242,-762.45239,-257.63632,935.05023,-815.39435,-279.49789,847.43762,-743.49048,-249.13673,826.41797
151,1.25,-754.07355,-258.35205,935.86066,-807.08246,-280.39548,847.70764,-734.64081,-250.30536,827.91571
152,1.258,-747.0387,-259.28528,936.6413,-798.96002,-281.40558,848.59613,-725.85468,-250.11348,828.2912
153,1.267,-738.45428,-260.22253,937.11401,-789.38037,-281.75604,849.03888,-717.74292,-252.70032,829.95996
154,1.275,-730.89227,-260.65399,938.22711,-781.74213,-284.26331,850.36987,-709.68793,-251.73427,831.03088
155,1.283,-723.0213,-261.53778,939.68213,-773.33118,-284.7363,850.80933,-701.41449,-253.39426,832.65259
156,1.292,-715.75372,-262.69403,940.20703,-764.76184,-285.38058,851.54047,-693.55011,-252.793,833.2984
157,1.3,-709.23517,-262.5235,941.29608,-757.67993,-285.63358,851.9101,-685.94818,-254.61247,834.58569
158,1.308,-701.59375,-262.6767,942.03918,-748.96088,-286.88208,852.80646,-677.38324,-254.41063,835.47101
159,1.317,-694.06384,-262.64313,943.42822,-742.38873,-288.86081,854.40149,-670.34235,-254.95541,837.13495
160,1.325,-686.78174,-264.29938,944.84143,-734.4649,-287.96545,854.34857,-661.42987,-254.81818,838.42786
161,1.333,-680.33258,-263.90399,945.16052,-726.96967,-289.34494,855.02832,-654.41449,-255.87527,838.94409
162,1.342,-674.20129,-266.29672,945.66333,-719.00885,-288.43555,855.64197,-646.91138,-254.63509,839.39587
163,1.35,-667.21741,-265.67709,945.81934,-711.80591,-289.45682,855.25513,-640.01648,-255.97606,840.50397
164,1.358,-660.56696,-266.62122,945.93433,-704.98138,-289.54929,855.34198,-632.50659,-254.49687,841.01447
165,1.367,-654.55585,-266.66196,946.95685,-697.86005,-289.96997,856.0108,-625.62219,-256.39026,841.44354
166,1.375,-648.11182,-265.95563,947.61365,-690.59015,-288.32306,855.78192,-618.35742,-255.42174,841.84619
167,1.383,-640.46539,-266.75992,946.89673,-683.65143,-289.50162,855.58887,-613.17535,-256.52258,843.06281
168,1.392,-635.28094,-266.19815,946.91125,-677.41498,-288.94446,854.51929,-605.08954,-254.6344,842.80627
169,1.4,-628.53955,-266.51126,946.93701,-670.95605,-289.28998,854.40894,-598.82788,-255.32127,842.80438
170,1.408,-622.13,-266.22769,947.0954,-664.4527,-288.51007,854.13104,-592.70221,-253.99399,842.32031
171,1.417,-616.8559,-266.43137,946.65857,-658.49408,-288.80249,853.82324,-586.08746,-254.78717,842.29352
172,1.425,-610.6651,-265.24332,945.89679,-651.78491,-289.18964,853.41516,-579.14087,-254.61143,842.38348
173,1.433,-604.47656,-266.29065,946.09698,-645.57043,-287.92114,853.25061,-573.36682,-254.15372,841.32196
174,1.442,-598.14795,-265.05692,945.48688,-639.49146,-287.52164,852.77301,-566.75885,-252.15622,840.6875
175,1.45,-592.47394,-265.22052,945.4231,-633.41656,-287.10501,851.7088,-561.39136,-252.8625,840.6001
176,1.458,-587.09576,-263.9119,944.74628,-627.34241,-286.64044,851.96893,-555.48224,-253.13887,840.62048
177,1.467,-581.11438,-264.17712,944.08832,-622.09015,-286.65375,851.26129,-550.65076,-251.6889,839.67963
178,1.475,-575.22839,-263.30084,943.2887,-616.41992,-285.52762,850.50146,-544.54279,-250.10663,838.74689
179,1.483,-570.25269,-263.64804,943.01904,-611.11707,-283.52213,848.91663,-539.1972,-249.97244,837.93353
180,1.492,-564.7038,-261.70169,942.72662,-605.71075,-285.35568,849.31775,-534.71527,-249.46365,838.15454
181,1.5,-559.35626,-261.44803,941.60529,-600.07153,-282.91306,847.92627,-528.12109,-249.19037,838.28027
182,1.508,-553.80792,-259.55609,941.12683,-594.41547,-283.39069,848.34967,-522.4718,-248.37628,836.70294
183,1.517,-548.78333,-260.05533,940.87024,-589.14496,-281.84622,847.65631,-518.15594,-247.07292,835.61096
184,1.525,-543.25201,-258.5365,940.41693,-584.85217,-282.21884,847.36401,-514.19287,-245.72028,835.539
185,1.533,-538.61499,-258.49313,939.53644,-578.94513,-280.0657,846.73193,-508.58438,-245.57074,834.90308
186,1.542,-533.89758,-257.06952,938.98975,-573.87079,-280.34802,846.19824,-503.44604,-244.43968,834.56152
187,1.55,-529.24731,-256.46436,938.26819,-568.8678,-279.57379,845.42926,-498.02496,-243.52333,834.47125
