Frame#,Time,L.Forearm.x,L.Forearm.y,L.Forearm.z,L.Ulna.x,L.Ulna.y,L.Ulna.z,L.Radius.x,L.Radius.y,L.Radius.z
1,0,1556.08472,-234.18938,1070.04492,1617.81274,-250.34749,985.48505,1547.05737,-211.76509,926.64642
2,0.008,1550.33716,-236.18277,1070.26489,1611.39307,-250.49376,985.66339,1542.91907,-210.81284,927.22644
3,0.017,1543.35181,-233.29256,1070.13354,1605.92688,-250.75148,987.18384,1533.17993,-210.69629,928.50104
4,0.025,1538.19958,-236.27626,1069.87598,1599.73376,-249.89172,986.63898,1526.87708,-208.90071,929.15643
5,0.033,1532.14185,-235.59134,1071.29529,1593.4231,-250.68767,986.39575,1519.84509,-210.82297,929.2066
6,0.042,1522.72131,-234.32538,1071.78308,1587.34119,-251.48248,987.58813,1514.42358,-209.49271,928.78784
7,0.05,1518.64282,-234.56528,1072.01611,1581.15649,-252.18803,987.31561,1507.1554,-211.05309,928.84021
8,0.058,1513.11829,-236.56706,1071.79834,1573.91907,-251.3875,986.26624,1502.24402,-210.34317,929.15302
9,0.067,1506.7063,-235.68547,1071.53442,1567.54114,-252.60159,986.91638,1497.39917,-214.03194,928.44299
10,0.075,1499.47058,-237.33173,1071.58325,1561.28186,-253.23091,986.80835,1496.4408,-215.16727,927.6828
11,0.083,1491.29163,-235.30702,1069.41968,1553.6322,-252.88687,985.24878,1484.33594,-213.46797,928.07184
12,0.092,1485.18909,-235.74976,1069.95776,1546.05042,-253.29185,985.45911,1475.72363,-213.69241,928.45038
13,0.1,1477.29443,-238.44209,1068.64429,1540.54224,-254.08652,985.44495,1467.03564,-213.65858,925.60767
14,0.108,1472.15234,-237.58466,1068.29834,1532.87671,-254.88802,983.92053,1461.73645,-214.23451,927.91089
15,0.117,1465.40222,-239.65858,1068.65845,1525.25281,-254.839,983.57135,1454.72156,-213.37846,926.10095
16,0.125,1458.2843,-238.59167,1067.98755,1519.02563,-255.81996,983.41443,1445.69983,-216.03331,926.13147
17,0.133,1450.17505,-239.32236,1066.61255,1511.63745,-257.3042,982.36292,1439.15979,-215.81036,925.75232
18,0.142,1442.86792,-239.8885,1067.60022,1503.07837,-257.24741,981.2149,1432.02319,-216.24017,925.97192
19,0.15,1435.40894,-239.70795,1066.10461,1494.96057,-257.36743,979.82196,1422.84094,-216.47041,925.23877
20,0.158,1426.61377,-240.90083,1065.92773,1488.96594,-259.7254,979.87512,1414.48987,-217.24173,923.93872
21,0.167,1418.93433,-241.51245,1064.90271,1480.58057,-260.0437,978.56482,1407.83289,-216.84875,922.66962
22,0.175,1412.66589,-241.37764,1065.06299,1472.73108,-259.6069,977.50769,1400.21484,-218.34332,922.69806
23,0.183,1404.19678,-242.50902,1064.03638,1465.53235,-261.36734,976.74432,1392.67737,-219.04716,921.89398
24,0.192,1397.77783,-242.99968,1062.8656,1456.474,-261.79047,976.33649,1383.93982,-219.04434,920.93756
25,0.2,1389.65955,-244.59334,1062.20422,1448.16064,-261.85898,974.96375,1374.80884,-219.481,920.64935
26,0.208,1381.81543,-246.38281,1061.50354,1439.66528,-263.07736,973.48352,1366.02625,-221.43376,919.41431
27,0.217,1373.13892,-246.79146,1060.36108,1432.22791,-264.2128,972.77625,1358.38,-222.02719,917.87463
28,0.225,1365.29773,-244.99117,1059.5,1422.6698,-264.3443,971.44678,1350.24243,-222.03851,917.88385
29,0.233,1357.10718,-246.99692,1059.06396,1412.67883,-263.99805,970.34131,1340.8175,-222.1689,917.57501
30,0.242,1348.62817,-248.53976,1057.88562,1405.36377,-265.22382,969.07684,1332.42407,-223.68021,916.66241
31,0.25,1340.34631,-248.82669,1056.6792,1396.53027,-266.93814,968.11267,1323.82434,-223.3203,915.33936
32,0.258,1332.20581,-248.50792,1055.31287,1388.20923,-267.72189,966.91547,1314.75232,-222.73857,914.57434
33,0.267,1323.46606,-249.30006,1054.45715,1378.23425,-267.77811,966.53021,1306.15161,-225.10097,913.91113
34,0.275,1314.39417,-250.8895,1054.09595,1369.9563,-268.82382,965.14417,1296.24707,-225.02435,913.85431
35,0.283,1305.96631,-252.04388,1053.58215,1360.87744,-271.27798,964.32526,1286.21387,-226.86913,913.42651
36,0.292,1296.41431,-251.68001,1051.71533,1350.87585,-270.76929,963.45593,1278.53845,-227.55479,912.73517
37,0.3,1289.54651,-252.66225,1051.75635,1342.09827,-270.853,962.6001,1270.41089,-226.06447,911.67383
38,0.308,1280.3335,-254.02802,1050.90344,1333.38708,-272.41199,960.75037,1262.70386,-225.59709,910.42853
39,0.317,1269.60303,-255.00397,1049.08337,1323.06433,-273.46115,959.77844,1250.42847,-228.09169,910.65759
40,0.325,1261.0636,-255.80679,1049.62769,1313.1167,-274.14929,960.04169,1240.4353,-229.76129,909.97729
41,0.333,1252.39734,-255.38123,1050.45544,1303.84668,-274.43149,960.37286,1231.52271,-229.68034,909.53033
42,0.342,1243.09521,-255.826,1050.60571,1295.27441,-275.66898,960.18298,1220.73962,-229.65332,910.25854
43,0.35,1233.24927,-256.99002,1051.2168,1285.43518,-276.20279,960.94611,1211.02051,-230.55969,911.24292
44,0.358,1224.19812,-256.80353,1052.0426,1275.18384,-276.67349,961.47675,1202.47119,-229.7621,912.16315
45,0.367,1214.86707,-257.74368,1052.89819,1265.25549,-277.30475,962.9931,1191.8429,-230.69994,912.51318
46,0.375,1205.52148,-259.14355,1054.86938,1256.06653,-277.42209,962.99786,1181.78601,-231.47353,914.01947
47,0.383,1195.92261,-258.27219,1054.80933,1246.8728,-277.30228,963.28284,1172.23413,-233.19917,915.8562
48,0.392,1187.24353,-260.11514,1055.93823,1236.83484,-279.0116,964.18695,1162.05469,-233.00011,916.0592
49,0.4,1178.1488,-260.92087,1056.82422,1226.70898,-280.26306,964.85693,1151.76392,-234.11028,917.30865
50,0.408,1168.27625,-262.06787,1057.80774,1216.50732,-280.87854,964.60883,1142.23157,-233.60172,919.00116
51,0.417,1159.41614,-262.64938,1058.20667,1207.14514,-281.13617,965.55304,1133.34241,-231.90028,919.42377
52,0.425,1149.74854,-263.9581,1058.53967,1196.80969,-281.96198,965.75043,1123.38672,-232.03326,920.22028
53,0.433,1139.40417,-264.67667,1060.12634,1186.66724,-282.93985,966.30475,1112.57458,-232.54936,921.26971
54,0.442,1130.96106,-263.59393,1060.21179,1176.25903,-283.16382,966.26904,1102.90698,-232.74419,922.13715
55,0.45,1121.61511,-264.32895,1060.72827,1165.33301,-284.27722,966.83734,1091.83081,-232.95808,922.84869
56,0.458,1112.1521,-264.46008,1062.31946,1155.74695,-284.9404,967.26666,1081.45874,-233.51846,924.86438
57,0.467,1102.28442,-265.14401,1063.21716,1145.70288,-285.13834,967.93011,1070.65503,-233.7928,925.8988
58,0.475,1092.36084,-266.04636,1063.92871,1135.62036,-286.35721,968.81323,1061.85901,-232.40393,926.80518
59,0.483,1083.80786,-265.23056,1064.35828,1124.76721,-286.99368,970.62262,1052.07397,-231.89346,928.48828
60,0.492,1075.39648,-264.82278,1066.50769,1115.18811,-286.74002,971.03632,1042.48083,-232.48981,930.02051
61,0.5,1066.71716,-265.56204,1067.56348,1105.50635,-287.74329,972.06964,1032.6272,-232.66852,931.36871
62,0.508,1056.57092,-265.83875,1069.30933,1095.48999,-287.89151,973.16681,1022.53613,-233.10353,934.40625
63,0.517,1047.3429,-265.55634,1070.96912,1084.79114,-287.92484,975.1311,1012.25854,-233.38901,935.37982
64,0.525,1038.55798,-264.478,1072.13708,1075.63037,-287.8428,976.47827,1001.9306,-233.72856,938.18695
65,0.533,1031.03333,-264.71384,1074.67151,1067.33813,-288.38129,977.80536,993.79187,-231.31241,939.19604
66,0.542,1020.79773,-265.2998,1075.94812,1057.81885,-287.54016,979.36835,983.41138,-231.36665,941.04114
67,0.55,1012.19635,-266.27655,1077.78687,1047.97778,-287.41678,980.1955,973.69257,-231.99565,943.69641
68,0.558,1004.70728,-265.51801,1078.9187,1039.24658,-287.16565,981.90167,964.13129,-232.32933,944.54822
69,0.567,995.91302,-264.90823,1080.57642,1030.05432,-287.75027,983.03857,954.87555,-232.21272,947.80957
70,0.575,988.56683,-266.34436,1082.02783,1021.21051,-286.99164,983.79462,946.3858,-231.83707,948.92303
71,0.583,979.89941,-265.0621,1083.7688,1012.01917,-285.95215,985.66119,937.13232,-230.84641,950.76563
72,0.592,971.86139,-264.68958,1084.74158,1003.49927,-286.34888,986.70587,927.76855,-230.68259,951.92065
73,0.6,964.20514,-265.60123,1086.61975,994.49036,-286.75952,987.62708,919.2005,-231.33357,954.26025
74,0.608,955.57562,-265.68784,1087.35059,986.76788,-285.48975,988.11108,909.36945,-230.10707,955.96106
75,0.617,949.07428,-265.36172,1087.96375,977.52966,-285.49042,988.51917,902.12714,-229.01035,957.27625
76,0.625,941.06525,-264.81659,1088.86243,969.78369,-285.1503,989.61304,893.15204,-228.98776,959.2793
77,0.633,933.74915,-266.07092,1089.88342,961.86542,-284.91672,990.69299,884.6485,-228.8593,960.69659
78,0.642,926.15112,-265.42575,1090.75061,953.09973,-285.12466,991.20404,876.40363,-228.47124,962.02368
79,0.65,919.53204,-265.18448,1091.00024,945.1684,-284.84424,990.99396,868.18854,-226.91077,962.52258
80,0.658,911.52826,-265.2821,1091.51208,937.74707,-283.84756,990.87122,859.83014,-227.12218,963.77185
81,0.667,905.41486,-264.84033,1091.53271,929.57025,-283.78009,991.27997,852.62201,-226.19438,964.26239
82,0.675,898.53137,-265.17694,1092.04041,922.32605,-283.29376,991.80823,844.45374,-225.77951,964.83899
83,0.683,890.90289,-263.67722,1091.9928,914.0578,-283.66144,991.20648,837.25781,-225.32283,965.5495
84,0.692,885.27271,-264.12491,1092.22217,906.52075,-282.91931,991.22015,830.2959,-223.22427,966.07599
85,0.7,877.55365,-263.46661,1091.99304,899.8515,-281.68124,991.16101,822.62531,-223.06429,967.04749
86,0.708,871.55072,-262.4014,1091.2948,892.50757,-282.10178,990.78571,816.41351,-222.16258,967.24915
87,0.717,864.73743,-263.07034,1091.50928,885.2998,-281.94174,990.15729,808.18628,-221.34343,967.56818
88,0.725,858.83734,-261.24832,1091.54553,878.5199,-281.65533,990.03107,801.75677,-221.80066,967.57196
89,0.733,852.31244,-262.24738,1090.7334,872.41821,-280.76468,989.93872,795.44391,-220.51958,967.08612
90,0.742,846.13495,-260.53433,1090.18262,865.67352,-280.18054,989.18555,789.48792,-219.52351,966.7226
91,0.75,839.90399,-261.28253,1089.58691,859.52032,-279.81528,988.8324,782.92761,-218.87901,966.56226
92,0.758,834.02039,-259.75604,1089.81506,852.94104,-278.48795,987.77747,775.9895,-219.68463,966.27777
93,0.767,828.09119,-259.00711,1088.56177,846.70276,-278.23145,987.17828,770.12952,-217.5891,965.854
94,0.775,822.24481,-258.64697,1087.79651,841.21448,-277.44321,986.08917,764.11157,-216.97942,964.70782
95,0.783,816.29065,-258.7876,1086.83643,835.9306,-276.90692,984.70178,758.86456,-215.93636,963.49829
96,0.792,811.25415,-256.47226,1086.15369,829.81531,-275.771,984.22467,752.59686,-215.67764,962.2666
97,0.8,804.66919,-256.95325,1084.7085,824.50647,-275.31525,983.98511,747.97864,-214.96289,961.94446
98,0.808,800.81506,-255.88722,1083.729,820.35022,-274.29883,982.74756,742.71979,-214.22691,959.90759
99,0.817,794.76837,-255.85155,1082.72754,814.80377,-273.80145,980.86212,737.52399,-213.96669,958.86664
100,0.825,789.87878,-254.22797,1081.95361,810.16931,-272.43808,979.8526,732.5611,-213.14973,957.41656
101,0.833,785.01373,-253.39455,1079.82788,805.58459,-271.45383,978.42688,727.3454,-212.52238,956.50446
102,0.842,779.47577,-253.36053,1078.02368,800.65582,-271.28766,977.02307,722.13611,-212.40912,955.19116
103,0.85,775.41913,-251.89845,1077.35742,796.23413,-271.01093,976.18536,717.77203,-212.26645,953.01324
104,0.858,770.20142,-251.67009,1076.16541,792.15295,-269.17365,975.01147,714.12451,-211.57233,951.64838
105,0.867,765.9043,-250.76619,1074.65125,788.09119,-268.95923,973.14484,710.09113,-209.93961,949.51312
106,0.875,760.71478,-251.22849,1073.39832,783.46844,-268.39102,972.25562,705.23987,-210.85992,948.40717
107,0.883,755.69916,-249.44383,1071.50134,779.61414,-268.74622,970.67798,700.44415,-210.67795,945.9892
108,0.892,751.5304,-248.20514,1069.99951,775.35175,-266.84479,969.16571,696.77881,-210.73756,943.86224
109,0.9,747.09839,-247.6217,1067.63721,771.73212,-266.32587,968.66089,693.37219,-210.3237,941.99341
110,0.908,742.27844,-247.80142,1067.29004,768.29315,-265.95374,967.58813,689.98669,-209.91237,940.04736
111,0.917,737.46552,-245.40535,1066.55261,765.05151,-264.0235,966.23926,685.44305,-209.77325,938.96686
112,0.925,733.04877,-245.56433,1065.31018,761.32269,-263.25079,965.72809,682.91296,-208.36336,936.2309
113,0.933,728.80511,-244.68309,1064.39294,757.75128,-262.81784,965.18927,679.51984,-208.2384,934.86731
114,0.942,723.91315,-242.98148,1063.99109,755.24799,-261.26511,965.45099,676.10193,-208.96777,934.17792
115,0.95,720.15289,-241.76015,1063.63049,752.00653,-260.87686,964.9837,672.76215,-209.23634,933.14032
116,0.958,715.82172,-241.43712,1063.42773,748.92487,-260.72839,965.51611,669.9964,-206.99586,931.26031
117,0.967,711.4682,-239.59708,1062.70667,745.38812,-259.04172,965.71082,667.36035,-206.94548,931.02332
118,0.975,706.91888,-238.45499,1062.65393,742.11902,-258.07364,965.63629,664.6756,-206.50133,929.82782
119,0.983,702.4411,-238.6734,1063.10107,739.82953,-257.43024,965.82324,661.5354,-206.48384,929.05542
120,0.992,698.97406,-237.16269,1062.55591,736.89923,-256.77518,966.008,658.4068,-207.34506,928.19092
121,1,693.98724,-237.55817,1061.95007,733.18811,-256.13257,966.46674,656.35541,-207.24071,927.49677
122,1.008,690.14551,-236.1519,1062.24866,730.18347,-255.44225,966.84021,652.36224,-207.64795,926.27521
123,1.017,686.1485,-235.32718,1062.17249,727.45117,-255.05077,967.08057,650.03967,-206.87111,926.04083
124,1.025,681.48718,-236.42603,1061.53638,724.10651,-255.30319,967.18958,647.33319,-207.50201,925.44495
125,1.033,677.96228,-235.97549,1061.54456,721.41644,-254.93166,967.06213,643.19049,-207.02414,924.77448
126,1.042,674.03357,-234.66333,1061.7887,718.01764,-253.51643,967.27509,640.8692,-206.51196,924.19556
127,1.05,669.91376,-234.06482,1061.15039,714.89099,-253.38029,967.21582,638.63342,-206.91945,923.02521
128,1.058,666.2616,-234.07762,1061.60779,712.13885,-253.03186,967.55096,634.16339,-207.91258,923.14478
129,1.067,662.35205,-234.02803,1061.18591,708.60309,-253.03842,967.50342,631.80078,-207.32671,922.56403
130,1.075,658.15961,-234.36261,1061.271,705.4079,-252.54077,967.62976,629.01385,-208.49701,921.77032
131,1.083,654.43304,-232.94232,1061.52393,702.93585,-252.66547,968.12561,625.66003,-208.68495,922.5625
132,1.092,650.4624,-232.27908,1061.09912,699.75085,-251.92572,968.9223,622.6665,-208.56868,922.11511
133,1.1,647.26544,-233.51193,1061.2594,696.12262,-251.41293,969.51587,620.23383,-208.75423,922.47754
134,1.108,643.94806,-232.9568,1061.72363,693.36749,-251.21898,969.75287,616.5047,-209.84369,922.68066
135,1.117,640.19556,-232.96272,1061.97949,690.09991,-251.4691,970.39453,612.39819,-210.22366,923.38525
136,1.125,635.9126,-233.9155,1062.35693,687.04352,-251.25568,971.28943,610.48114,-210.07738,923.46991
137,1.133,632.59515,-232.10591,1063.05835,683.74701,-250.46492,972.18683,606.65808,-209.48048,923.37701
138,1.142,628.45203,-232.34656,1063.37195,681.01611,-250.69144,972.83856,603.58392,-210.62016,923.74738
139,1.15,624.97534,-233.44046,1064.69128,677.76599,-250.62114,973.54431,600.20795,-210.61932,924.26208
140,1.158,621.8017,-233.44168,1064.78015,673.44116,-250.47523,974.38702,596.96222,-211.06728,924.71362
141,1.167,617.8974,-233.83575,1065.88562,670.64368,-250.74332,975.55597,592.65344,-213.25038,925.10223
142,1.175,614.08606,-234.02725,1066.27795,667.81787,-250.26283,976.53302,589.11096,-212.77527,925.62048
143,1.183,610.16864,-234.21028,1066.93823,663.77148,-249.77713,976.74884,585.28967,-214.57886,926.68579
144,1.192,605.6416,-234.85172,1066.91675,660.18549,-250.74367,977.91278,582.15955,-214.92157,927.28503
145,1.2,601.41876,-233.78381,1067.67078,655.84552,-250.49974,978.33795,577.9353,-215.62509,927.76257
146,1.208,596.41907,-234.2861,1068.85083,651.66888,-250.12599,979.44775,574.5351,-214.71147,927.86377
147,1.217,592.88727,-234.37315,1069.26538,648.414,-250.61424,979.89856,570.52173,-214.4135,928.76532
148,1.225,588.17633,-234.8114,1069.26038,644.09509,-250.77133,980.21716,565.97076,-214.83603,928.61407
149,1.233,584.02521,-234.89326,1069.74207,639.72711,-250.18961,980.85156,561.97357,-214.95459,928.87531
150,1.242,579.47223,-236.14371,1069.96509,635.66663,-250.40752,980.8905,557.60596,-215.71935,929.19714
151,1.25,574.41016,-235.87418,1069.93201,631.37189,-251.87439,981.5899,554.41449,-216.3127,928.84723
152,1.258,570.40582,-235.96638,1069.85657,627.27496,-252.42496,981.88165,549.83923,-217.46297,929.0896
153,1.267,565.59064,-235.92349,1069.68787,622.87872,-251.86272,981.54688,546.08929,-217.27916,928.21893
154,1.275,560.49854,-236.91426,1070.23254,618.03015,-252.02254,981.53278,540.70404,-218.22997,928.04742
155,1.283,556.05511,-236.43764,1069.40381,612.81726,-252.25148,981.20441,535.77454,-216.54146,927.78375
156,1.292,551.1922,-237.8273,1069.23853,608.06177,-252.2404,981.28113,531.68433,-216.5455,927.81775
157,1.3,545.242,-238.12517,1068.83105,602.75214,-253.37294,981.41589,526.09473,-217.87892,927.35022
158,1.308,539.76044,-237.92281,1068.41138,597.85992,-254.22499,981.05188,522.2066,-217.95096,926.82611
159,1.317,534.42236,-238.51874,1068.16602,593.44446,-254.24136,981.00812,517.0849,-219.00589,926.47308
160,1.325,529.58649,-239.55141,1068.06885,587.96753,-254.51859,980.32733,511.28012,-220.62476,926.36151
161,1.333,524.63171,-238.95164,1067.02893,582.67657,-255.16551,979.94122,507.08118,-219.51749,925.86047
162,1.342,518.96698,-240.48476,1066.80188,576.84204,-255.62476,979.51501,501.72601,-219.35834,925.1452
163,1.35,512.68134,-241.3848,1066.36121,571.51447,-256.00177,978.68225,495.3663,-220.17448,924.62903
164,1.358,507.48038,-240.8231,1065.49268,565.83197,-256.66626,978.64954,489.53076,-222.08969,924.08777
165,1.367,500.91833,-241.29961,1065.01978,559.95795,-256.54099,977.62561,484.58069,-220.90649,923.82269
166,1.375,495.17218,-241.394,1064.8374,553.8078,-257.76196,977.17664,479.13251,-221.33063,923.04584
167,1.383,490.05417,-242.09778,1063.72034,548.11676,-257.01172,976.02338,472.87778,-223.64996,922.17206
168,1.392,483.23697,-243.44467,1063.11572,541.82043,-257.67847,975.32019,466.70209,-220.72441,921.12805
169,1.4,476.96844,-243.10928,1062.21362,535.50342,-258.74774,974.78137,461.39313,-221.58241,920.09637
170,1.408,471.36252,-243.97569,1060.96692,529.54572,-259.29077,973.84802,454.31699,-223.40804,919.32825
171,1.417,464.67719,-244.27696,1060.33398,523.45697,-259.3862,972.59058,447.74332,-224.51575,918.21765
172,1.425,458.21988,-245.49632,1059.58301,517.33734,-260.28412,972.18024,441.69363,-222.49226,917.68365
173,1.433,452.19626,-245.34332,1058.2749,510.27844,-261.28363,971.04901,435.11053,-224.14609,916.74213
174,1.442,445.79242,-246.95361,1057.27502,503.86154,-261.60834,969.19672,427.81216,-224.69211,915.79431
175,1.45,439.16989,-247.47543,1056.46765,497.28174,-261.72635,968.74304,421.21579,-226.17821,915.12042
176,1.458,432.35614,-247.02019,1054.40552,490.26837,-262.94611,967.74493,414.91684,-227.29759,914.44281
177,1.467,425.73273,-248.53526,1054.11108,483.29163,-263.76685,965.68347,407.11545,-226.68382,913.51294
178,1.475,418.74451,-248.95634,1052.91809,475.90771,-262.80539,964.99561,399.92783,-226.79886,911.82214
179,1.483,411.7384,-249.77962,1051.99805,468.80826,-264.22412,963.49689,392.56631,-227.89407,911.2182
180,1.492,404.92258,-250.38676,1050.58826,461.33786,-265.70419,961.85016,385.39807,-228.75569,910.03961
181,1.5,397.28955,-251.97765,1049.54517,454.23541,-265.86981,961.13556,378.06586,-227.35689,908.74493
182,1.508,390.61737,-250.937,1048.75146,446.64084,-266.98334,959.83929,371.11325,-228.50778,907.98987
183,1.517,383.49084,-252.69666,1047.18079,439.22223,-267.54068,958.99225,363.22141,-229.03761,906.79626
184,1.525,376.01086,-253.72484,1046.31323,431.46793,-268.05499,957.55273,355.52637,-230.53629,905.93933
185,1.533,368.29996,-255.21265,1045.88916,424.24823,-268.64557,956.21735,347.22891,-230.79799,904.96631
186,1.542,360.77011,-255.26895,1044.9436,415.56644,-270.16443,955.59503,339.39941,-231.02039,904.41815
187,1.55,352.47098,-255.83569,1043.59155,407.34381,-270.32809,954.05731,330.8121,-232.7077,903.8656
188,1.558,344.22513,-257.27826,1043.0752,399.12198,-271.74463,953.40863,322.42648,-233.60425,903.25427
189,1.567,336.58072,-257.49954,1043.67114,391.18317,-272.72153,953.58008,314.43173,-233.90895,903.34552
190,1.575,328.76645,-257.52475,1044.15039,382.64551,-273.16309,954.02069,306.41068,-233.76389,903.40808
191,1.583,319.99567,-258.59885,1044.33386,374.55206,-274.2814,954.46588,297.69241,-234.73247,904.06274
192,1.592,312.72882,-259.01837,1045.53723,366.10666,-274.10953,954.33691,289.68668,-234.69032,904.65753
