Frame#,Time,L.Forearm.x,L.Forearm.y,L.Forearm.z,L.Ulna.x,L.Ulna.y,L.Ulna.z,L.Radius.x,L.Radius.y,L.Radius.z
1,0,-168.49762,330.70892,628.71234,-180.86826,377.50946,552.52618,-131.24413,314.31812,513.52319
2,0.008,-168.49762,330.70892,628.71234,-181.0703,377.4325,552.40393,-131.37503,313.83591,513.32922
3,0.017,-168.76469,330.64081,628.75739,-181.15425,377.18225,552.24146,-131.37503,313.83591,513.32922
4,0.025,-168.76469,330.64081,628.75739,-181.15425,377.18225,552.24146,-131.29182,313.26172,513.27118
5,0.033,-168.76469,330.64081,628.75739,-181.15425,377.18225,552.24146,-131.29182,313.26172,513.27118
6,0.042,-168.68588,330.77328,628.4906,-181.15425,377.18225,552.24146,-131.09909,312.99707,513.47845
7,0.05,-168.68588,330.77328,628.4906,-181.40311,376.927,552.315,-131.18549,312.68317,513.44757
8,0.058,-168.68588,330.77328,628.4906,-180.76729,377,551.90186,-130.99277,312.41849,513.65479
9,0.067,-168.73152,330.77991,628.23419,-181.00189,376.71887,551.76135,-130.99277,312.41849,513.65479
10,0.075,-168.96175,330.47714,628.32892,-180.76729,377,551.90186,-130.80844,312.3613,513.435
11,0.083,-168.86745,330.38602,628.12122,-180.76729,377,551.90186,-130.46822,312.05588,513.26038
12,0.092,-168.86745,330.38602,628.12122,-180.79988,376.7959,551.88367,-130.46545,311.77701,512.82141
13,0.1,-168.83011,329.26868,627.58569,-181.16972,376.40671,551.94043,-130.46545,311.77701,512.82141
14,0.108,-168.83011,329.26868,627.58569,-181.16972,376.40671,551.94043,-130.46545,311.77701,512.82141
15,0.117,-168.63475,328.92621,627.43188,-181.16972,376.40671,551.94043,-130.46545,311.77701,512.82141
16,0.125,-168.63475,328.92621,627.43188,-181.16972,376.40671,551.94043,-130.46545,311.77701,512.82141
17,0.133,-168.75134,329.40109,627.31879,-181.3717,376.32968,551.81812,-130.46545,311.77701,512.82141
18,0.142,-168.75134,329.40109,627.31879,-181.3717,376.32968,551.81812,-130.46545,311.77701,512.82141
19,0.15,-168.83011,329.26868,627.58569,-181.3717,376.32968,551.81812,-130.46545,311.77701,512.82141
20,0.158,-168.97012,329.36642,627.53687,-181.3717,376.32968,551.81812,-130.8056,312.08249,512.99609
21,0.167,-169.0862,330.35135,628.33923,-181.3717,376.32968,551.81812,-130.8056,312.08249,512.99609
22,0.175,-169.00742,330.48373,628.07245,-181.3717,376.32968,551.81812,-130.8056,312.08249,512.99609
23,0.183,-169.0862,330.35135,628.33923,-181.3717,376.32968,551.81812,-130.8056,312.08249,512.99609
24,0.192,-169.00742,330.48373,628.07245,-181.59814,376.4115,551.97217,-130.8056,312.08249,512.99609
25,0.2,-168.96175,330.47714,628.32892,-181.3717,376.32968,551.81812,-130.8056,312.08249,512.99609
26,0.208,-168.96175,330.47714,628.32892,-181.3717,376.32968,551.81812,-130.80844,312.3613,513.435
27,0.217,-169.00742,330.48373,628.07245,-181.4631,376.39713,551.67938,-130.8056,312.08249,512.99609
28,0.225,-168.96175,330.47714,628.32892,-181.4631,376.39713,551.67938,-130.8056,312.08249,512.99609
29,0.233,-168.96175,330.47714,628.32892,-181.4631,376.39713,551.67938,-130.8056,312.08249,512.99609
30,0.242,-168.96175,330.47714,628.32892,-181.4631,376.39713,551.67938,-130.80844,312.3613,513.435
31,0.25,-168.96175,330.47714,628.32892,-181.3717,376.32968,551.81812,-130.8056,312.08249,512.99609
32,0.258,-168.68588,330.77328,628.4906,-180.76729,377,551.90186,-130.80844,312.3613,513.435
33,0.267,-168.68588,330.77328,628.4906,-180.76729,377,551.90186,-130.80844,312.3613,513.435
34,0.275,-168.46307,330.83792,628.59222,-181.3717,376.32968,551.81812,-130.80844,312.3613,513.435
35,0.283,-168.49762,330.70892,628.71234,-181.3717,376.32968,551.81812,-130.80844,312.3613,513.435
36,0.292,-168.49762,330.70892,628.71234,-181.16972,376.40671,551.94043,-130.46822,312.05588,513.26038
37,0.3,-168.3577,330.61115,628.76111,-180.81412,376.82172,552.09772,-130.46822,312.05588,513.26038
38,0.308,-168.3577,330.61115,628.76111,-180.56525,377.07697,552.02417,-130.46822,312.05588,513.26038
39,0.317,-168.34917,330.75601,628.41284,-180.40756,377.0759,551.97369,-130.46545,311.77701,512.82141
40,0.325,-168.34917,330.75601,628.41284,-180.40756,377.0759,551.97369,-130.46545,311.77701,512.82141
41,0.333,-168.13599,330.51303,628.56824,-180.56525,377.07697,552.02417,-130.46545,311.77701,512.82141
42,0.342,-168.51764,329.88715,628.49628,-180.56525,377.07697,552.02417,-130.46545,311.77701,512.82141
43,0.35,-168.29823,329.7193,628.15997,-180.56525,377.07697,552.02417,-130.46545,311.77701,512.82141
44,0.358,-168.43884,330.01965,628.22943,-180.56525,377.07697,552.02417,-130.46545,311.77701,512.82141
45,0.367,-168.43884,330.01965,628.22943,-180.56525,377.07697,552.02417,-130.46822,312.05588,513.26038
46,0.375,-168.43884,330.01965,628.22943,-180.56525,377.07697,552.02417,-130.80844,312.3613,513.435
47,0.383,-168.63347,330.31503,628.59949,-180.56525,377.07697,552.02417,-130.8056,312.08249,512.99609
48,0.392,-168.3577,330.61115,628.76111,-180.56525,377.07697,552.02417,-130.8056,312.08249,512.99609
49,0.4,-168.3577,330.61115,628.76111,-180.48132,377.32727,552.18671,-130.91476,312.93985,513.25873
50,0.408,-168.3577,330.61115,628.76111,-180.7077,377.40903,552.34064,-131.1075,313.20453,513.05145
51,0.417,-168.3577,330.61115,628.76111,-180.56525,377.07697,552.02417,-131.00117,312.62598,513.22778
52,0.425,-168.49762,330.70892,628.71234,-180.56525,377.07697,552.02417,-131.1075,313.20453,513.05145
53,0.433,-168.3577,330.61115,628.76111,-180.48132,377.32727,552.18671,-130.91476,312.93985,513.25873
54,0.442,-168.49762,330.70892,628.71234,-180.7077,377.40903,552.34064,-131.1075,313.20453,513.05145
55,0.45,-168.49762,330.70892,628.71234,-180.79166,377.15878,552.17816,-131.29182,313.26172,513.27118
56,0.458,-168.49762,330.70892,628.71234,-180.79166,377.15878,552.17816,-131.29182,313.26172,513.27118
57,0.467,-168.3577,330.61115,628.76111,-180.64186,377.42773,552.37225,-131.09909,312.99707,513.47845
58,0.475,-168.49762,330.70892,628.71234,-180.7077,377.40903,552.34064,-131.09909,312.99707,513.47845
59,0.483,-168.33237,330.61328,629.02246,-180.79166,377.15878,552.17816,-131.09909,312.99707,513.47845
60,0.492,-168.57643,330.57639,628.97913,-180.56525,377.07697,552.02417,-130.99277,312.41849,513.65479
61,0.5,-168.41119,330.48068,629.28925,-180.56525,377.07697,552.02417,-130.99277,312.41849,513.65479
62,0.508,-168.55112,330.57849,629.24048,-180.56525,377.07697,552.02417,-130.99277,312.41849,513.65479
63,0.517,-168.55112,330.57849,629.24048,-180.56525,377.07697,552.02417,-130.99277,312.41849,513.65479
64,0.525,-168.43651,330.47861,629.02789,-180.56525,377.07697,552.02417,-130.99277,312.41849,513.65479
65,0.533,-168.43651,330.47861,629.02789,-180.81412,376.82172,552.09772,-130.99277,312.41849,513.65479
66,0.542,-168.43651,330.47861,629.02789,-180.81412,376.82172,552.09772,-130.99277,312.41849,513.65479
67,0.55,-168.43651,330.47861,629.02789,-181.16972,376.40671,551.94043,-130.99277,312.41849,513.65479
68,0.558,-168.71228,330.18253,628.86627,-180.81412,376.82172,552.09772,-130.99277,312.41849,513.65479
69,0.567,-168.71228,330.18253,628.86627,-180.81412,376.82172,552.09772,-130.99277,312.41849,513.65479
70,0.575,-168.71228,330.18253,628.86627,-180.81412,376.82172,552.09772,-130.99277,312.41849,513.65479
71,0.583,-168.71228,330.18253,628.86627,-180.81412,376.82172,552.09772,-130.99277,312.41849,513.65479
72,0.592,-168.85223,330.2803,628.8175,-180.97467,376.92221,552.28333,-130.99277,312.41849,513.65479
73,0.6,-168.90059,330.24695,628.64447,-181.2011,377.00397,552.43732,-130.99277,312.41849,513.65479
74,0.608,-169.20743,330.31552,628.66351,-181.2011,377.00397,552.43732,-130.99277,312.41849,513.65479
75,0.617,-169.0191,330.25116,628.88531,-181.2011,377.00397,552.43732,-130.99277,312.41849,513.65479
76,0.625,-169.0191,330.25116,628.88531,-181.2011,377.00397,552.43732,-130.99277,312.41849,513.65479
77,0.633,-169.21834,330.32254,628.87476,-181.2011,377.00397,552.43732,-131.09909,312.99707,513.47845
78,0.642,-168.74329,330.54727,629.04694,-181.11716,377.25421,552.59973,-131.29182,313.26172,513.27118
79,0.65,-168.94249,330.61865,629.03644,-181.2011,377.00397,552.43732,-131.29182,313.26172,513.27118
80,0.658,-168.91716,330.62073,629.29773,-181.11716,377.25421,552.59973,-131.29182,313.26172,513.27118
81,0.667,-168.91716,330.62073,629.29773,-181.11716,377.25421,552.59973,-131.29182,313.26172,513.27118
82,0.675,-169.08784,330.69647,629.4729,-181.1035,377.27917,552.84149,-131.29182,313.26172,513.27118
83,0.683,-169.08784,330.69647,629.4729,-181.1035,377.27917,552.84149,-131.29182,313.26172,513.27118
84,0.692,-169.08784,330.69647,629.4729,-181.0799,377.35397,553.09668,-131.37503,313.83591,513.32922
85,0.7,-169.08784,330.69647,629.4729,-181.24232,377.32843,553.17273,-131.24413,314.31812,513.52319
86,0.708,-169.25577,330.81824,629.41095,-181.0799,377.35397,553.09668,-131.24413,314.31812,513.52319
87,0.717,-169.08784,330.69647,629.4729,-181.24232,377.32843,553.17273,-131.48004,314.17984,513.71588
88,0.725,-169.74023,330.88144,629.66858,-181.24232,377.32843,553.17273,-131.48004,314.17984,513.71588
89,0.733,-170.00363,330.97937,629.53247,-181.24232,377.32843,553.17273,-131.48004,314.17984,513.71588
90,0.742,-169.84984,330.96542,629.83673,-181.24232,377.32843,553.17273,-131.18332,313.09207,513.86957
91,0.75,-170.08961,331.06561,629.94452,-181.52834,377.00131,552.88812,-130.95143,313.04565,514.74152
92,0.758,-170.35565,331.16342,629.78131,-181.808,376.68427,552.81342,-131.07703,312.51352,514.04584
93,0.767,-170.35565,331.16342,629.78131,-182.1395,376.32114,552.41888,-131.22867,312.28021,513.84747
94,0.775,-169.98001,330.98169,629.77631,-182.1395,376.32114,552.41888,-131.22867,312.28021,513.84747
95,0.783,-170.01617,330.58536,629.50702,-182.1395,376.32114,552.41888,-131.44952,312.17596,514.00024
96,0.792,-169.84624,330.64578,629.23163,-182.1395,376.32114,552.41888,-131.44952,312.17596,514.00024
97,0.8,-169.84624,330.64578,629.23163,-182.1395,376.32114,552.41888,-131.22867,312.28021,513.84747
98,0.808,-169.6783,330.52411,629.29358,-182.03999,376.4939,552.75659,-131.22867,312.28021,513.84747
99,0.817,-170.10966,330.74371,629.09546,-182.1438,376.78928,552.90363,-130.99277,312.41849,513.65479
100,0.825,-170.10966,330.74371,629.09546,-182.49532,376.65335,553.02057,-131.29182,313.26172,513.27118
101,0.833,-170.3521,330.84384,629.17609,-182.64896,376.965,553.13904,-131.29182,313.26172,513.27118
102,0.842,-170.86348,330.54675,629.11884,-182.89124,377.04062,553.20111,-131.37503,313.83591,513.32922
103,0.85,-170.86348,330.54675,629.11884,-183.02887,377.0564,553.05353,-131.24413,314.31812,513.52319
104,0.858,-169.68689,330.58286,629.23468,-183.56026,377.13959,552.70508,-131.45821,314.83179,513.31152
105,0.867,-170.86348,330.54675,629.11884,-183.47624,377.38965,552.86743,-131.45821,314.83179,513.31152
106,0.875,-170.71884,330.46481,629.12341,-183.77242,378.2413,553.23309,-131.45821,314.83179,513.31152
107,0.883,-171.06041,330.60025,629.12323,-184.25351,378.5275,552.97046,-131.45821,314.83179,513.31152
108,0.892,-171.37837,330.72415,629.07153,-184.45752,378.60907,553.17194,-131.45821,314.83179,513.31152
109,0.9,-171.37837,330.72415,629.07153,-184.45752,378.60907,553.17194,-131.33266,315.36426,514.00751
110,0.908,-171.37837,330.72415,629.07153,-184.95184,378.66913,553.18018,-131.34647,315.55505,513.78638
111,0.917,-171.45891,331.01776,628.64093,-184.73796,378.89169,553.43488,-131.34647,315.55505,513.78638
112,0.925,-171.63777,331.46298,628.17596,-185.03285,378.56686,553.23053,-131.58243,315.41672,513.97913
113,0.933,-171.63777,331.46298,628.17596,-184.95184,378.66913,553.18018,-131.56863,315.22592,514.20026
114,0.942,-171.80777,331.40259,628.45148,-184.67139,378.38641,552.91718,-131.78928,315.1218,514.35284
115,0.95,-172.89543,330.87607,628.26917,-184.35309,378.35495,552.633,-131.56863,315.22592,514.20026
116,0.958,-172.86362,330.72748,628.38934,-184.53358,378.08017,552.34589,-131.78928,315.1218,514.35284
117,0.967,-172.41096,330.97653,628.14911,-184.4984,378.04117,552.10223,-131.78928,315.1218,514.35284
118,0.975,-172.72545,330.93634,627.99365,-184.44632,377.46933,551.87817,-131.78928,315.1218,514.35284
119,0.983,-172.89543,330.87607,628.26917,-184.44632,377.46933,551.87817,-131.57524,314.60809,514.56439
120,0.992,-172.69064,330.64874,628.16779,-184.44632,377.46933,551.87817,-131.70627,314.12576,514.37048
121,1,-172.69064,330.64874,628.16779,-183.81683,376.78082,552.03137,-131.62297,313.55142,514.3125
122,1.008,-172.17445,330.60065,628.16791,-183.64532,376.71008,552.03955,-132.03612,313.18143,514.42719
123,1.017,-172.17445,330.60065,628.16791,-183.64532,376.71008,552.03955,-132.03612,313.18143,514.42719
124,1.025,-171.93813,330.56631,628.4245,-183.832,376.54773,551.77112,-131.92984,312.60266,514.60345
125,1.033,-171.96356,330.56439,628.16296,-183.27789,376.60287,552.00946,-131.709,312.70694,514.45074
126,1.042,-171.57335,330.4162,628.31372,-182.97887,376.50201,551.86884,-131.51627,312.44232,514.65784
127,1.05,-171.06183,330.71335,628.37115,-182.97887,376.50201,551.86884,-132.00957,312.65271,514.55603
128,1.058,-171.06183,330.71335,628.37115,-182.97887,376.50201,551.86884,-131.709,312.70694,514.45074
129,1.067,-170.95341,330.66251,628.19867,-182.97887,376.50201,551.86884,-131.51627,312.44232,514.65784
130,1.075,-170.75648,330.60904,628.19427,-182.97887,376.50201,551.86884,-131.709,312.70694,514.45074
131,1.083,-170.75648,330.60904,628.19427,-182.97887,376.50201,551.86884,-131.709,312.70694,514.45074
132,1.092,-170.70311,330.56335,628.19934,-182.69128,376.43524,551.98718,-131.709,312.70694,514.45074
133,1.1,-170.18066,330.73816,628.36359,-182.35664,376.42404,552.09869,-131.709,312.70694,514.45074
134,1.108,-169.9382,330.63861,628.2829,-182.51912,376.39847,552.17474,-131.62257,313.02103,514.48163
135,1.117,-170.18066,330.73816,628.36359,-182.51912,376.39847,552.17474,-130.97357,313.52917,514.17432
136,1.125,-169.9382,330.63861,628.2829,-181.99069,376.32159,552.10095,-131.16629,313.79388,513.96716
137,1.133,-170.0923,330.71243,628.5708,-181.99069,376.32159,552.10095,-131.10315,312.81226,514.54315
138,1.142,-170.0923,330.71243,628.5708,-181.99069,376.32159,552.10095,-131.51627,312.44232,514.65784
139,1.15,-169.98503,330.66431,628.44543,-181.7587,376.51199,552.15778,-131.10315,312.81226,514.54315
140,1.158,-169.68689,330.58286,629.23468,-181.7587,376.51199,552.15778,-131.51627,312.44232,514.65784
141,1.167,-169.86525,330.62021,628.51886,-181.7587,376.51199,552.15778,-131.10315,312.81226,514.54315
142,1.175,-170.14516,330.74063,628.72955,-181.7587,376.51199,552.15778,-131.10315,312.81226,514.54315
143,1.183,-170.14516,330.74063,628.72955,-181.7587,376.51199,552.15778,-131.10315,312.81226,514.54315
144,1.192,-169.98157,330.68219,628.86816,-181.7587,376.51199,552.15778,-131.10315,312.81226,514.54315
145,1.2,-169.98157,330.68219,628.86816,-181.7587,376.51199,552.15778,-131.10315,312.81226,514.54315
146,1.208,-170.19803,330.76898,628.88831,-181.7587,376.51199,552.15778,-131.10315,312.81226,514.54315
147,1.217,-169.98157,330.68219,628.86816,-181.7587,376.51199,552.15778,-131.10315,312.81226,514.54315
148,1.225,-169.85938,330.6445,629.09613,-181.7587,376.51199,552.15778,-131.10315,312.81226,514.54315
149,1.233,-169.85938,330.6445,629.09613,-181.7587,376.51199,552.15778,-131.10315,312.81226,514.54315
150,1.242,-169.69144,330.52283,629.15808,-181.7587,376.51199,552.15778,-131.10315,312.81226,514.54315
151,1.25,-169.69144,330.52283,629.15808,-181.55672,376.58902,552.28009,-130.86722,312.95053,514.35059
152,1.258,-169.36369,330.40039,629.31134,-181.54308,376.61407,552.52191,-131.10315,312.81226,514.54315
153,1.267,-169.36369,330.40039,629.31134,-181.54308,376.61407,552.52191,-131.10315,312.81226,514.54315
154,1.275,-169.53166,330.52216,629.24939,-181.54308,376.61407,552.52191,-131.10315,312.81226,514.54315
155,1.283,-170.10966,330.74371,629.09546,-181.45918,376.86432,552.68433,-131.10315,312.81226,514.54315
156,1.292,-170.10966,330.74371,629.09546,-181.808,376.68427,552.81342,-131.10315,312.81226,514.54315
157,1.3,-170.3521,330.84384,629.17609,-181.52206,377.01141,553.09802,-131.10315,312.81226,514.54315
158,1.308,-170.3521,330.84384,629.17609,-181.85782,377.11642,553.18823,-131.32394,312.70801,514.69586
159,1.317,-170.52208,330.78339,629.45148,-181.97733,377.17081,553.36188,-131.32394,312.70801,514.69586
160,1.325,-170.63168,330.86734,629.61969,-181.97733,377.17081,553.36188,-131.62297,313.55142,514.3125
161,1.333,-170.63168,330.86734,629.61969,-181.69756,377.48779,553.43652,-131.62297,313.55142,514.3125
162,1.342,-170.63168,330.86734,629.61969,-181.69756,377.48779,553.43652,-131.35457,314.71219,514.41174
163,1.35,-170.63168,330.86734,629.61969,-181.93515,377.54935,553.3927,-131.57524,314.60809,514.56439
164,1.358,-170.63168,330.86734,629.61969,-181.93515,377.54935,553.3927,-131.48557,314.22989,514.21783
165,1.367,-170.82858,330.92081,629.62408,-181.69756,377.48779,553.43652,-131.57524,314.60809,514.56439
166,1.375,-170.82858,330.92081,629.62408,-181.69756,377.48779,553.43652,-131.57524,314.60809,514.56439
167,1.383,-170.82858,330.92081,629.62408,-181.93515,377.54935,553.3927,-131.57524,314.60809,514.56439
168,1.392,-170.63168,330.86734,629.61969,-181.69756,377.48779,553.43652,-131.99535,314.06467,514.48267
169,1.4,-170.82858,330.92081,629.62408,-182.13718,377.47238,553.27045,-131.99535,314.06467,514.48267
170,1.408,-170.82858,330.92081,629.62408,-182.13718,377.47238,553.27045,-131.99535,314.06467,514.48267
171,1.417,-170.82858,330.92081,629.62408,-182.13718,377.47238,553.27045,-131.70627,314.12576,514.37048
172,1.425,-170.82858,330.92081,629.62408,-182.13718,377.47238,553.27045,-131.70627,314.12576,514.37048
173,1.433,-170.82858,330.92081,629.62408,-182.17931,377.09384,553.23962,-131.61314,312.64682,514.80804
174,1.442,-170.82858,330.92081,629.62408,-182.17931,377.09384,553.23962,-131.61314,312.64682,514.80804
175,1.45,-170.63168,330.86734,629.61969,-181.72406,376.93448,552.97577,-131.32394,312.70801,514.69586
176,1.458,-170.63168,330.86734,629.61969,-181.44357,376.78677,552.85962,-131.32394,312.70801,514.69586
177,1.467,-170.3656,330.76956,629.78296,-181.32631,377.07825,553.01031,-132.02637,312.27682,514.92267
178,1.475,-170.25598,330.68564,629.61475,-181.16388,377.10379,552.93433,-131.81686,312.38812,514.76312
179,1.483,-169.84824,330.46368,629.56897,-181.24232,377.32843,553.17273,-131.81686,312.38812,514.76312
180,1.492,-169.36369,330.40039,629.31134,-180.89302,377.32394,553.28339,-131.10315,312.81226,514.54315
181,1.5,-169.36369,330.40039,629.31134,-180.89302,377.32394,553.28339,-131.40369,312.75809,514.6485
182,1.508,-169.36369,330.40039,629.31134,-180.89302,377.32394,553.28339,-131.10315,312.81226,514.54315
183,1.517,-169.36369,330.40039,629.31134,-180.89302,377.32394,553.28339,-131.10315,312.81226,514.54315
184,1.525,-169.36369,330.40039,629.31134,-180.89302,377.32394,553.28339,-131.10315,312.81226,514.54315
185,1.533,-168.88867,330.62512,629.48346,-180.89302,377.32394,553.28339,-130.86722,312.95053,514.35059
186,1.542,-168.72316,330.52158,629.53058,-180.89302,377.32394,553.28339,-130.86722,312.95053,514.35059
187,1.55,-168.72316,330.52158,629.53058,-180.89302,377.32394,553.28339,-130.86722,312.95053,514.35059
188,1.558,-168.88867,330.62512,629.48346,-180.89302,377.32394,553.28339,-130.86722,312.95053,514.35059
189,1.567,-168.91704,330.70825,629.41895,-180.9304,377.45493,553.78296,-130.86722,312.95053,514.35059
190,1.575,-168.72316,330.52158,629.53058,-180.9304,377.45493,553.78296,-131.10315,312.81226,514.54315
191,1.583,-169.05858,330.56473,629.75879,-180.9304,377.45493,553.78296,-131.10315,312.81226,514.54315
192,1.592,-168.91704,330.70825,629.41895,-180.9304,377.45493,553.78296,-131.10315,312.81226,514.54315
193,1.6,-169.12766,330.6138,629.73413,-180.9304,377.45493,553.78296,-131.10315,312.81226,514.54315
194,1.608,-169.12766,330.6138,629.73413,-180.9304,377.45493,553.78296,-131.10315,312.81226,514.54315
195,1.617,-169.25777,330.63605,629.74823,-180.9304,377.45493,553.78296,-131.10315,312.81226,514.54315
196,1.625,-169.36737,330.72009,629.91638,-181.09282,377.42935,553.85895,-131.33337,312.46536,514.91229
