Frame#,Time,L.Forearm.x,L.Forearm.y,L.Forearm.z,L.Ulna.x,L.Ulna.y,L.Ulna.z,L.Radius.x,L.Radius.y,L.Radius.z
1,0,1299.3186,-111.80756,1080.37952,1302.32361,-141.91187,956.55939,1269.8407,-52.17511,913.57269
2,0.008,1294.36975,-114.96939,1080.99731,1297.13708,-141.76024,957.39099,1265.52771,-52.35145,913.44128
3,0.017,1292.50708,-114.5161,1081.229,1293.74548,-142.34906,957.15802,1262.67078,-54.06805,913.8067
4,0.025,1288.36633,-113.42226,1081.00281,1291.33972,-142.12837,956.92242,1259.83643,-54.60142,913.78442
5,0.033,1283.69043,-114.8335,1081.16516,1287.76062,-142.9655,957.0979,1254.62036,-53.56104,913.14069
6,0.042,1280.83057,-114.83759,1081.06104,1283.40503,-142.02103,956.22241,1250.89612,-54.0863,913.11035
7,0.05,1277.23853,-112.13104,1081.14709,1279.79688,-142.66577,956.56427,1247.57214,-54.58172,912.83203
8,0.058,1271.72778,-113.69209,1081.27075,1276.54761,-142.64986,957.27539,1244.16516,-54.96592,912.38934
9,0.067,1268.87744,-115.39,1081.05945,1274.09375,-142.83838,956.02484,1239.87476,-54.3609,912.54376
10,0.075,1264.69812,-113.36535,1080.41626,1269.42505,-142.02405,956.23676,1237.06494,-54.22043,913.36926
11,0.083,1261.00403,-113.98832,1080.34448,1265.86133,-143.02837,955.37299,1233.07129,-53.59974,911.34723
12,0.092,1258.8186,-113.40094,1080.58044,1262.12048,-143.01346,956.32361,1229.68469,-52.76576,911.82422
13,0.1,1252.9718,-112.10258,1080.28369,1258.75708,-141.26167,955.85022,1226.69214,-52.6525,911.60028
14,0.108,1249.29773,-111.63562,1079.8429,1254.82764,-141.81001,955.17413,1223.61694,-52.53061,911.62286
15,0.117,1246.58398,-112.35162,1079.78589,1251.88757,-141.97359,954.84064,1220.76648,-53.04965,910.39191
16,0.125,1242.07751,-110.3979,1078.24707,1247.22424,-140.42598,955.55493,1217.5647,-53.39162,910.32947
17,0.133,1237.82056,-111.2695,1078.84387,1243.98291,-139.41434,955.52307,1213.27917,-50.53867,910.21234
18,0.142,1233.51111,-111.65844,1078.59351,1240.11682,-140.48051,954.25116,1209.64612,-50.46389,909.62061
19,0.15,1230.26941,-110.28806,1078.06689,1236.16162,-137.93794,953.35156,1207.03516,-50.24583,909.81384
20,0.158,1227.35388,-109.64183,1077.28027,1231.99231,-138.1447,953.54181,1202.48926,-49.54729,909.98297
21,0.167,1222.83264,-109.98989,1077.22314,1228.84033,-136.90688,953.33386,1199.03699,-47.74336,909.04895
22,0.175,1218.01025,-109.36064,1076.80164,1226.36035,-137.69113,953.68317,1195.57434,-47.4972,908.93115
23,0.183,1214.79944,-107.01118,1076.08911,1221.82568,-135.98709,952.58514,1191.47021,-46.58387,909.33582
24,0.192,1210.66162,-105.97269,1075.62793,1217.7395,-135.84851,951.9422,1187.10779,-46.45774,907.84052
25,0.2,1207.06812,-106.5556,1076.2135,1214.10522,-133.96355,952.16046,1183.3186,-45.71549,907.56305
26,0.208,1201.9231,-106.61706,1076.05042,1209.59814,-134.85419,951.40869,1181.04272,-45.16582,906.69659
27,0.217,1197.48499,-104.56752,1074.87073,1206.72119,-133.67419,951.29718,1177.42639,-45.06992,906.98511
28,0.225,1194.72461,-102.98443,1075.15759,1201.91431,-133.85785,950.1087,1171.98828,-44.70632,906.28729
29,0.233,1189.0564,-102.88301,1074.04517,1198.83752,-132.51524,950.64502,1168.495,-42.71399,904.75934
30,0.242,1185.03772,-102.7397,1074.51746,1194.7218,-132.22298,950.51416,1164.65454,-41.59385,904.68506
31,0.25,1183.2428,-101.93916,1074.28149,1190.16113,-130.14264,949.28088,1160.88635,-40.06659,904.54639
32,0.258,1178.52063,-100.47889,1073.07898,1186.16736,-129.8672,949.2406,1154.8147,-40.6863,903.94861
33,0.267,1174.58789,-100.54359,1072.78943,1181.94983,-129.30899,948.80341,1151.90723,-39.9252,903.4057
34,0.275,1169.08521,-98.79095,1072.3042,1177.19165,-129.09756,949.19299,1147.73193,-38.40285,903.48907
35,0.283,1165.34204,-97.75304,1071.95813,1173.97083,-127.54706,948.11035,1142.74219,-38.51119,902.34998
36,0.292,1161.2843,-96.0176,1071.88696,1169.27954,-127.62968,949.00751,1138.32861,-39.00564,902.3999
37,0.3,1158.10791,-96.90902,1071.94653,1165.70691,-125.51169,948.43158,1134.93127,-38.26963,902.46533
38,0.308,1151.67761,-94.65339,1071.30078,1161.07776,-125.91151,948.84009,1130.41028,-37.47625,901.07208
39,0.317,1149.7832,-94.57356,1071.36951,1157.37695,-125.60384,948.11383,1125.17993,-38.85806,901.83014
40,0.325,1144.92664,-92.82336,1070.72534,1151.94873,-123.54587,948.74725,1120.64795,-36.40578,901.3667
41,0.333,1140.28479,-93.11474,1070.7782,1148.70203,-123.62666,948.61261,1116.61084,-34.99343,901.62213
42,0.342,1136.1665,-91.71452,1071.56018,1144.51367,-123.15825,947.979,1111.85413,-36.6685,901.69763
43,0.35,1132.78711,-90.72459,1070.30884,1139.73828,-122.44043,948.58258,1107.56104,-34.89174,901.05054
44,0.358,1129.17505,-90.63668,1071.62439,1135.98157,-120.90114,948.32849,1103.20703,-34.51351,901.75195
45,0.367,1123.93408,-89.34338,1071.71643,1131.8584,-119.99471,948.68762,1097.45764,-33.69111,901.76337
46,0.375,1120.05872,-86.64687,1071.06433,1128.58301,-120.16282,949.49377,1093.71106,-33.70175,901.77515
47,0.383,1116.0896,-86.59711,1072.86328,1122.66919,-118.93248,950.09033,1089.72058,-32.6363,902.23663
48,0.392,1111.89417,-85.08624,1073.47803,1120.14429,-117.48521,949.74969,1085.07178,-32.20029,902.21509
49,0.4,1106.43982,-85.08937,1073.80176,1115.10718,-116.33929,950.81604,1080.84985,-31.70198,902.54474
50,0.408,1103.92822,-84.17875,1075.0675,1111.89355,-116.23933,951.79572,1075.18091,-30.26175,903.89124
51,0.417,1100.08667,-82.59988,1074.93042,1106.38171,-114.56835,953.35938,1071.89697,-29.26426,904.62512
52,0.425,1095.29932,-80.0153,1075.91333,1103.7948,-114.12032,953.30878,1067.2489,-28.66079,906.48126
53,0.433,1091.4187,-81.20169,1076.70166,1100.94849,-113.26906,953.48859,1063.91858,-28.1639,906.5293
54,0.442,1087.64209,-79.75139,1077.74329,1096.10718,-112.08527,954.58655,1059.4353,-26.33945,907.30835
55,0.45,1083.62708,-79.46432,1077.20703,1091.80286,-112.10205,955.74542,1055.73291,-26.00156,907.76233
56,0.458,1081.33154,-77.84404,1078.20203,1088.62012,-109.94745,956.05322,1051.58704,-24.95806,908.78235
57,0.467,1077.83057,-78.11768,1079.09619,1084.76428,-109.64494,956.73322,1047.08997,-24.38866,910.03845
58,0.475,1072.77112,-77.98936,1080.25989,1080.31372,-107.48601,955.93561,1043.03479,-23.09242,910.35608
59,0.483,1069.74231,-75.65051,1079.34924,1076.23755,-108.14858,956.82507,1039.7644,-23.11252,910.77124
60,0.492,1065.59131,-76.18935,1080.08264,1073.89429,-106.98276,957.68634,1035.18506,-21.79651,910.37195
61,0.5,1062.57629,-74.74114,1079.76941,1069.83276,-105.73186,957.18665,1031.50769,-20.33144,910.91193
62,0.508,1058.7052,-74.27139,1079.24792,1066.56677,-105.43748,956.82117,1028.21741,-21.08184,910.54541
63,0.517,1055.63892,-72.93251,1079.44287,1062.62732,-104.52485,956.26868,1023.97095,-19.43344,911.05957
64,0.525,1052.37854,-73.47141,1080.15125,1059.0166,-104.412,956.60736,1019.46417,-20.3719,911.33368
65,0.533,1047.88562,-71.62073,1080.06885,1056.08154,-104.17171,956.79938,1015.67639,-19.04941,911.10376
66,0.542,1043.13123,-71.55352,1080.78894,1051.56348,-103.33846,957.13214,1011.31616,-18.39021,912.31396
67,0.55,1039.68005,-72.25752,1080.91943,1048.36328,-104.6692,957.29913,1006.94006,-20.10702,911.73761
68,0.558,1035.57202,-70.17841,1079.71741,1045.00024,-103.59586,957.6181,1001.75885,-18.66674,912.3252
69,0.567,1031.9845,-69.85254,1079.99182,1040.87439,-101.81948,956.77423,998.37848,-18.85826,911.81964
70,0.575,1029.1615,-71.37405,1080.90601,1037.09167,-103.62038,957.00653,994.07861,-19.03722,911.46997
71,0.583,1024.43506,-70.93443,1080.27197,1032.12292,-102.51325,958.08221,990.16895,-18.04227,912.49524
72,0.592,1020.81232,-70.27201,1080.86096,1029.37366,-101.0863,958.35815,986.32214,-18.987,912.58942
73,0.6,1016.33624,-70.81454,1081.85706,1023.91626,-102.70944,958.20251,980.6554,-18.30098,912.98523
74,0.608,1012.67554,-70.58878,1081.37585,1020.3139,-101.24248,958.47327,976.83557,-17.68196,913.04688
75,0.617,1008.59784,-71.26361,1081.88953,1016.95355,-101.05402,957.95905,970.85675,-17.62286,912.83679
76,0.625,1004.48126,-70.45248,1080.61108,1010.08765,-101.18554,957.7002,967.83087,-17.88389,912.73291
77,0.633,999.02069,-70.33685,1081.76611,1007.67706,-100.82891,957.5943,963.56311,-18.93579,912.98444
78,0.642,994.25299,-70.29496,1080.2428,1003.4458,-100.46103,957.42316,958.48364,-17.84746,913.08722
79,0.65,990.1438,-70.22742,1081.2572,998.20331,-101.5868,957.61383,954.97443,-18.10704,912.88037
80,0.658,985.8913,-69.61255,1080.71851,995.1507,-101.00915,958.02148,949.32538,-17.41244,912.30884
81,0.667,979.505,-71.13727,1081.22119,988.10443,-101.54853,956.27338,944.508,-17.52596,911.9939
82,0.675,976.34015,-70.20776,1079.72778,985.08191,-101.34495,956.98602,940.01422,-17.68971,911.24323
83,0.683,968.62225,-71.02891,1079.87097,979.27344,-101.09662,956.28912,935.64709,-18.32897,911.10785
84,0.692,966.43372,-70.57957,1079.66968,975.09961,-101.48512,955.98688,929.94458,-17.63825,911.8042
85,0.7,958.38611,-71.49252,1078.78503,967.99243,-101.56853,954.17847,925.3891,-17.62299,910.15314
86,0.708,954.82562,-71.1243,1077.72656,963.80719,-102.54739,954.30231,921.13513,-19.18036,909.99304
87,0.717,948.14868,-71.1572,1076.62146,957.02417,-102.4883,953.69006,916.11548,-18.65419,908.47211
88,0.725,944.53168,-71.89643,1076.29724,953.21851,-103.08598,953.56409,911.68915,-19.39385,908.24133
89,0.733,937.02203,-71.81738,1075.84644,947.03992,-103.56336,951.95282,905.17828,-19.044,906.97363
90,0.742,933.01843,-72.68567,1074.0769,941.93604,-102.76869,951.38757,901.53558,-19.09998,906.63745
91,0.75,925.23914,-72.51278,1074.17932,935.1275,-103.95712,951.08752,895.63751,-19.24602,906.03821
92,0.758,921.2851,-74.32171,1072.86267,930.51007,-104.00745,950.2207,890.77142,-19.90628,904.72845
93,0.767,914.70984,-73.56839,1072.26746,923.44257,-104.76473,949.47198,884.63647,-19.45845,904.00208
94,0.775,910.94189,-74.8896,1072.02478,919.11548,-105.31288,949.49854,879.44312,-20.19264,904.0694
95,0.783,902.71362,-74.90043,1071.06543,912.96368,-105.80343,948.00092,872.93738,-21.15293,903.1579
96,0.792,898.24353,-77.31242,1070.30969,906.30139,-106.7728,947.22565,866.71344,-20.43315,902.77258
97,0.8,892.24591,-75.97395,1070.07068,901.26233,-105.57763,946.77325,861.19312,-21.33641,901.52155
98,0.808,887.41675,-76.85104,1069.30859,895.7774,-108.32802,945.74921,854.64966,-21.3384,901.71045
99,0.817,879.59686,-77.8222,1068.36145,889.39197,-106.63286,946.04541,849.76782,-22.41403,900.86725
100,0.825,875.70416,-79.27876,1067.88037,883.48218,-108.71793,944.89594,843.45343,-22.04911,900.72015
101,0.833,867.95288,-79.43652,1067.17017,877.62457,-109.11505,943.90735,837.38306,-24.34448,901.04175
102,0.842,865.0849,-80.65163,1066.90381,872.71204,-109.97766,944.88892,832.21088,-22.95679,900.31805
103,0.85,858.40814,-81.06222,1067.40283,865.80884,-109.67216,942.91125,826.85559,-24.5622,900.24768
104,0.858,852.04517,-83.17088,1066.91992,859.60187,-110.57911,943.30914,820.18677,-24.23547,899.91119
105,0.867,847.39709,-83.40716,1066.56091,854.41193,-111.88236,942.92993,814.34052,-24.01667,899.64966
106,0.875,840.47583,-84.3987,1067.10596,848.09564,-111.49791,943.3432,808.7804,-25.16647,899.04535
107,0.883,834.26251,-83.4771,1067.65515,842.99255,-112.17546,943.23199,801.85919,-24.54509,900.02557
108,0.892,829.71838,-85.17759,1066.71826,835.51996,-112.65691,943.94464,795.80981,-25.35702,899.80371
109,0.9,822.29755,-84.20258,1067.18823,830.50568,-114.63894,944.42596,790.54419,-27.08047,899.96185
110,0.908,818.04205,-86.4825,1066.72437,823.58203,-112.85349,944.47894,786.94043,-27.78714,900.24548
111,0.917,811.51355,-85.99095,1067.22546,819.10706,-114.63401,944.12744,778.62,-27.69218,901.65826
112,0.925,805.78308,-87.19554,1067.97986,812.7901,-114.54579,943.93762,775.48639,-28.06955,901.47583
113,0.933,799.01526,-88.08517,1069.09399,807.70605,-115.1941,944.55005,768.68817,-29.04822,901.04712
114,0.942,796.3963,-89.46015,1069.31555,801.04871,-115.87672,944.32227,765.65955,-30.57641,900.69696
115,0.95,786.96204,-89.37058,1068.25903,796.79382,-116.38725,945.52954,758.59448,-29.69855,901.83698
116,0.958,783.98883,-91.11337,1068.08667,789.18195,-116.71071,945.94818,754.36597,-31.46177,902.44647
117,0.967,776.82898,-90.54832,1069.31628,783.61536,-119.48151,946.66119,748.15344,-31.51249,903.69836
118,0.975,770.44135,-92.66458,1070.82544,777.64435,-117.80328,946.73157,742.47095,-31.86765,904.1142
119,0.983,765.29047,-91.87189,1071.38354,771.42017,-119.51488,947.31512,737.91498,-31.74547,903.99335
120,0.992,760.21497,-94.00716,1071.50842,765.83484,-119.54305,946.86194,733.02759,-33.7632,904.32349
121,1,754.37103,-93.81857,1071.41101,760.48248,-119.48441,947.98151,727.13934,-32.78095,904.39233
122,1.008,750.65662,-95.08207,1070.94702,754.40906,-120.7051,948.48505,722.13904,-32.5812,905.81641
123,1.017,742.14087,-94.78568,1070.92065,749.10754,-120.60138,949.14539,715.28027,-34.54488,906.34088
124,1.025,737.77692,-93.57419,1072.75513,743.85217,-121.61795,948.81921,710.58289,-32.41986,905.55353
125,1.033,732.05182,-96.14317,1073.58765,737.64435,-121.7504,949.83411,706.08649,-34.84817,905.51288
126,1.042,726.05176,-93.88612,1074.2478,733.72583,-122.18655,949.67987,702.4704,-34.45799,905.55554
127,1.05,721.05341,-96.00699,1074.37317,727.63708,-122.17556,950.06165,696.59912,-34.90025,906.49438
128,1.058,715.33362,-94.51382,1074.35095,723.84137,-124.09611,951.36646,693.64984,-35.55133,907.47455
129,1.067,712.19305,-96.88538,1073.77478,716.12909,-123.80077,951.6236,686.32739,-35.45516,907.04517
130,1.075,707.7392,-94.94047,1074.99316,713.75183,-123.99961,951.77332,684.24811,-35.81293,906.90741
131,1.083,702.02087,-96.40526,1076.3645,707.14331,-123.89157,951.98395,676.86261,-36.58157,906.66272
132,1.092,696.82166,-94.65893,1077.20422,703.77808,-124.25311,952.4884,673.51398,-34.84732,908.07953
133,1.1,693.44781,-95.88403,1077.20996,699.09357,-123.71022,953.00592,666.44257,-36.94413,909.13159
134,1.108,688.3562,-94.84343,1077.50073,694.46869,-124.81194,953.06769,665.43677,-36.53148,908.84039
135,1.117,684.23602,-95.8078,1076.87134,690.45313,-124.45444,952.61591,657.27655,-36.98527,908.50586
136,1.125,677.56787,-95.4286,1076.10864,685.7157,-124.48718,953.01013,655.88733,-37.82171,908.27374
137,1.133,673.85693,-96.18147,1076.43567,680.67444,-124.50582,953.0235,648.48621,-36.59343,908.35565
138,1.142,669.17926,-95.97837,1077.27649,676.534,-124.59371,954.14606,647.04199,-37.94564,908.29486
139,1.15,664.37347,-96.16277,1077.58105,672.65515,-124.80733,953.88953,640.16595,-35.67938,908.78473
140,1.158,661.16187,-96.40887,1077.73474,667.47375,-124.63531,954.43182,637.40173,-36.9936,908.81055
141,1.167,655.05713,-96.05888,1076.55347,663.13647,-124.21309,953.70374,632.09058,-35.50108,907.19263
142,1.175,650.26758,-94.85767,1077.03174,658.39374,-123.86712,952.7995,629.20972,-36.83906,907.40204
143,1.183,646.78558,-94.7823,1076.9884,654.5553,-123.39692,953.12665,622.698,-35.93573,907.42755
144,1.192,641.06531,-94.87675,1076.26123,650.15283,-122.65894,952.77496,620.9422,-35.31575,907.19916
145,1.2,639.5412,-93.88424,1076.20959,644.47687,-122.68256,952.37378,615.14264,-34.44098,906.45648
146,1.208,631.9306,-93.34168,1074.93384,641.34802,-121.51579,951.26746,612.50891,-35.11375,905.37823
147,1.217,629.51312,-94.14536,1074.5426,636.58215,-121.18986,950.85938,606.54291,-32.7926,905.18262
148,1.225,623.5094,-92.39358,1073.74011,632.64703,-121.41933,950.63739,603.95679,-33.3708,904.39429
149,1.233,618.91382,-91.08725,1073.49841,627.65619,-120.97095,950.01337,598.12415,-31.37629,903.67456
150,1.242,616.00458,-89.79899,1072.11267,624.13721,-120.1231,948.953,593.24274,-31.74759,902.99542
151,1.25,610.65466,-88.23129,1071.90698,619.58801,-118.82147,947.95557,589.6275,-31.10462,902.28998
152,1.258,607.16571,-89.05408,1071.90527,615.44733,-118.79259,948.06549,583.54639,-30.59724,901.64038
153,1.267,602.5351,-87.16041,1070.72339,610.7782,-117.74963,947.0293,580.53705,-30.27999,900.91119
154,1.275,599.18665,-87.68346,1069.25635,605.70636,-115.36484,946.19464,575.77698,-28.16955,900.88385
155,1.283,593.24036,-86.25558,1068.62036,602.83124,-116.17182,945.62433,572.19867,-28.89278,900.00787
156,1.292,590.47992,-85.82411,1067.87231,596.79218,-115.50043,944.94611,566.38385,-28.10247,899.9248
157,1.3,585.46936,-84.51229,1067.33057,594.22705,-115.39604,943.21234,562.26532,-27.41023,898.48999
158,1.308,581.74139,-82.94447,1067.09167,589.00806,-113.5191,943.67242,558.79077,-26.74796,897.58405
159,1.317,578.03265,-81.35218,1068.41187,585.30676,-113.26623,943.00623,551.92792,-24.78191,896.82465
160,1.325,573.07013,-79.7221,1067.93457,581.33252,-111.56467,942.77124,550.1109,-24.64271,896.11975
161,1.333,569.6781,-79.1899,1067.46277,577.52545,-111.38354,942.98303,544.17102,-23.48166,896.28003
162,1.342,564.37299,-77.96496,1066.83838,572.68414,-109.74429,942.22693,539.80823,-22.911,896.56171
163,1.35,561.36603,-77.67879,1066.70068,569.45398,-109.44424,942.17792,536.14911,-22.88267,896.76593
164,1.358,556.72601,-75.35919,1066.80969,565.25458,-108.61975,942.92432,530.79498,-21.59348,897.00861
165,1.367,551.73065,-73.85846,1066.66138,560.12189,-106.93549,942.96051,527.771,-20.61269,896.08374
166,1.375,548.47607,-74.54481,1066.40515,557.36584,-106.87482,943.44305,521.13257,-19.33986,896.36096
167,1.383,543.45172,-72.92141,1067.04456,552.51129,-104.02134,943.04797,518.09662,-18.35729,896.51324
168,1.392,539.20428,-72.84349,1067.62134,548.76837,-104.7291,943.65955,514.80469,-16.25685,896.54669
169,1.4,535.55322,-69.9183,1069.31287,543.40771,-101.89215,944.65186,511.4447,-17.67477,896.70807
170,1.408,532.9212,-70.67777,1069.7887,540.94397,-101.63589,944.90454,504.92355,-15.57286,898.83856
171,1.417,526.74908,-68.48846,1068.71265,535.09399,-100.55231,946.18542,499.99692,-14.2764,899.8576
172,1.425,521.52582,-67.11752,1069.76514,531.2265,-99.78341,946.9234,496.74817,-14.41383,899.60144
173,1.433,519.67664,-66.61685,1070.54321,527.76392,-98.48034,947.75293,491.93228,-11.92054,900.80536
174,1.442,515.52271,-65.48663,1070.84998,522.57483,-98.56268,947.76288,490.42105,-11.58636,900.92358
175,1.45,510.96024,-66.24512,1072.60315,518.85333,-96.75126,949.8056,483.21262,-11.11002,902.32782
176,1.458,508.32318,-63.44592,1073.55029,515.27283,-95.05824,950.89447,478.67221,-10.53228,904.02075
177,1.467,504.17041,-63.61818,1073.34167,511.40775,-94.75621,951.06927,475.11145,-9.40426,904.72369
178,1.475,498.41409,-62.95694,1074.65161,507.03052,-94.85091,952.14832,469.83316,-8.74105,905.633
179,1.483,496.99451,-62.6545,1076.34729,503.43976,-92.72516,953.31781,467.56238,-8.37777,906.33374
180,1.492,492.98328,-60.52274,1076.1001,498.5206,-93.57249,953.21497,460.31998,-8.83375,908.20074
181,1.5,488.32718,-62.2912,1077.3291,496.07574,-94.09305,954.34302,455.96918,-7.69988,909.16235
182,1.508,487.63382,-61.74312,1077.41113,491.80869,-92.84157,954.78278,451.21106,-8.08886,910.5343
183,1.517,482.16684,-60.56688,1078.56055,487.96451,-93.41642,955.36597,450.03455,-8.48296,910.20496
184,1.525,479.82727,-61.67373,1079.94678,484.11856,-92.24124,955.17413,442.49551,-8.56747,911.60852
185,1.533,475.70819,-60.2071,1080.68127,481.61771,-92.62822,956.09198,439.21368,-7.68694,911.81738
186,1.542,470.43927,-62.17632,1080.40857,476.53058,-92.84881,955.93915,433.36194,-8.44519,913.15088
187,1.55,468.58557,-62.96264,1080.20703,473.81378,-92.08463,957.17261,430.20712,-8.50136,913.75946
188,1.558,464.30469,-60.42724,1081.54504,468.14169,-91.60664,957.19818,424.71127,-10.09252,914.28009
189,1.567,460.85556,-61.47611,1081.98169,464.85449,-91.70487,958.19714,423.43585,-8.68108,914.61462
190,1.575,455.40421,-60.82189,1081.80164,461.13885,-92.07983,958.60828,415.6673,-9.19455,915.29987
191,1.583,451.93451,-62.63043,1081.68201,456.13535,-93.08138,958.76764,412.4624,-7.77382,915.98187
192,1.592,447.73294,-60.73204,1082.04492,452.28101,-91.76244,958.70795,408.20203,-8.02072,915.6272
193,1.6,444.02637,-61.73124,1081.21863,447.56046,-92.5706,958.74445,404.01715,-8.50643,914.82489
194,1.608,437.60458,-61.23878,1082.88074,444.17889,-91.81063,958.97388,399.87054,-8.58459,915.85797
195,1.617,435.60699,-61.4841,1082.20935,439.9426,-91.98814,958.86206,394.77438,-7.73123,914.92572
196,1.625,429.35675,-61.48946,1082.84119,434.29065,-92.08833,958.54401,391.37387,-8.26369,915.25311
