Frame#,Time,R.Forearm.x,R.Forearm.y,R.Forearm.z,R.Ulna.x,R.Ulna.y,R.Ulna.z,R.Radius.x,R.Radius.y,R.Radius.z
1,0,1281.99402,480.44205,1056.01038,1299.16638,509.66962,965.60913,1253.43665,426.94559,912.46722
2,0.008,1278.43909,477.85788,1055.43201,1295.56921,509.89633,966.25726,1249.94275,425.70682,912.36078
3,0.017,1273.10205,479.98141,1055.21838,1289.94812,510.16135,965.24042,1246.46179,426.99457,911.85492
4,0.025,1268.78943,478.16934,1055.59839,1285.22424,509.81989,965.24115,1242.36987,426.16782,911.84357
5,0.033,1264.10864,477.98013,1054.48193,1280.6875,509.81723,965.0752,1238.02356,425.20599,911.90283
6,0.042,1261.01111,476.53558,1054.36499,1276.25806,509.07748,965.16571,1233.54431,424.80545,912.32343
7,0.05,1255.01782,479.01672,1055.37463,1271.24915,507.83395,965.52985,1230.16382,423.58328,912.38477
8,0.058,1249.80762,477.93677,1054.55164,1266.91284,507.77759,965.93903,1226.60864,422.22681,912.72601
9,0.067,1245.78772,477.60611,1055.13965,1262.65076,506.46359,964.81152,1223.07886,421.65866,912.35339
10,0.075,1243.375,476.09787,1055.08997,1258.33569,505.63571,965.43427,1219.1803,421.84149,912.02087
11,0.083,1240.09314,475.28049,1054.65198,1254.17529,505.73468,965.13623,1215.45789,419.20123,912.30328
12,0.092,1235.24182,475.60556,1054.32129,1250.02832,504.69238,964.37366,1212.28564,418.6431,913.02814
13,0.1,1231.26575,473.74445,1054.42468,1248.09888,504.29483,964.78802,1209.05591,417.19748,912.96997
14,0.108,1227.95544,471.76736,1054.50195,1244.0022,504.6907,964.72443,1205.16052,417.30637,911.84033
15,0.117,1224.67749,474.62772,1053.18726,1239.96289,502.75308,963.63531,1202.099,418.07736,912.00848
16,0.125,1221.1615,474.2749,1053.83826,1234.99353,502.86777,963.40906,1197.54785,416.53052,911.99268
17,0.133,1216.12427,474.54141,1053.54773,1231.82849,504.33789,963.00189,1193.43884,416.30045,911.29425
18,0.142,1212.14978,474.86566,1053.1582,1227.67993,504.09061,961.38879,1190.98804,417.77173,910.44196
19,0.15,1208.32764,473.58823,1051.10559,1224.19617,505.04846,960.25568,1186.68738,419.36066,907.55304
20,0.158,1203.9823,476.37292,1050.35278,1219.62939,506.3356,959.90308,1181.21936,420.1076,906.21747
21,0.167,1201.63269,474.51685,1048.32495,1215.3822,506.53934,958.21539,1177.75818,422.07275,906.27484
22,0.175,1196.37061,477.51367,1047.59375,1212.76147,508.97415,957.87329,1172.46582,424.05203,903.70154
23,0.183,1190.20532,481.12662,1046.73877,1208.41956,509.76535,956.39563,1169.56152,424.11792,903.51221
24,0.192,1184.55554,484.34509,1046.22095,1204.11084,511.8634,955.99225,1165.02563,425.83957,901.64282
25,0.2,1182.11633,482.55408,1044.99426,1199.03833,513.70819,955.19946,1157.76343,428.80566,900.44226
26,0.208,1176.96838,483.57785,1043.49036,1193.86877,516.27264,953.49176,1155.41382,430.07825,899.81775
27,0.217,1172.06409,484.44934,1043.63062,1188.73816,515.01471,952.85626,1149.88257,432.07025,897.90106
28,0.225,1166.53345,488.4541,1042.41492,1183.1449,517.52777,952.69263,1143.21301,433.95139,897.6629
29,0.233,1161.80212,487.65024,1041.99146,1177.10522,520.00024,952.05249,1137.23352,436.47977,897.04645
30,0.242,1155.08337,488.16473,1040.72229,1172.15039,521.7373,951.39441,1131.25598,436.80246,896.92395
31,0.25,1149.67493,489.0416,1040.69861,1166.71973,520.29523,951.22809,1125.33435,438.17975,896.01526
32,0.258,1144.7605,488.4353,1040.18787,1161.81531,521.79163,951.0033,1120.65918,437.73175,896.3432
33,0.267,1138.70288,490.28717,1039.79724,1153.47229,522.05939,949.52063,1115.80066,437.40845,895.82129
34,0.275,1133.07666,492.1011,1040.66418,1148.2489,522.35931,949.91321,1110.84106,436.45334,896.16028
35,0.283,1127.72327,493.93961,1040.07446,1142.86462,524.039,950.06885,1106.45825,435.76187,896.15088
36,0.292,1122.27454,490.43253,1040.20203,1136.59766,521.76685,949.46637,1102.20886,434.15073,896.76013
37,0.3,1116.96143,492.54767,1040.11267,1131.86084,521.83893,949.12915,1097.2146,433.91486,898.23077
38,0.308,1113.01672,488.42905,1039.8136,1126.86572,519.66858,949.29785,1092.90796,431.46567,898.38696
39,0.317,1108.03394,490.87253,1039.42017,1122.68018,520.52667,949.42676,1088.97083,430.42334,898.13586
40,0.325,1103.69958,490.96927,1039.53174,1117.2384,518.10028,948.73474,1085.83081,429.4075,897.89667
41,0.333,1100.3313,488.89258,1038.75024,1112.56421,519.72614,948.02228,1079.06177,431.30472,897.12891
42,0.342,1095.99512,490.8985,1038.5144,1108.0675,521.77057,947.87695,1075.58374,431.26132,896.81445
43,0.35,1091.60571,492.14996,1038.09705,1104.74646,522.7041,948.39246,1069.86035,435.00415,894.70123
44,0.358,1087.42151,490.29636,1038.09583,1101.245,522.11768,946.33087,1065.22034,436.0079,894.73016
45,0.367,1082.4375,494.01129,1036.27368,1097.37891,524.78302,946.09003,1060.63281,438.30127,893.90106
46,0.375,1077.40247,495.04581,1036.11938,1093.3606,525.47577,945.28687,1057.05884,438.77789,892.09906
47,0.383,1073.62329,497.22507,1035.82288,1089.81787,526.93756,945.47748,1052.9679,440.68909,891.81024
48,0.392,1068.97058,498.60583,1035.60925,1086.40991,528.17255,945.34015,1049.16553,441.45981,890.90479
49,0.4,1063.67236,501.57895,1035.00061,1082.56421,529.97253,945.43793,1044.45911,444.6839,890.28516
50,0.408,1058.91016,502.07736,1034.59924,1077.82373,531.83282,944.58057,1039.79797,446.36566,889.44446
51,0.417,1055.6394,500.84683,1034.46179,1073.23669,533.36615,944.2298,1034.1615,448.76794,889.65466
52,0.425,1050.41296,502.37036,1033.83008,1068.28564,534.19244,943.77484,1028.68884,449.02841,890.7016
53,0.433,1045.37561,505.25754,1033.74268,1062.77014,535.8092,944.49188,1023.4856,451.35852,889.17078
54,0.442,1039.37561,508.6626,1034.85083,1056.28308,536.93701,944.2536,1017.68396,452.37381,890.34601
55,0.45,1033.375,508.33627,1034.6001,1050.59143,538.83142,944.40668,1010.16913,454.95129,890.32556
56,0.458,1027.27808,509.06509,1035.99915,1044.23157,539.48529,944.76953,1005.70941,455.74759,891.48328
57,0.467,1021.06702,511.39145,1036.12537,1038.6322,539.79749,944.69666,1000.81934,455.78339,891.99146
58,0.475,1016.59882,512.22577,1036.10474,1032.77405,541.6969,944.75464,996.35962,454.54718,893.4256
59,0.483,1010.89575,510.99667,1036.35571,1026.96838,541.5025,946.48376,991.39044,454.28741,893.89105
60,0.492,1005.99274,512.54211,1036.72717,1021.33624,541.39886,946.78955,987.06036,453.69113,894.03247
61,0.5,1002.13715,510.09183,1036.91248,1016.62189,540.13763,946.6908,983.6983,452.33508,894.38776
62,0.508,995.6488,509.93317,1036.97083,1011.47345,539.62701,947.27576,980.28088,452.87561,894.46191
63,0.517,991.63257,510.8522,1037.85974,1007.05292,538.36682,947.3573,975.82104,450.9649,894.78949
64,0.525,987.48065,509.46704,1038.10303,1002.84412,538.6275,946.59064,972.5191,450.20847,894.36438
65,0.533,984.61456,508.60345,1036.84229,999.42786,538.53705,946.01678,969.11163,449.02692,894.08917
66,0.542,980.62488,506.68228,1037.83691,995.54285,536.27338,946.185,966.66968,446.09128,894.32471
67,0.55,976.31604,506.52167,1035.70105,991.4162,536.7063,945.14111,964.61237,446.38016,893.69904
68,0.558,973.61853,508.11807,1035.2926,988.46948,534.76868,944.96936,961.31647,445.3681,893.45001
69,0.567,970.78015,504.22797,1035.0105,985.89917,535.61798,945.0675,958.3844,443.66852,893.04797
70,0.575,967.55072,504.62619,1034.99841,982.75525,535.51581,944.54187,955.94879,444.49716,891.04144
71,0.583,965.06104,505.61694,1034.58716,980.44427,535.30505,944.07837,954.97064,444.31287,890.80792
72,0.592,962.38025,504.50861,1033.48169,977.90912,533.75079,943.34558,951.94897,443.92328,890.23761
73,0.6,960.00848,504.29492,1032.46765,975.89874,533.90588,943.48859,946.12384,444.5614,889.07159
74,0.608,955.86792,506.59976,1032.34521,973.37415,534.74042,942.15155,944.6106,444.98166,889.35461
75,0.617,952.50763,507.65521,1031.29932,970.77026,536.29291,941.46454,939.98657,447.99658,889.02563
76,0.625,950.39246,509.04047,1031.54346,968.26831,536.64471,940.73468,937.91895,448.35764,888.46106
77,0.633,946.12177,510.05402,1031.51794,965.60724,537.62628,940.14056,934.48761,448.09329,888.17102
78,0.642,941.81567,507.92508,1030.45398,962.59827,536.91284,940.88092,927.93573,449.28964,887.66034
79,0.65,937.38452,510.31671,1030.03601,958.50311,539.98346,940.90942,924.04541,450.7023,888.0379
80,0.658,933.29053,512.68805,1029.53552,954.0965,539.09753,939.74896,919.99701,452.71616,887.36121
81,0.667,928.66766,514.98322,1030.74988,949.92633,540.03485,939.39673,914.95471,454.10019,886.7735
82,0.675,924.37018,510.87195,1029.33545,944.91357,540.10217,939.47821,910.435,452.63702,886.90808
83,0.683,919.63544,513.02863,1030.27344,939.93317,540.22247,939.85736,905.62335,453.6069,886.07849
84,0.692,915.32025,514.3595,1030.05615,935.04858,541.13666,939.75354,900.56989,452.21539,886.00079
85,0.7,909.45288,511.34454,1029.64832,929.84753,540.58844,940.06506,898.01208,452.32394,885.60907
86,0.708,904.052,513.77094,1030.04797,924.84583,540.45898,939.63721,893.21844,452.58417,885.39258
87,0.717,897.72534,512.53351,1029.41309,919.67578,539.57397,940.09857,888.85187,451.04044,884.59412
88,0.725,894.10797,512.96344,1028.23779,913.89618,539.67584,938.64203,884.26764,451.7692,884.25635
89,0.733,889.39276,510.28424,1029.15051,909.03436,538.41284,938.23395,878.61157,450.80649,883.89362
90,0.742,884.54529,508.22635,1028.40588,904.14288,537.99042,938.31799,876.08435,450.18906,883.59076
91,0.75,879.48236,508.52393,1028.06799,899.56812,536.82159,938.3335,869.73413,448.42935,883.99329
92,0.758,875.03198,506.49387,1028.28369,894.61145,537.32635,938.3396,865.93451,449.55768,883.42535
93,0.767,870.00507,506.7894,1028.18237,889.95941,534.9024,937.46161,861.03027,446.41199,884.39935
94,0.775,865.28802,505.06024,1028.37183,885.20428,535.10297,938.46307,857.00934,447.5188,883.30072
95,0.783,860.82111,504.71332,1027.89575,880.73944,533.3963,938.06287,850.75983,444.82843,884.01471
96,0.792,856.19678,503.12,1027.86707,876.61359,533.87506,937.41095,849.48065,444.32822,884.21307
97,0.8,851.90485,502.7663,1027.71497,871.09955,531.64368,937.7301,841.62,442.91119,884.57233
98,0.808,846.1084,500.87683,1026.77258,866.37762,531.18774,936.32697,838.5304,443.86523,883.58295
99,0.817,841.79285,502.17822,1026.27332,860.8183,530.77087,936.66833,831.79242,441.01559,883.36279
100,0.825,836.12518,501.03842,1026.68823,856.97797,529.927,936.1759,825.50916,439.71732,883.24402
101,0.833,834.6109,496.18631,1024.60962,851.97595,528.75476,936.57233,821.72089,441.25497,883.07245
102,0.842,828.7652,498.12659,1025.94409,848.1123,529.21094,936.67706,814.34924,440.35483,882.50677
103,0.85,823.75854,498.33038,1025.60925,842.35944,527.32379,935.69922,809.82507,439.96884,882.75134
104,0.858,819.487,496.53683,1025.42139,838.03772,527.50482,935.60779,804.89258,437.98193,882.31586
105,0.867,812.68048,495.28973,1025.56885,832.5401,525.85028,935.62128,798.47589,440.11578,881.8241
106,0.875,808.31921,495.65747,1025.76404,827.93622,526.55292,935.19696,793.85266,437.09714,881.48401
107,0.883,803.31433,491.60477,1024.75598,821.82208,524.71368,937.08209,786.25916,436.89798,882.18726
108,0.892,796.94232,496.05121,1028.99792,815.00726,523.04791,937.62811,782.38586,436.34799,882.17407
109,0.9,790.77045,492.38449,1028.61804,810.20239,523.74182,938.36053,776.37219,435.87796,882.44611
110,0.908,786.65112,487.67905,1027.69995,804.70123,521.17786,938.28876,770.47998,434.93759,884.44281
111,0.917,782.42871,489.85696,1028.73572,799.27081,521.29181,939.11456,763.61151,433.80423,885.67487
112,0.925,776.4101,486.51428,1028.95178,793.91492,519.40717,939.83661,759.92346,431.5032,886.18579
113,0.933,770.52307,490.53296,1032.19958,787.6521,519.68909,942.05396,754.16406,432.23102,886.64923
114,0.942,765.90985,485.94327,1031.71936,783.31439,518.68896,942.81494,747.71606,430.80478,888.76392
115,0.95,761.74994,488.09921,1032.69934,777.63507,517.52313,943.60083,743.35065,430.9993,889.86774
116,0.958,757.76691,484.6503,1032.36011,773.92206,517.35437,943.95221,738.97699,429.45642,891.1651
117,0.967,751.28381,488.01495,1035.93018,768.43024,516.00128,945.38037,731.94153,428.47089,892.20276
118,0.975,747.40942,485.86246,1036.0249,764.63837,515.46667,946.52032,729.33521,428.44016,893.09399
119,0.983,743.35492,485.3689,1035.96558,759.49457,515.25873,946.9071,723.2475,427.46832,895.22125
120,0.992,738.86859,487.10889,1037.24475,755.89642,515.15143,947.54169,717.78961,427.94061,895.41437
121,1,733.92999,484.32901,1037.39417,751.83264,514.55078,947.70996,712.45935,428.5867,896.02942
122,1.008,728.86371,487.65564,1039.82043,747.54816,514.40161,947.22144,707.60168,428.49423,895.52173
123,1.017,726.81757,484.35651,1039.80835,744.13507,515.10779,948.77368,702.67535,430.77301,896.11621
124,1.025,722.08563,484.39197,1039.69202,739.40967,513.67706,949.54602,697.46411,429.07297,896.90186
125,1.033,717.92865,486.90436,1040.17932,735.14221,513.99323,950.48242,691.75092,431.15363,897.75476
126,1.042,714.2453,484.80984,1040.04956,731.55865,516.01294,951.24182,687.52521,432.40723,898.3161
127,1.05,709.18091,487.08301,1041.6156,727.43988,515.79047,951.35126,681.9989,432.0379,898.99268
128,1.058,704.48712,488.83124,1043.604,723.73199,515.79102,951.83466,678.53247,433.14014,899.87921
129,1.067,699.03802,487.634,1043.97375,717.73169,517.1521,952.64642,673.3645,431.71979,900.77539
130,1.075,694.66913,487.65164,1043.56262,712.75696,515.51959,954.01697,667.79419,433.2576,901.95453
131,1.083,690.59241,485.51865,1043.94922,707.90442,516.26379,954.97754,664.87238,433.53821,902.04535
132,1.092,685.05408,488.02777,1045.68396,704.00867,515.45172,955.50403,658.53149,432.2067,904.03052
133,1.1,680.24066,490.02359,1047.44873,698.61261,516.94757,955.30658,654.45605,433.1217,905.23053
134,1.108,675.90619,488.1669,1047.71008,692.76416,515.93127,956.56879,650.47144,431.46078,905.54523
135,1.117,670.60736,488.64163,1047.63269,687.59137,516.15649,957.60791,644.85864,432.19534,906.4425
136,1.125,666.52844,486.53979,1048.02307,682.43549,516.31952,957.80817,641.43884,429.23413,906.81158
137,1.133,660.61627,485.28769,1048.77576,678.05164,516.15991,958.56433,636.823,430.98624,907.54218
138,1.142,655.336,487.46863,1050.82056,672.18359,515.44196,958.71686,632.09314,428.89285,908.69159
139,1.15,650.4588,487.81293,1050.54639,667.76349,514.78784,958.68176,627.44025,429.83633,909.19751
140,1.158,645.48938,486.94186,1049.62781,662.94214,514.96875,958.6593,622.56482,427.64288,907.72284
141,1.167,639.94,487.99142,1048.61182,657.16162,515.39203,957.98694,618.04089,429.15887,906.39313
142,1.175,635.6449,486.44016,1048.44482,651.46948,514.71979,957.03516,613.16785,428.56903,906.81702
143,1.183,631.19122,487.87183,1048.5542,647.36755,515.1272,956.40662,608.27509,428.80627,906.0625
144,1.192,625.87585,485.73212,1047.94885,643.05548,516.78644,956.12677,603.12195,428.86026,903.91632
145,1.2,620.79285,488.26337,1047.43872,638.37189,516.93396,955.26575,597.67175,430.66641,903.22766
146,1.208,616.07507,487.15311,1043.81714,632.51666,518.28424,954.91541,594.5188,431.31232,901.95288
147,1.217,611.38666,488.45334,1044.32434,628.2627,518.88727,953.72742,588.32257,431.96011,900.46643
148,1.225,606.79211,488.77072,1041.29175,623.14398,519.0755,952.97577,585.12823,431.80557,899.46014
149,1.233,601.81079,487.97198,1040.39526,618.06134,520.5235,950.94995,580.6969,434.23611,897.96741
150,1.242,597.22797,489.95532,1039.86365,613.39459,522.7002,950.14465,575.00439,435.06735,896.32538
151,1.25,591.23505,492.83029,1039.10254,607.66235,521.94641,948.84485,570.05042,436.35751,895.23608
152,1.258,586.85919,491.90283,1037.78589,603.70905,522.44354,946.88116,564.65228,438.92545,892.89221
153,1.267,581.78473,494.01236,1037.62109,598.7583,525.59619,946.45801,558.92896,439.68555,891.83398
154,1.275,575.664,497.44702,1035.77209,594.55341,525.42755,945.41022,553.20428,441.64948,891.07129
155,1.283,572.18707,494.86285,1033.47375,588.86389,525.41577,944.33307,546.84943,444.00031,890.85541
156,1.292,565.16388,497.03302,1033.74255,583.90753,528.18677,942.0647,540.50116,443.22116,890.68512
157,1.3,560.54156,500.21704,1033.51282,579.04395,527.39252,942.14697,535.03754,445.26901,890.30316
158,1.308,554.41583,499.23468,1031.83972,571.82147,529.22559,941.92822,529.11713,445.49982,890.49719
159,1.317,549.1217,501.71921,1033.56885,566.88391,528.67029,941.883,523.34454,446.49167,889.78632
160,1.325,543.82245,499.41034,1033.45789,559.74805,529.98956,942.0224,517.42065,446.21524,889.96729
161,1.333,538.79541,501.55478,1032.87268,554.49457,529.91235,942.68616,512.32275,444.29016,891.07581
162,1.342,534.90363,501.47778,1034.16248,547.52228,530.35657,942.64374,506.8598,445.2438,891.51306
163,1.35,528.99451,501.0567,1032.56116,540.28558,529.70441,941.45685,503.16089,444.53851,891.15405
164,1.358,520.38812,501.49451,1031.56152,537.33789,529.44458,942.12793,496.94113,444.96207,892.08142
165,1.367,513.32172,505.04562,1033.67432,531.22131,530.20728,942.61389,493.16534,441.49701,892.07727
166,1.375,509.35782,502.98721,1034.28711,527.75964,531.18262,942.66858,488.99777,443.31384,892.27081
167,1.383,502.98877,505.00864,1035.50977,521.74274,529.38904,943.14014,485.28094,442.26718,892.22644
168,1.392,502.98877,505.00864,1035.50977,517.40045,532.50653,943.84314,479.74844,443.16855,892.25928
169,1.4,499.69476,501.43573,1035.23901,515.72955,532.2475,944.96967,475.43661,445.29562,892.06641
170,1.408,492.02209,505.73929,1034.38098,509.1217,534.85535,944.68536,470.45865,447.94382,893.84705
171,1.417,492.02209,505.73929,1034.38098,502.535,538.07043,944.26184,465.0903,450.09879,894.25824
172,1.425,483.03796,510.35034,1035.40369,500.86206,537.16748,945.49548,461.3931,449.52515,894.52533
173,1.433,479.05099,509.3912,1035.60693,495.21359,539.78143,945.94525,456.95178,451.81461,894.23669
174,1.442,476.62115,509.68097,1035.47937,493.03964,541.34863,946.29895,455.34036,453.87723,893.31152
175,1.45,472.1489,512.88452,1037.69507,487.21069,541.44269,945.56592,451.26114,455.82849,893.13568
176,1.458,456.6488,519.45398,1035.91553,480.54898,542.86688,945.42328,448.74002,455.95184,892.57788
177,1.467,454.45459,520.49231,1035.4845,479.42981,543.93311,944.82898,443.45786,458.34552,892.99585
178,1.475,455.44305,518.27478,1036.33521,473.79562,546.52216,945.25732,436.6767,461.35245,892.05402
179,1.483,453.81949,517.83319,1035.71887,469.86847,547.67798,946.15491,435.35767,461.41458,891.83179
180,1.492,446.30655,517.6687,1036.41028,464.75748,549.74493,945.75592,428.92059,463.08392,891.50696
181,1.5,445.49109,518.24603,1034.72644,461.98047,549.78943,945.60956,421.55463,464.74164,891.45917
182,1.508,438.04202,522.45544,1033.88269,456.87097,551.86322,945.21643,420.34509,465.35825,890.95581
183,1.517,434.80222,518.94666,1033.61475,452.66409,552.83014,945.5506,413.99606,467.18082,891.28381
184,1.525,428.06653,522.38074,1035.68884,445.88394,552.8396,945.08356,410.8963,466.01309,891.2478
185,1.533,420.42767,522.11298,1037.70959,441.28622,552.77533,944.83087,403.31232,467.40793,892.8725
186,1.542,418.13531,522.30634,1037.48853,436.73557,552.92163,946.0437,397.19235,467.65991,892.68799
187,1.55,410.83237,522.24341,1036.96863,429.7901,551.29266,946.18042,394.46283,466.40607,893.98047
188,1.558,414.91428,518.81207,1037.22058,425.43399,553.31744,948.05823,391.42178,464.63486,894.18176
189,1.567,401.8389,521.65857,1037.04578,418.341,552.37177,947.21631,385.89926,463.74564,894.37128
190,1.575,399.76743,519.07874,1037.18872,413.59943,552.30402,947.16071,384.2522,463.13647,894.2016
191,1.583,392.20602,521.3429,1038.53418,410.25497,548.91052,946.87732,377.62396,461.88919,895.00348
192,1.592,382.13199,522.9986,1039.08704,407.75876,547.10742,946.68719,375.57901,461.28726,894.58026
193,1.6,382.60806,521.0321,1040.01807,402.07175,546.89557,947.77966,373.00275,458.64209,894.78253
194,1.608,380.14291,519.63971,1039.27185,397.4881,547.19946,948.9118,368.94705,457.84305,895.83423
195,1.617,374.34106,520.06262,1038.58215,394.23492,545.26733,947.81244,365.86047,455.70114,895.81378
196,1.625,371.13904,516.61572,1038.3158,389.88049,545.24683,947.76685,363.50092,454.37881,896.35504
197,1.633,368.85382,516.87494,1038.19873,387.71924,543.90192,947.88074,358.79807,453.58099,895.60388
198,1.642,365.65665,513.42999,1037.93225,382.2327,543.79138,947.46759,356.53033,452.49576,896.16846
